EC-Lab ASCII FILE
Nb header lines : 55                          

Open Circuit Voltage

Run on channel : 1 (SN 81504)
User : 
CE vs. WE compliance from -10 V to 10 V
Electrode connection : standard
Potential control : Ewe
Ewe ctrl range : min = -2.50 V, max = 2.50 V
Safety Limits :
	Do not start on E overload
Acquisition started on : 05/09/2026 23:46:58.612
Loaded Setting File :  C:\PEM-WE_measurements\2026\372_IV_IV IrOx, 5 min Pt, 30 min C, etched cathode\new station\Loopeis new\1,46 V different time gaps closed cell\Loopeis 1,46V_30s_3_PEIS from 6500Hz to 1000Hz.mps
Saved on :
	File : L_03_Loopeis 1,46V_30s_3_PEIS from 6500Hz to 1000Hz_20_OCV_C01.mpr
	Directory : C:\PEM-WE_measurements\2026\372_IV_IV IrOx, 5 min Pt, 30 min C, etched cathode\new station\Loopeis new\1,46 V different time gaps closed cell\
	Host : 192.168.0.2
Device : SP-150e (SN .005491)
Address : 192.168.0.91
EC-LAB for windows v11.71 (software)
Internet server v28.00 (firmware)
Command interpretor v14.01 (firmware)
Electrode material : 
Initial state : 
Electrolyte : 
Comments : 
Current amplifier : SP-150eB-20A
Electrode surface area : 0.001 cm²
Characteristic mass : 0.001 g
Equivalent Weight : 0.000 g/eq.
Density : 0.000 g/cm3
Volume (V) : 0.001 cm³
Record Analogic IN 1
Text export
   Mode : Standard
   Time format : Elapsed
Cycle Definition : Charge/Discharge alternance
External device configuration :
   device type : Temperature Probe
   device name : Other
   Analog IN 1 : 
      unit : T/Â°C
      max : 100.000 at 2.000 V
      min : 0.000 at 1.460 V
tR (h:m:s)          0:00:30.0000        
dER/dt (mV/h)       1.0                 
record              <Ewe>               
dER (mV)            10.00               
dtR (s)             0.5000              
E range min (V)     -2.500              
E range max (V)     2.500               

mode	error	time/s	<Ewe/V>	Analog IN 1/V	
3	0	7.301935986311582E+002	1.2161493E+000	-2.7038031E+002
3	0	7.306935986185272E+002	1.2505732E+000	-2.7034851E+002
3	0	7.311935986058961E+002	1.2551637E+000	-2.7036972E+002
3	0	7.316935985932651E+002	1.2580065E+000	-2.7037326E+002
3	0	7.321935985806340E+002	1.2599955E+000	-2.7038742E+002
3	0	7.326935985680029E+002	1.2614994E+000	-2.7039093E+002
3	0	7.331935985553719E+002	1.2627311E+000	-2.7036618E+002
3	0	7.336935985427408E+002	1.2637678E+000	-2.7038385E+002
3	0	7.341935985301097E+002	1.2646294E+000	-2.7038031E+002
3	0	7.346935985174787E+002	1.2653521E+000	-2.7037326E+002
3	0	7.351935985048476E+002	1.2659740E+000	-2.7037326E+002
3	0	7.356935984922166E+002	1.2664845E+000	-2.7039093E+002
3	0	7.361935984795855E+002	1.2668655E+000	-2.7038742E+002
3	0	7.366935984669544E+002	1.2671585E+000	-2.7037677E+002
3	0	7.371935984543234E+002	1.2674665E+000	-2.7039447E+002
3	0	7.376935984416923E+002	1.2677436E+000	-2.7038742E+002
3	0	7.381935984290612E+002	1.2679871E+000	-2.7038031E+002
3	0	7.386935984164302E+002	1.2681869E+000	-2.7039447E+002
3	0	7.391935984037991E+002	1.2683662E+000	-2.7038031E+002
3	0	7.396935983911681E+002	1.2684946E+000	-2.7039093E+002
3	0	7.401935983785370E+002	1.2685378E+000	-2.7038742E+002
3	0	7.406935983659059E+002	1.2685100E+000	-2.7037677E+002
3	0	7.411935983532749E+002	1.2685399E+000	-2.7039093E+002
3	0	7.416935983406438E+002	1.2685722E+000	-2.7038742E+002
3	0	7.421935983280127E+002	1.2685837E+000	-2.7039447E+002
3	0	7.426935983153817E+002	1.2685814E+000	-2.7039093E+002
3	0	7.431935983027506E+002	1.2685685E+000	-2.7036267E+002
3	0	7.436935982901196E+002	1.2684994E+000	-2.7037677E+002
3	0	7.441935982774885E+002	1.2683724E+000	-2.7038385E+002
3	0	7.446935982648574E+002	1.2681844E+000	-2.7038385E+002
3	0	7.451935982522264E+002	1.2680523E+000	-2.7037326E+002
3	0	7.456935982395953E+002	1.2679374E+000	-2.7036618E+002
3	0	7.461935982269642E+002	1.2678107E+000	-2.7038742E+002
3	0	7.466935982143332E+002	1.2676835E+000	-2.7038385E+002
3	0	7.471935982017021E+002	1.2675380E+000	-2.7035913E+002
3	0	7.476935981890711E+002	1.2673599E+000	-2.7038742E+002
3	0	7.481935981764400E+002	1.2671026E+000	-2.7036972E+002
3	0	7.486935981638089E+002	1.2667866E+000	-2.7040860E+002
3	0	7.491935981511779E+002	1.2665336E+000	-2.7038742E+002
3	0	7.496935981385468E+002	1.2662939E+000	-2.7036267E+002
3	0	7.501935981259157E+002	1.2660464E+000	-2.7041214E+002
3	0	7.506935981132847E+002	1.2657818E+000	-2.7038742E+002
3	0	7.511935981006536E+002	1.2655101E+000	-2.7038031E+002
3	0	7.516935980880226E+002	1.2652075E+000	-2.7039447E+002
3	0	7.521935980753915E+002	1.2648488E+000	-2.7036972E+002
3	0	7.526935980627604E+002	1.2644364E+000	-2.7038742E+002
3	0	7.531935980501294E+002	1.2640942E+000	-2.7036267E+002
3	0	7.536935980374983E+002	1.2637807E+000	-2.7037326E+002
3	0	7.541935980248672E+002	1.2634505E+000	-2.7038031E+002
3	0	7.546935980122362E+002	1.2631199E+000	-2.7038031E+002
3	0	7.551935979996051E+002	1.2627867E+000	-2.7038385E+002
3	0	7.556935979869741E+002	1.2624307E+000	-2.7038742E+002
3	0	7.561935979743430E+002	1.2620167E+000	-2.7038385E+002
3	0	7.566935979617119E+002	1.2615550E+000	-2.7037677E+002
3	0	7.571935979490809E+002	1.2611595E+000	-2.7038385E+002
3	0	7.576935979364498E+002	1.2607926E+000	-2.7038031E+002
3	0	7.581935979238187E+002	1.2604216E+000	-2.7037326E+002
3	0	7.586935979111877E+002	1.2600540E+000	-2.7037326E+002
3	0	7.591935978985566E+002	1.2596833E+000	-2.7037326E+002
3	0	7.596935978859256E+002	1.2592931E+000	-2.7038031E+002
3	0	7.597181978853041E+002	1.2590663E+000	-2.7039447E+002