EC-Lab ASCII FILE
Nb header lines : 55                          

Open Circuit Voltage

Run on channel : 1 (SN 81504)
User : 
CE vs. WE compliance from -10 V to 10 V
Electrode connection : standard
Potential control : Ewe
Ewe ctrl range : min = -2.50 V, max = 2.50 V
Safety Limits :
	Do not start on E overload
Acquisition started on : 05/10/2026 04:16:10.113
Loaded Setting File :  C:\PEM-WE_measurements\2026\372_IV_IV IrOx, 5 min Pt, 30 min C, etched cathode\new station\Loopeis new\1,46 V different time gaps closed cell\Loopeis 1,46V_90s_3_PEIS from 6500Hz to 1000Hz.mps
Saved on :
	File : L_18_Loopeis 1,46V_90s_3_PEIS from 6500Hz to 1000Hz_08_OCV_C01.mpr
	Directory : C:\PEM-WE_measurements\2026\372_IV_IV IrOx, 5 min Pt, 30 min C, etched cathode\new station\Loopeis new\1,46 V different time gaps closed cell\
	Host : 192.168.0.2
Device : SP-150e (SN .005491)
Address : 192.168.0.91
EC-LAB for windows v11.71 (software)
Internet server v28.00 (firmware)
Command interpretor v14.01 (firmware)
Electrode material : 
Initial state : 
Electrolyte : 
Comments : 
Current amplifier : SP-150eB-20A
Electrode surface area : 0.001 cm²
Characteristic mass : 0.001 g
Equivalent Weight : 0.000 g/eq.
Density : 0.000 g/cm3
Volume (V) : 0.001 cm³
Record Analogic IN 1
Text export
   Mode : Standard
   Time format : Elapsed
Cycle Definition : Charge/Discharge alternance
External device configuration :
   device type : Temperature Probe
   device name : Other
   Analog IN 1 : 
      unit : T/Â°C
      max : 100.000 at 2.000 V
      min : 0.000 at 1.460 V
tR (h:m:s)          0:01:30.0000        
dER/dt (mV/h)       1.0                 
record              <Ewe>               
dER (mV)            10.00               
dtR (s)             0.5000              
E range min (V)     -2.500              
E range max (V)     2.500               

mode	error	time/s	<Ewe/V>	Analog IN 1/V	
3	0	4.504183951653977E+002	1.1422410E+000	-2.7037326E+002
3	0	4.509183951527666E+002	1.2612518E+000	-2.7037677E+002
3	0	4.514183951401355E+002	1.2631109E+000	-2.7039447E+002
3	0	4.519183951275045E+002	1.2633017E+000	-2.7036972E+002
3	0	4.524183951148734E+002	1.2625368E+000	-2.7038385E+002
3	0	4.529183951022424E+002	1.2609110E+000	-2.7038031E+002
3	0	4.534183950896113E+002	1.2582464E+000	-2.7038385E+002
3	0	4.539183950769802E+002	1.2540733E+000	-2.7039093E+002
3	0	4.544183950643492E+002	1.2472980E+000	-2.7039447E+002
3	0	4.549183950517181E+002	1.2360588E+000	-2.7039801E+002
3	0	4.554183950390870E+002	1.2180411E+000	-2.7039801E+002
3	0	4.559183950264560E+002	1.1897424E+000	-2.7037677E+002
3	0	4.564183950138249E+002	1.1430385E+000	-2.7038385E+002
3	0	4.569183950011939E+002	1.0581295E+000	-2.7037677E+002
3	0	4.574183949885628E+002	8.8959593E-001	-2.7036618E+002
3	0	4.579183949759317E+002	6.8019640E-001	-2.7035913E+002
3	0	4.584183949633007E+002	6.0560316E-001	-2.7038385E+002
3	0	4.589183949506696E+002	5.8058643E-001	-2.7039801E+002
3	0	4.594183949380385E+002	5.7014281E-001	-2.7036267E+002
3	0	4.599183949254075E+002	5.6755662E-001	-2.7035559E+002
3	0	4.604183949127764E+002	5.6922489E-001	-2.7038385E+002
3	0	4.609183949001454E+002	5.7254881E-001	-2.7037326E+002
3	0	4.614183948875143E+002	5.7665169E-001	-2.7037677E+002
3	0	4.619183948748832E+002	5.8126241E-001	-2.7038031E+002
3	0	4.624183948622522E+002	5.8620250E-001	-2.7040860E+002
3	0	4.629183948496211E+002	5.9080327E-001	-2.7038742E+002
3	0	4.634183948369900E+002	5.9522671E-001	-2.7040155E+002
3	0	4.639183948243590E+002	6.0078424E-001	-2.7036618E+002
3	0	4.644183948117279E+002	6.0702282E-001	-2.7038385E+002
3	0	4.649183947990969E+002	6.1282521E-001	-2.7038385E+002
3	0	4.654183947864658E+002	6.1800659E-001	-2.7039801E+002
3	0	4.659183947738347E+002	6.2264460E-001	-2.7036618E+002
3	0	4.664183947612037E+002	6.2687767E-001	-2.7036618E+002
3	0	4.669183947485726E+002	6.3018811E-001	-2.7036618E+002
3	0	4.674183947359415E+002	6.3270426E-001	-2.7037677E+002
3	0	4.679183947233105E+002	6.3620424E-001	-2.7037326E+002
3	0	4.684183947106794E+002	6.4056116E-001	-2.7038742E+002
3	0	4.689183946980484E+002	6.4458126E-001	-2.7036267E+002
3	0	4.694183946854173E+002	6.4818740E-001	-2.7038031E+002
3	0	4.699183946727862E+002	6.5116102E-001	-2.7039447E+002
3	0	4.704183946601552E+002	6.5372592E-001	-2.7038385E+002
3	0	4.709183946475241E+002	6.5542752E-001	-2.7038385E+002
3	0	4.714183946348930E+002	6.5646082E-001	-2.7036618E+002
3	0	4.719183946222620E+002	6.5837383E-001	-2.7036618E+002
3	0	4.724183946096309E+002	6.6128963E-001	-2.7039093E+002
3	0	4.729183945969999E+002	6.6391218E-001	-2.7037677E+002
3	0	4.734183945843688E+002	6.6597104E-001	-2.7036618E+002
3	0	4.739183945717377E+002	6.6715574E-001	-2.7035559E+002
3	0	4.744183945591067E+002	6.6756248E-001	-2.7036267E+002
3	0	4.749183945464756E+002	6.6703677E-001	-2.7038385E+002
3	0	4.754183945338445E+002	6.6567767E-001	-2.7039447E+002
3	0	4.759183945212135E+002	6.6532713E-001	-2.7038742E+002
3	0	4.764183945085824E+002	6.6611135E-001	-2.7037326E+002
3	0	4.769183944959514E+002	6.6668522E-001	-2.7039447E+002
3	0	4.774183944833203E+002	6.6675895E-001	-2.7036618E+002
3	0	4.779183944706892E+002	6.6615731E-001	-2.7038031E+002
3	0	4.784183944580582E+002	6.6515726E-001	-2.7036618E+002
3	0	4.789183944454271E+002	6.6305733E-001	-2.7039801E+002
3	0	4.794183944327960E+002	6.6045642E-001	-2.7040155E+002
3	0	4.799183944201650E+002	6.5887833E-001	-2.7037677E+002
3	0	4.804183944075339E+002	6.5884632E-001	-2.7036267E+002
3	0	4.809183943949029E+002	6.5921956E-001	-2.7037677E+002
3	0	4.814183943822718E+002	6.5984237E-001	-2.7037677E+002
3	0	4.819183943696407E+002	6.6076368E-001	-2.7039447E+002
3	0	4.824183943570097E+002	6.6223001E-001	-2.7037677E+002
3	0	4.829183943443786E+002	6.6376805E-001	-2.7038031E+002
3	0	4.834183943317476E+002	6.6573924E-001	-2.7037677E+002
3	0	4.839183943191165E+002	6.6960639E-001	-2.7038385E+002
3	0	4.844183943064854E+002	6.7558211E-001	-2.7036972E+002
3	0	4.849183942938544E+002	6.8194360E-001	-2.7035205E+002
3	0	4.854183942812233E+002	6.8819195E-001	-2.7037677E+002
3	0	4.859183942685922E+002	6.9398606E-001	-2.7038742E+002
3	0	4.864183942559612E+002	6.9891757E-001	-2.7039801E+002
3	0	4.869183942433301E+002	7.0267475E-001	-2.7036618E+002
3	0	4.874183942306991E+002	7.0565861E-001	-2.7036972E+002
3	0	4.879183942180680E+002	7.0926952E-001	-2.7036972E+002
3	0	4.884183942054369E+002	7.1384072E-001	-2.7036618E+002
3	0	4.889183941928059E+002	7.1786588E-001	-2.7035559E+002
3	0	4.894183941801748E+002	7.2098804E-001	-2.7039447E+002
3	0	4.899183941675437E+002	7.2274041E-001	-2.7038385E+002
3	0	4.904183941549127E+002	7.2287273E-001	-2.7037326E+002
3	0	4.909183941422816E+002	7.2256529E-001	-2.7036972E+002
3	0	4.914183941296506E+002	7.2154790E-001	-2.7039093E+002
3	0	4.919183941170195E+002	7.2038049E-001	-2.7036267E+002
3	0	4.924183941043884E+002	7.1964169E-001	-2.7038031E+002
3	0	4.929183940917574E+002	7.1809107E-001	-2.7039093E+002
3	0	4.934183940791263E+002	7.1509951E-001	-2.7038031E+002
3	0	4.939183940664952E+002	7.1077174E-001	-2.7039093E+002
3	0	4.944183940538642E+002	7.0527458E-001	-2.7037677E+002
3	0	4.949183940412331E+002	6.9857687E-001	-2.7035205E+002
3	0	4.954183940286021E+002	6.9130766E-001	-2.7037326E+002
3	0	4.959183940159710E+002	6.8541563E-001	-2.7039093E+002
3	0	4.964183940033399E+002	6.8155521E-001	-2.7038031E+002
3	0	4.969183939907089E+002	6.7800105E-001	-2.7038031E+002
3	0	4.974183939780778E+002	6.7397952E-001	-2.7037677E+002
3	0	4.979183939654467E+002	6.6946566E-001	-2.7038742E+002
3	0	4.984183939528157E+002	6.6431868E-001	-2.7036972E+002
3	0	4.989183939401846E+002	6.5827495E-001	-2.7038742E+002
3	0	4.994183939275536E+002	6.5192711E-001	-2.7037326E+002
3	0	4.999183939149225E+002	6.4706266E-001	-2.7039801E+002
3	0	5.004183939022914E+002	6.4422017E-001	-2.7034851E+002
3	0	5.009183938896604E+002	6.4216864E-001	-2.7037326E+002
3	0	5.014183938770293E+002	6.4038819E-001	-2.7040155E+002
3	0	5.019183938643982E+002	6.3907403E-001	-2.7038385E+002
3	0	5.024183938517672E+002	6.3838792E-001	-2.7036618E+002
3	0	5.029183938391361E+002	6.3809848E-001	-2.7041214E+002
3	0	5.034183938265051E+002	6.3850528E-001	-2.7035559E+002
3	0	5.039183938138740E+002	6.4091629E-001	-2.7037326E+002
3	0	5.044183938012429E+002	6.4568567E-001	-2.7039447E+002
3	0	5.049183937886119E+002	6.5117663E-001	-2.7035559E+002
3	0	5.054183937759808E+002	6.5657920E-001	-2.7040155E+002
3	0	5.059183937633497E+002	6.6164345E-001	-2.7038385E+002
3	0	5.064183937507187E+002	6.6606337E-001	-2.7037677E+002
3	0	5.069183937380876E+002	6.6936260E-001	-2.7039447E+002
3	0	5.074183937254566E+002	6.7173886E-001	-2.7036618E+002
3	0	5.079183937128255E+002	6.7450100E-001	-2.7038385E+002
3	0	5.084183937001944E+002	6.7833799E-001	-2.7037677E+002
3	0	5.089183936875634E+002	6.8180037E-001	-2.7038031E+002
3	0	5.094183936749323E+002	6.8417329E-001	-2.7035913E+002
3	0	5.099183936623012E+002	6.8527687E-001	-2.7039093E+002
3	0	5.104183936496702E+002	6.8494374E-001	-2.7037677E+002
3	0	5.109183936370391E+002	6.8302464E-001	-2.7036972E+002
3	0	5.114183936244081E+002	6.7996842E-001	-2.7039093E+002
3	0	5.119183936117770E+002	6.7730081E-001	-2.7039093E+002
3	0	5.124183935991459E+002	6.7574573E-001	-2.7038742E+002
3	0	5.129183935865149E+002	6.7396951E-001	-2.7038031E+002
3	0	5.134183935738838E+002	6.7119622E-001	-2.7038385E+002
3	0	5.139183935612527E+002	6.6749537E-001	-2.7037326E+002
3	0	5.144183935486217E+002	6.6282040E-001	-2.7037326E+002
3	0	5.149183935359906E+002	6.5686578E-001	-2.7036618E+002
3	0	5.154183935233596E+002	6.5015894E-001	-2.7038385E+002
3	0	5.159183935107285E+002	6.4444017E-001	-2.7038742E+002
3	0	5.164183934980974E+002	6.4032930E-001	-2.7040860E+002
3	0	5.169183934854664E+002	6.3629198E-001	-2.7041568E+002
3	0	5.174183934728353E+002	6.3177198E-001	-2.7037677E+002
3	0	5.179183934602042E+002	6.2709481E-001	-2.7038742E+002
3	0	5.184183934475732E+002	6.2202859E-001	-2.7037326E+002
3	0	5.189183934349421E+002	6.1637026E-001	-2.7039093E+002
3	0	5.194183934223111E+002	6.1038548E-001	-2.7036267E+002
3	0	5.199183934096800E+002	6.0551399E-001	-2.7038031E+002
3	0	5.204183933970489E+002	6.0231847E-001	-2.7036618E+002
3	0	5.209183933844179E+002	5.9961087E-001	-2.7038385E+002
3	0	5.214183933717868E+002	5.9704292E-001	-2.7037677E+002
3	0	5.219183933591557E+002	5.9471709E-001	-2.7038385E+002
3	0	5.224183933465247E+002	5.9282088E-001	-2.7037326E+002
3	0	5.229183933338936E+002	5.9114724E-001	-2.7038385E+002
3	0	5.234183933212626E+002	5.9003884E-001	-2.7037677E+002
3	0	5.239183933086315E+002	5.9093505E-001	-2.7038031E+002
3	0	5.244183932960004E+002	5.9408605E-001	-2.7035205E+002
3	0	5.249183932833694E+002	5.9804684E-001	-2.7038031E+002
3	0	5.254183932707383E+002	6.0206753E-001	-2.7039093E+002
3	0	5.259183932581072E+002	6.0618514E-001	-2.7038385E+002
3	0	5.264183932454762E+002	6.0999417E-001	-2.7038385E+002
3	0	5.269183932328451E+002	6.1279410E-001	-2.7036972E+002
3	0	5.274183932202141E+002	6.1477244E-001	-2.7038031E+002
3	0	5.279183932075830E+002	6.1724401E-001	-2.7035559E+002
3	0	5.284183931949519E+002	6.2067556E-001	-2.7038385E+002
3	0	5.289183931823209E+002	6.2363869E-001	-2.7039093E+002
3	0	5.294183931696898E+002	6.2560636E-001	-2.7038742E+002
3	0	5.299183931570587E+002	6.2662488E-001	-2.7038031E+002
3	0	5.304183931444277E+002	6.2658644E-001	-2.7038385E+002
3	0	5.309183931317966E+002	6.2518322E-001	-2.7039093E+002
3	0	5.314183931191656E+002	6.2269485E-001	-2.7039447E+002
3	0	5.319183931065345E+002	6.2071991E-001	-2.7038031E+002
3	0	5.324183930939034E+002	6.1992520E-001	-2.7038742E+002
3	0	5.329183930812724E+002	6.1887068E-001	-2.7038742E+002
3	0	5.334183930686413E+002	6.1700404E-001	-2.7039801E+002
3	0	5.339183930560102E+002	6.1441720E-001	-2.7034497E+002
3	0	5.344183930433792E+002	6.1112618E-001	-2.7039801E+002
3	0	5.349183930307481E+002	6.0675901E-001	-2.7038385E+002
3	0	5.354183930181171E+002	6.0152984E-001	-2.7038031E+002
3	0	5.359183930054860E+002	5.9724957E-001	-2.7035559E+002
3	0	5.364183929928549E+002	5.9420395E-001	-2.7037677E+002
3	0	5.369183929802239E+002	5.9104490E-001	-2.7039447E+002
3	0	5.374183929675928E+002	5.8734119E-001	-2.7038385E+002
3	0	5.379183929549617E+002	5.8321524E-001	-2.7036972E+002
3	0	5.384183929423307E+002	5.7870710E-001	-2.7038031E+002
3	0	5.389183929296996E+002	5.7340217E-001	-2.7036267E+002
3	0	5.394183929170686E+002	5.6749183E-001	-2.7038742E+002
3	0	5.399183929044375E+002	5.6255937E-001	-2.7040155E+002
3	0	5.399417929038464E+002	5.6062657E-001	-2.7035913E+002