EC-Lab ASCII FILE
Nb header lines : 55                          

Open Circuit Voltage

Run on channel : 1 (SN 81504)
User : 
CE vs. WE compliance from -10 V to 10 V
Electrode connection : standard
Potential control : Ewe
Ewe ctrl range : min = -2.50 V, max = 2.50 V
Safety Limits :
	Do not start on E overload
Acquisition started on : 05/07/2026 19:04:33.160
Loaded Setting File :  C:\PEM-WE_measurements\2026\372_IV_IV IrOx, 5 min Pt, 30 min C, etched cathode\new station\Loopeis new\1,46 V different time gaps open cell\Loopeis 1,46V_90s_3_PEIS from 6500Hz to 1000Hz.mps
Saved on :
	File : L_18_Loopeis 1,46V_90s_3_PEIS from 6500Hz to 1000Hz_04_OCV_C01.mpr
	Directory : C:\PEM-WE_measurements\2026\372_IV_IV IrOx, 5 min Pt, 30 min C, etched cathode\new station\Loopeis new\1,46 V different time gaps open cell\
	Host : 192.168.0.2
Device : SP-150e (SN .005491)
Address : 192.168.0.91
EC-LAB for windows v11.71 (software)
Internet server v28.00 (firmware)
Command interpretor v14.01 (firmware)
Electrode material : 
Initial state : 
Electrolyte : 
Comments : 
Current amplifier : SP-150eB-20A
Electrode surface area : 0.001 cm²
Characteristic mass : 0.001 g
Equivalent Weight : 0.000 g/eq.
Density : 0.000 g/cm3
Volume (V) : 0.001 cm³
Record Analogic IN 1
Text export
   Mode : Standard
   Time format : Elapsed
Cycle Definition : Charge/Discharge alternance
External device configuration :
   device type : Temperature Probe
   device name : Other
   Analog IN 1 : 
      unit : T/Â°C
      max : 100.000 at 2.000 V
      min : 0.000 at 1.460 V
tR (h:m:s)          0:01:30.0000        
dER/dt (mV/h)       1.0                 
record              <Ewe>               
dER (mV)            10.00               
dtR (s)             0.5000              
E range min (V)     -2.500              
E range max (V)     2.500               

mode	error	time/s	<Ewe/V>	Analog IN 1/V	
3	0	1.806615987238911E+002	1.0465126E+000	-2.7039093E+002
3	0	1.811615987112600E+002	1.2088727E+000	-2.7038031E+002
3	0	1.816615986986290E+002	1.1498051E+000	-2.7039093E+002
3	0	1.821615986859979E+002	1.0214528E+000	-2.7038742E+002
3	0	1.826615986733668E+002	6.1852878E-001	-2.7039447E+002
3	0	1.831615986607358E+002	3.4240159E-001	-2.7037326E+002
3	0	1.836615986481047E+002	2.9896542E-001	-2.7035913E+002
3	0	1.841615986354736E+002	2.9117402E-001	-2.7038031E+002
3	0	1.846615986228426E+002	2.8467175E-001	-2.7037677E+002
3	0	1.851615986102115E+002	2.7926335E-001	-2.7038031E+002
3	0	1.856615985975805E+002	2.7502435E-001	-2.7037326E+002
3	0	1.861615985849494E+002	2.7170312E-001	-2.7037677E+002
3	0	1.866615985723183E+002	2.6905492E-001	-2.7038385E+002
3	0	1.871615985596873E+002	2.6692539E-001	-2.7039801E+002
3	0	1.876615985470562E+002	2.6518273E-001	-2.7036618E+002
3	0	1.881615985344251E+002	2.6373053E-001	-2.7035205E+002
3	0	1.886615985217941E+002	2.6246911E-001	-2.7038742E+002
3	0	1.891615985091630E+002	2.6135927E-001	-2.7039093E+002
3	0	1.896615984965320E+002	2.6036313E-001	-2.7038385E+002
3	0	1.901615984839009E+002	2.5944683E-001	-2.7037326E+002
3	0	1.906615984712698E+002	2.5858998E-001	-2.7037326E+002
3	0	1.911615984586388E+002	2.5780860E-001	-2.7038385E+002
3	0	1.916615984460077E+002	2.5709137E-001	-2.7038742E+002
3	0	1.921615984333766E+002	2.5642493E-001	-2.7038385E+002
3	0	1.926615984207456E+002	2.5577581E-001	-2.7038385E+002
3	0	1.931615984081145E+002	2.5515372E-001	-2.7037677E+002
3	0	1.936615983954835E+002	2.5455415E-001	-2.7036972E+002
3	0	1.941615983828524E+002	2.5394785E-001	-2.7035559E+002
3	0	1.946615983702213E+002	2.5333679E-001	-2.7036618E+002
3	0	1.951615983575903E+002	2.5275770E-001	-2.7039447E+002
3	0	1.956615983449592E+002	2.5220791E-001	-2.7037677E+002
3	0	1.961615983323281E+002	2.5167117E-001	-2.7038031E+002
3	0	1.966615983196971E+002	2.5114343E-001	-2.7036618E+002
3	0	1.971615983070660E+002	2.5062621E-001	-2.7036267E+002
3	0	1.976615982944350E+002	2.5010401E-001	-2.7037326E+002
3	0	1.981615982818039E+002	2.4957526E-001	-2.7038742E+002
3	0	1.986615982691728E+002	2.4903321E-001	-2.7039801E+002
3	0	1.991615982565418E+002	2.4851006E-001	-2.7038031E+002
3	0	1.996615982439107E+002	2.4802108E-001	-2.7036267E+002
3	0	2.001615982312796E+002	2.4754301E-001	-2.7037677E+002
3	0	2.006615982186486E+002	2.4704850E-001	-2.7036267E+002
3	0	2.011615982060175E+002	2.4656822E-001	-2.7035913E+002
3	0	2.016615981933865E+002	2.4608128E-001	-2.7039093E+002
3	0	2.021615981807554E+002	2.4558832E-001	-2.7036972E+002
3	0	2.026615981681243E+002	2.4507897E-001	-2.7034851E+002
3	0	2.031615981554933E+002	2.4458197E-001	-2.7038031E+002
3	0	2.036615981428622E+002	2.4413131E-001	-2.7040155E+002
3	0	2.041615981302311E+002	2.4367215E-001	-2.7036972E+002
3	0	2.046615981176001E+002	2.4321361E-001	-2.7037677E+002
3	0	2.051615981049690E+002	2.4276063E-001	-2.7035205E+002
3	0	2.056615980923380E+002	2.4231505E-001	-2.7038385E+002
3	0	2.061615980797069E+002	2.4183907E-001	-2.7038385E+002
3	0	2.066615980670758E+002	2.4135470E-001	-2.7039801E+002
3	0	2.071615980544448E+002	2.4089491E-001	-2.7039447E+002
3	0	2.076615980418137E+002	2.4046867E-001	-2.7038031E+002
3	0	2.081615980291826E+002	2.4004008E-001	-2.7036972E+002
3	0	2.086615980165516E+002	2.3961399E-001	-2.7038385E+002
3	0	2.091615980039205E+002	2.3918685E-001	-2.7038742E+002
3	0	2.096615979912895E+002	2.3876397E-001	-2.7037677E+002
3	0	2.101615979786584E+002	2.3832914E-001	-2.7038742E+002
3	0	2.106615979660273E+002	2.3787422E-001	-2.7040860E+002
3	0	2.111615979533963E+002	2.3744144E-001	-2.7038742E+002
3	0	2.116615979407652E+002	2.3704210E-001	-2.7036267E+002
3	0	2.121615979281341E+002	2.3664039E-001	-2.7036267E+002
3	0	2.126615979155031E+002	2.3624220E-001	-2.7035913E+002
3	0	2.131615979028720E+002	2.3584557E-001	-2.7036972E+002
3	0	2.136615978902410E+002	2.3545766E-001	-2.7037677E+002
3	0	2.141615978776099E+002	2.3504625E-001	-2.7038385E+002
3	0	2.146615978649788E+002	2.3461674E-001	-2.7037677E+002
3	0	2.151615978523478E+002	2.3421486E-001	-2.7039447E+002
3	0	2.156615978397167E+002	2.3384655E-001	-2.7036972E+002
3	0	2.161615978270856E+002	2.3347242E-001	-2.7036618E+002
3	0	2.166615978144546E+002	2.3310754E-001	-2.7037677E+002
3	0	2.171615978018235E+002	2.3273961E-001	-2.7037677E+002
3	0	2.176615977891925E+002	2.3236573E-001	-2.7040860E+002
3	0	2.181615977765614E+002	2.3198143E-001	-2.7035205E+002
3	0	2.186615977639303E+002	2.3158070E-001	-2.7038742E+002
3	0	2.191615977512993E+002	2.3120575E-001	-2.7039447E+002
3	0	2.196615977386682E+002	2.3086023E-001	-2.7038385E+002
3	0	2.201615977260371E+002	2.3051941E-001	-2.7040155E+002
3	0	2.206615977134061E+002	2.3017599E-001	-2.7039801E+002
3	0	2.211615977007750E+002	2.2983781E-001	-2.7036972E+002
3	0	2.216615976881440E+002	2.2949749E-001	-2.7036972E+002
3	0	2.221615976755129E+002	2.2914205E-001	-2.7035913E+002
3	0	2.226615976628818E+002	2.2876817E-001	-2.7037677E+002
3	0	2.231615976502508E+002	2.2841480E-001	-2.7040860E+002
3	0	2.236615976376197E+002	2.2809705E-001	-2.7038742E+002
3	0	2.241615976249886E+002	2.2777821E-001	-2.7034497E+002
3	0	2.246615976123576E+002	2.2745870E-001	-2.7036618E+002
3	0	2.251615975997265E+002	2.2713661E-001	-2.7038031E+002
3	0	2.256615975870955E+002	2.2682235E-001	-2.7039093E+002
3	0	2.261615975744644E+002	2.2649510E-001	-2.7038385E+002
3	0	2.266615975618333E+002	2.2614779E-001	-2.7036267E+002
3	0	2.271615975492023E+002	2.2582369E-001	-2.7036618E+002
3	0	2.276615975365712E+002	2.2553734E-001	-2.7036972E+002
3	0	2.281615975239401E+002	2.2525287E-001	-2.7036267E+002
3	0	2.286615975113091E+002	2.2496535E-001	-2.7038031E+002
3	0	2.291615974986780E+002	2.2467950E-001	-2.7036267E+002
3	0	2.296615974860470E+002	2.2439198E-001	-2.7039801E+002
3	0	2.301615974734159E+002	2.2408375E-001	-2.7038385E+002
3	0	2.306615974607848E+002	2.2376175E-001	-2.7036972E+002
3	0	2.311615974481538E+002	2.2346857E-001	-2.7038031E+002
3	0	2.316615974355227E+002	2.2320291E-001	-2.7038031E+002
3	0	2.321615974228916E+002	2.2294313E-001	-2.7037326E+002
3	0	2.326615974102606E+002	2.2267558E-001	-2.7038031E+002
3	0	2.331615973976295E+002	2.2241813E-001	-2.7036972E+002
3	0	2.336615973849985E+002	2.2215524E-001	-2.7037326E+002
3	0	2.341615973723674E+002	2.2187579E-001	-2.7037677E+002
3	0	2.346615973597363E+002	2.2157921E-001	-2.7038031E+002
3	0	2.351615973471053E+002	2.2130550E-001	-2.7038385E+002
3	0	2.356615973344742E+002	2.2106645E-001	-2.7038385E+002
3	0	2.361615973218431E+002	2.2082828E-001	-2.7037326E+002
3	0	2.366615973092121E+002	2.2058333E-001	-2.7038031E+002
3	0	2.371615972965810E+002	2.2034955E-001	-2.7038031E+002
3	0	2.376615972839500E+002	2.2010404E-001	-2.7039093E+002
3	0	2.381615972713189E+002	2.1984723E-001	-2.7039447E+002
3	0	2.386615972586878E+002	2.1957591E-001	-2.7038031E+002
3	0	2.391615972460568E+002	2.1932095E-001	-2.7036972E+002
3	0	2.396615972334257E+002	2.1910341E-001	-2.7039447E+002
3	0	2.401615972207946E+002	2.1888399E-001	-2.7038385E+002
3	0	2.406615972081636E+002	2.1866412E-001	-2.7036618E+002
3	0	2.411615971955325E+002	2.1845080E-001	-2.7039093E+002
3	0	2.416615971829015E+002	2.1822813E-001	-2.7039093E+002
3	0	2.421615971702704E+002	2.1797870E-001	-2.7035559E+002
3	0	2.426615971576393E+002	2.1771874E-001	-2.7039447E+002
3	0	2.431615971450083E+002	2.1748033E-001	-2.7037326E+002
3	0	2.436615971323772E+002	2.1727784E-001	-2.7037677E+002
3	0	2.441615971197461E+002	2.1707816E-001	-2.7038385E+002
3	0	2.446615971071151E+002	2.1686536E-001	-2.7038385E+002
3	0	2.451615970944840E+002	2.1665953E-001	-2.7038742E+002
3	0	2.456615970818530E+002	2.1645263E-001	-2.7036972E+002
3	0	2.461615970692219E+002	2.1622391E-001	-2.7038031E+002
3	0	2.466615970565908E+002	2.1598849E-001	-2.7038385E+002
3	0	2.471615970439598E+002	2.1578206E-001	-2.7038385E+002
3	0	2.476615970313287E+002	2.1559699E-001	-2.7040155E+002
3	0	2.481615970186976E+002	2.1541227E-001	-2.7037677E+002
3	0	2.486615970060666E+002	2.1522689E-001	-2.7039801E+002
3	0	2.491615969934355E+002	2.1504174E-001	-2.7037677E+002
3	0	2.496615969808045E+002	2.1485148E-001	-2.7039093E+002
3	0	2.501615969681734E+002	2.1465018E-001	-2.7037326E+002
3	0	2.506615969555423E+002	2.1443477E-001	-2.7036618E+002
3	0	2.511615969429113E+002	2.1423800E-001	-2.7037677E+002
3	0	2.516615969302802E+002	2.1406908E-001	-2.7039093E+002
3	0	2.521615969176491E+002	2.1390717E-001	-2.7040155E+002
3	0	2.526615969050181E+002	2.1373829E-001	-2.7036267E+002
3	0	2.531615968923870E+002	2.1356434E-001	-2.7036267E+002
3	0	2.536615968797560E+002	2.1340398E-001	-2.7038385E+002
3	0	2.541615968671249E+002	2.1322042E-001	-2.7036972E+002
3	0	2.546615968544938E+002	2.1301219E-001	-2.7036267E+002
3	0	2.551615968418628E+002	2.1282674E-001	-2.7036267E+002
3	0	2.556615968292317E+002	2.1267197E-001	-2.7036618E+002
3	0	2.561615968166007E+002	2.1252108E-001	-2.7037326E+002
3	0	2.566615968039696E+002	2.1236970E-001	-2.7038385E+002
3	0	2.571615967913385E+002	2.1221386E-001	-2.7038742E+002
3	0	2.576615967787075E+002	2.1205837E-001	-2.7039801E+002
3	0	2.581615967660764E+002	2.1188521E-001	-2.7035913E+002
3	0	2.586615967534453E+002	2.1169561E-001	-2.7038742E+002
3	0	2.591615967408143E+002	2.1152852E-001	-2.7038385E+002
3	0	2.596615967281832E+002	2.1138814E-001	-2.7036972E+002
3	0	2.601615967155522E+002	2.1124762E-001	-2.7038742E+002
3	0	2.606615967029211E+002	2.1110748E-001	-2.7037326E+002
3	0	2.611615966902900E+002	2.1096547E-001	-2.7037326E+002
3	0	2.616615966776590E+002	2.1082833E-001	-2.7035913E+002
3	0	2.621615966650279E+002	2.1066554E-001	-2.7036618E+002
3	0	2.626615966523968E+002	2.1048583E-001	-2.7037326E+002
3	0	2.631615966397658E+002	2.1032292E-001	-2.7039093E+002
3	0	2.636615966271347E+002	2.1019565E-001	-2.7036972E+002
3	0	2.641615966145037E+002	2.1006945E-001	-2.7039093E+002
3	0	2.646615966018726E+002	2.0993339E-001	-2.7037677E+002
3	0	2.651615965892415E+002	2.0979823E-001	-2.7041214E+002
3	0	2.656615965766105E+002	2.0966534E-001	-2.7036618E+002
3	0	2.661615965639794E+002	2.0950931E-001	-2.7037326E+002
3	0	2.666615965513483E+002	2.0933807E-001	-2.7036618E+002
3	0	2.671615965387173E+002	2.0918877E-001	-2.7035559E+002
3	0	2.676615965260862E+002	2.0907177E-001	-2.7039093E+002
3	0	2.681615965134552E+002	2.0895679E-001	-2.7038031E+002
3	0	2.686615965008241E+002	2.0883715E-001	-2.7037326E+002
3	0	2.691615964881930E+002	2.0871620E-001	-2.7035913E+002
3	0	2.696615964755620E+002	2.0859264E-001	-2.7039801E+002
3	0	2.701615964629309E+002	2.0845473E-001	-2.7038742E+002
3	0	2.701879964622640E+002	2.0838422E-001	-2.7036972E+002