EC-Lab ASCII FILE
Nb header lines : 55                          

Open Circuit Voltage

Run on channel : 1 (SN 81504)
User : 
CE vs. WE compliance from -10 V to 10 V
Electrode connection : standard
Potential control : Ewe
Ewe ctrl range : min = -2.50 V, max = 2.50 V
Safety Limits :
	Do not start on E overload
Acquisition started on : 05/10/2026 09:44:17.042
Loaded Setting File :  C:\PEM-WE_measurements\2026\372_IV_IV IrOx, 5 min Pt, 30 min C, etched cathode\new station\Loopeis new\1,46 V different time gaps closed cell\Loopeis 1,46V_180s_4_PEIS from 650Hz to 100Hz.mps
Saved on :
	File : L_29_Loopeis 1,46V_180s_4_PEIS from 650Hz to 100Hz_16_OCV_C01.mpr
	Directory : C:\PEM-WE_measurements\2026\372_IV_IV IrOx, 5 min Pt, 30 min C, etched cathode\new station\Loopeis new\1,46 V different time gaps closed cell\
	Host : 192.168.0.2
Device : SP-150e (SN .005491)
Address : 192.168.0.91
EC-LAB for windows v11.71 (software)
Internet server v28.00 (firmware)
Command interpretor v14.01 (firmware)
Electrode material : 
Initial state : 
Electrolyte : 
Comments : 
Current amplifier : SP-150eB-20A
Electrode surface area : 0.001 cm²
Characteristic mass : 0.001 g
Equivalent Weight : 0.000 g/eq.
Density : 0.000 g/cm3
Volume (V) : 0.001 cm³
Record Analogic IN 1
Text export
   Mode : Standard
   Time format : Elapsed
Cycle Definition : Charge/Discharge alternance
External device configuration :
   device type : Temperature Probe
   device name : Other
   Analog IN 1 : 
      unit : T/Â°C
      max : 100.000 at 2.000 V
      min : 0.000 at 1.460 V
tR (h:m:s)          0:03:0.0000         
dER/dt (mV/h)       1.0                 
record              <Ewe>               
dER (mV)            10.00               
dtR (s)             0.5000              
E range min (V)     -2.500              
E range max (V)     2.500               

mode	error	time/s	<Ewe/V>	Analog IN 1/V	
3	0	1.624575772354365E+003	1.1056952E+000	-2.7035913E+002
3	0	1.625075772341734E+003	1.2538719E+000	-2.7040506E+002
3	0	1.625575772329103E+003	1.2415279E+000	-2.7036618E+002
3	0	1.626075772316472E+003	1.2156017E+000	-2.7036972E+002
3	0	1.626575772303840E+003	1.1704148E+000	-2.7039447E+002
3	0	1.627075772291209E+003	1.0880828E+000	-2.7038385E+002
3	0	1.627575772278578E+003	8.1469154E-001	-2.7038031E+002
3	0	1.628075772265947E+003	4.5804945E-001	-2.7036972E+002
3	0	1.628575772253316E+003	3.4804738E-001	-2.7039093E+002
3	0	1.629075772240685E+003	3.2825837E-001	-2.7038385E+002
3	0	1.629575772228054E+003	3.2676631E-001	-2.7038742E+002
3	0	1.630075772215423E+003	3.2847330E-001	-2.7036972E+002
3	0	1.630575772202792E+003	3.3047101E-001	-2.7037326E+002
3	0	1.631075772190161E+003	3.3234060E-001	-2.7038385E+002
3	0	1.631575772177530E+003	3.3374014E-001	-2.7036618E+002
3	0	1.632075772164899E+003	3.3464608E-001	-2.7038385E+002
3	0	1.632575772152268E+003	3.3520192E-001	-2.7036618E+002
3	0	1.633075772139637E+003	3.3568078E-001	-2.7038031E+002
3	0	1.633575772127006E+003	3.3604211E-001	-2.7036618E+002
3	0	1.634075772114375E+003	3.3624706E-001	-2.7038031E+002
3	0	1.634575772101744E+003	3.3640292E-001	-2.7039093E+002
3	0	1.635075772089112E+003	3.3681366E-001	-2.7035913E+002
3	0	1.635575772076481E+003	3.3731490E-001	-2.7037677E+002
3	0	1.636075772063850E+003	3.3766106E-001	-2.7036972E+002
3	0	1.636575772051219E+003	3.3790478E-001	-2.7038385E+002
3	0	1.637075772038588E+003	3.3815119E-001	-2.7038031E+002
3	0	1.637575772025957E+003	3.3839032E-001	-2.7036972E+002
3	0	1.638075772013326E+003	3.3848393E-001	-2.7035205E+002
3	0	1.638575772000695E+003	3.3857295E-001	-2.7036972E+002
3	0	1.639075771988064E+003	3.3889630E-001	-2.7035913E+002
3	0	1.639575771975433E+003	3.3934486E-001	-2.7038742E+002
3	0	1.640075771962802E+003	3.3966660E-001	-2.7036972E+002
3	0	1.640575771950171E+003	3.3985931E-001	-2.7037677E+002
3	0	1.641075771937540E+003	3.4005362E-001	-2.7036972E+002
3	0	1.641575771924909E+003	3.4022701E-001	-2.7035559E+002
3	0	1.642075771912278E+003	3.4027600E-001	-2.7036618E+002
3	0	1.642575771899647E+003	3.4026611E-001	-2.7035205E+002
3	0	1.643075771887015E+003	3.4053424E-001	-2.7035913E+002
3	0	1.643575771874384E+003	3.4091905E-001	-2.7040155E+002
3	0	1.644075771861753E+003	3.4118298E-001	-2.7036618E+002
3	0	1.644575771849122E+003	3.4133974E-001	-2.7034143E+002
3	0	1.645075771836491E+003	3.4153882E-001	-2.7038742E+002
3	0	1.645575771823860E+003	3.4177268E-001	-2.7037677E+002
3	0	1.646075771811229E+003	3.4198788E-001	-2.7038385E+002
3	0	1.646575771798598E+003	3.4218261E-001	-2.7039447E+002
3	0	1.647075771785967E+003	3.4265333E-001	-2.7039093E+002
3	0	1.647575771773336E+003	3.4329772E-001	-2.7038385E+002
3	0	1.648075771760705E+003	3.4382340E-001	-2.7039447E+002
3	0	1.648575771748074E+003	3.4422463E-001	-2.7036618E+002
3	0	1.649075771735443E+003	3.4456095E-001	-2.7040155E+002
3	0	1.649575771722812E+003	3.4486952E-001	-2.7038031E+002
3	0	1.650075771710181E+003	3.4500098E-001	-2.7035559E+002
3	0	1.650575771697550E+003	3.4505233E-001	-2.7038385E+002
3	0	1.651075771684918E+003	3.4531519E-001	-2.7039801E+002
3	0	1.651575771672287E+003	3.4570873E-001	-2.7038031E+002
3	0	1.652075771659656E+003	3.4594390E-001	-2.7038742E+002
3	0	1.652575771647025E+003	3.4605840E-001	-2.7034851E+002
3	0	1.653075771634394E+003	3.4615326E-001	-2.7038031E+002
3	0	1.653575771621763E+003	3.4621525E-001	-2.7036972E+002
3	0	1.654075771609132E+003	3.4617418E-001	-2.7036267E+002
3	0	1.654575771596501E+003	3.4604755E-001	-2.7039447E+002
3	0	1.655075771583870E+003	3.4619176E-001	-2.7036618E+002
3	0	1.655575771571239E+003	3.4642127E-001	-2.7039447E+002
3	0	1.656075771558608E+003	3.4651414E-001	-2.7038031E+002
3	0	1.656575771545977E+003	3.4652376E-001	-2.7038385E+002
3	0	1.657075771533346E+003	3.4651577E-001	-2.7039801E+002
3	0	1.657575771520715E+003	3.4649071E-001	-2.7038742E+002
3	0	1.658075771508084E+003	3.4633088E-001	-2.7036972E+002
3	0	1.658575771495453E+003	3.4611440E-001	-2.7036618E+002
3	0	1.659075771482821E+003	3.4614208E-001	-2.7037677E+002
3	0	1.659575771470190E+003	3.4630677E-001	-2.7037677E+002
3	0	1.660075771457559E+003	3.4633973E-001	-2.7037326E+002
3	0	1.660575771444928E+003	3.4626925E-001	-2.7038031E+002
3	0	1.661075771432297E+003	3.4617919E-001	-2.7037677E+002
3	0	1.661575771419666E+003	3.4608400E-001	-2.7036618E+002
3	0	1.662075771407035E+003	3.4589165E-001	-2.7037326E+002
3	0	1.662575771394404E+003	3.4564844E-001	-2.7039093E+002
3	0	1.663075771381773E+003	3.4561008E-001	-2.7038385E+002
3	0	1.663575771369142E+003	3.4573045E-001	-2.7036618E+002
3	0	1.664075771356511E+003	3.4575480E-001	-2.7038031E+002
3	0	1.664575771343880E+003	3.4565136E-001	-2.7037677E+002
3	0	1.665075771331249E+003	3.4560010E-001	-2.7040155E+002
3	0	1.665575771318618E+003	3.4554201E-001	-2.7038031E+002
3	0	1.666075771305987E+003	3.4547186E-001	-2.7037326E+002
3	0	1.666575771293356E+003	3.4543607E-001	-2.7036972E+002
3	0	1.667075771280724E+003	3.4568143E-001	-2.7038031E+002
3	0	1.667575771268093E+003	3.4609619E-001	-2.7036972E+002
3	0	1.668075771255462E+003	3.4641778E-001	-2.7038742E+002
3	0	1.668575771242831E+003	3.4663811E-001	-2.7038385E+002
3	0	1.669075771230200E+003	3.4681496E-001	-2.7039801E+002
3	0	1.669575771217569E+003	3.4697053E-001	-2.7039093E+002
3	0	1.670075771204938E+003	3.4693068E-001	-2.7039447E+002
3	0	1.670575771192307E+003	3.4680137E-001	-2.7037677E+002
3	0	1.671075771179676E+003	3.4688532E-001	-2.7038031E+002
3	0	1.671575771167045E+003	3.4706306E-001	-2.7038031E+002
3	0	1.672075771154414E+003	3.4711021E-001	-2.7038031E+002
3	0	1.672575771141783E+003	3.4705544E-001	-2.7036972E+002
3	0	1.673075771129152E+003	3.4696528E-001	-2.7036267E+002
3	0	1.673575771116521E+003	3.4686926E-001	-2.7039801E+002
3	0	1.674075771103890E+003	3.4665266E-001	-2.7039447E+002
3	0	1.674575771091259E+003	3.4636918E-001	-2.7035913E+002
3	0	1.675075771078627E+003	3.4629545E-001	-2.7038385E+002
3	0	1.675575771065996E+003	3.4635931E-001	-2.7037326E+002
3	0	1.676075771053365E+003	3.4631270E-001	-2.7034497E+002
3	0	1.676575771040734E+003	3.4618741E-001	-2.7037677E+002
3	0	1.677075771028103E+003	3.4602654E-001	-2.7037677E+002
3	0	1.677575771015472E+003	3.4584287E-001	-2.7036618E+002
3	0	1.678075771002841E+003	3.4557283E-001	-2.7038742E+002
3	0	1.678575770990210E+003	3.4524453E-001	-2.7037677E+002
3	0	1.679075770977579E+003	3.4512553E-001	-2.7038385E+002
3	0	1.679575770964948E+003	3.4515566E-001	-2.7037326E+002
3	0	1.680075770952317E+003	3.4507683E-001	-2.7038031E+002
3	0	1.680575770939686E+003	3.4490058E-001	-2.7039447E+002
3	0	1.681075770927055E+003	3.4473431E-001	-2.7039093E+002
3	0	1.681575770914424E+003	3.4454793E-001	-2.7037326E+002
3	0	1.682075770901793E+003	3.4424108E-001	-2.7035559E+002
3	0	1.682575770889162E+003	3.4386367E-001	-2.7037677E+002
3	0	1.683075770876530E+003	3.4371200E-001	-2.7039093E+002
3	0	1.683575770863899E+003	3.4371975E-001	-2.7039447E+002
3	0	1.684075770851268E+003	3.4363583E-001	-2.7040155E+002
3	0	1.684575770838637E+003	3.4348094E-001	-2.7036618E+002
3	0	1.685075770826006E+003	3.4331107E-001	-2.7036267E+002
3	0	1.685575770813375E+003	3.4317917E-001	-2.7036972E+002
3	0	1.686075770800744E+003	3.4299996E-001	-2.7039801E+002
3	0	1.686575770788113E+003	3.4284589E-001	-2.7036972E+002
3	0	1.687075770775482E+003	3.4294209E-001	-2.7038742E+002
3	0	1.687575770762851E+003	3.4324533E-001	-2.7037326E+002
3	0	1.688075770750220E+003	3.4349591E-001	-2.7037326E+002
3	0	1.688575770737589E+003	3.4364298E-001	-2.7038031E+002
3	0	1.689075770724958E+003	3.4376073E-001	-2.7038742E+002
3	0	1.689575770712327E+003	3.4381604E-001	-2.7037677E+002
3	0	1.690075770699696E+003	3.4371802E-001	-2.7037326E+002
3	0	1.690575770687065E+003	3.4353384E-001	-2.7037677E+002
3	0	1.691075770674433E+003	3.4354270E-001	-2.7035205E+002
3	0	1.691575770661802E+003	3.4365043E-001	-2.7037326E+002
3	0	1.692075770649171E+003	3.4364495E-001	-2.7038742E+002
3	0	1.692575770636540E+003	3.4355116E-001	-2.7039093E+002
3	0	1.693075770623909E+003	3.4343767E-001	-2.7036972E+002
3	0	1.693575770611278E+003	3.4327355E-001	-2.7039447E+002
3	0	1.694075770598647E+003	3.4302115E-001	-2.7038031E+002
3	0	1.694575770586016E+003	3.4271127E-001	-2.7036618E+002
3	0	1.695075770573385E+003	3.4256858E-001	-2.7039447E+002
3	0	1.695575770560754E+003	3.4257787E-001	-2.7036972E+002
3	0	1.696075770548123E+003	3.4248567E-001	-2.7038385E+002
3	0	1.696575770535492E+003	3.4229693E-001	-2.7037677E+002
3	0	1.697075770522861E+003	3.4211168E-001	-2.7038385E+002
3	0	1.697575770510230E+003	3.4186229E-001	-2.7038742E+002
3	0	1.698075770497599E+003	3.4154072E-001	-2.7035205E+002
3	0	1.698575770484968E+003	3.4114182E-001	-2.7037326E+002
3	0	1.699075770472336E+003	3.4092271E-001	-2.7037326E+002
3	0	1.699575770459705E+003	3.4088546E-001	-2.7038742E+002
3	0	1.700075770447074E+003	3.4077016E-001	-2.7040155E+002
3	0	1.700575770434443E+003	3.4055233E-001	-2.7038742E+002
3	0	1.701075770421812E+003	3.4034964E-001	-2.7037677E+002
3	0	1.701575770409181E+003	3.4010997E-001	-2.7037677E+002
3	0	1.702075770396550E+003	3.3979726E-001	-2.7037326E+002
3	0	1.702575770383919E+003	3.3940449E-001	-2.7038031E+002
3	0	1.703075770371288E+003	3.3920324E-001	-2.7037326E+002
3	0	1.703575770358657E+003	3.3916348E-001	-2.7036267E+002
3	0	1.704075770346026E+003	3.3905664E-001	-2.7038742E+002
3	0	1.704575770333395E+003	3.3886486E-001	-2.7039447E+002
3	0	1.705075770320764E+003	3.3868185E-001	-2.7035559E+002
3	0	1.705575770308133E+003	3.3853894E-001	-2.7037677E+002
3	0	1.706075770295502E+003	3.3834985E-001	-2.7035559E+002
3	0	1.706575770282871E+003	3.3815092E-001	-2.7036267E+002
3	0	1.707075770270239E+003	3.3818033E-001	-2.7040506E+002
3	0	1.707575770257608E+003	3.3843058E-001	-2.7038031E+002
3	0	1.708075770244977E+003	3.3865100E-001	-2.7038031E+002
3	0	1.708575770232346E+003	3.3882886E-001	-2.7034497E+002
3	0	1.709075770219715E+003	3.3897558E-001	-2.7037677E+002
3	0	1.709575770207084E+003	3.3907083E-001	-2.7039447E+002
3	0	1.710075770194453E+003	3.3904755E-001	-2.7040860E+002
3	0	1.710575770181822E+003	3.3891276E-001	-2.7037677E+002
3	0	1.711075770169191E+003	3.3890751E-001	-2.7040155E+002
3	0	1.711575770156560E+003	3.3902985E-001	-2.7039801E+002
3	0	1.712075770143929E+003	3.3907363E-001	-2.7036618E+002
3	0	1.712575770131298E+003	3.3896598E-001	-2.7038031E+002
3	0	1.713075770118667E+003	3.3884510E-001	-2.7036972E+002
3	0	1.713575770106036E+003	3.3867085E-001	-2.7037677E+002
3	0	1.714075770093405E+003	3.3841935E-001	-2.7038031E+002
3	0	1.714575770080774E+003	3.3809811E-001	-2.7039801E+002
3	0	1.715075770068142E+003	3.3794460E-001	-2.7036267E+002
3	0	1.715575770055511E+003	3.3794710E-001	-2.7035559E+002
3	0	1.716075770042880E+003	3.3786833E-001	-2.7038742E+002
3	0	1.716575770030249E+003	3.3769652E-001	-2.7039801E+002
3	0	1.717075770017618E+003	3.3748975E-001	-2.7039093E+002
3	0	1.717575770004987E+003	3.3728966E-001	-2.7036972E+002
3	0	1.718075769992356E+003	3.3698225E-001	-2.7037326E+002
3	0	1.718575769979725E+003	3.3660802E-001	-2.7041568E+002
3	0	1.719075769967094E+003	3.3639774E-001	-2.7036267E+002
3	0	1.719575769954463E+003	3.3634728E-001	-2.7036267E+002
3	0	1.720075769941832E+003	3.3622688E-001	-2.7038031E+002
3	0	1.720575769929201E+003	3.3600718E-001	-2.7038385E+002
3	0	1.721075769916570E+003	3.3578455E-001	-2.7040155E+002
3	0	1.721575769903939E+003	3.3554208E-001	-2.7036618E+002
3	0	1.722075769891308E+003	3.3519182E-001	-2.7036972E+002
3	0	1.722575769878677E+003	3.3481410E-001	-2.7038385E+002
3	0	1.723075769866045E+003	3.3456862E-001	-2.7037677E+002
3	0	1.723575769853414E+003	3.3450004E-001	-2.7036972E+002
3	0	1.724075769840783E+003	3.3438304E-001	-2.7036972E+002
3	0	1.724575769828152E+003	3.3419496E-001	-2.7035913E+002
3	0	1.725075769815521E+003	3.3400309E-001	-2.7037326E+002
3	0	1.725575769802890E+003	3.3380726E-001	-2.7036267E+002
3	0	1.726075769790259E+003	3.3358389E-001	-2.7036618E+002
3	0	1.726575769777628E+003	3.3335277E-001	-2.7038385E+002
3	0	1.727075769764997E+003	3.3335194E-001	-2.7036267E+002
3	0	1.727575769752366E+003	3.3355030E-001	-2.7036618E+002
3	0	1.728075769739735E+003	3.3373791E-001	-2.7038385E+002
3	0	1.728575769727104E+003	3.3387592E-001	-2.7038031E+002
3	0	1.729075769714473E+003	3.3398068E-001	-2.7036618E+002
3	0	1.729575769701842E+003	3.3404332E-001	-2.7036267E+002
3	0	1.730075769689211E+003	3.3397767E-001	-2.7036267E+002
3	0	1.730575769676580E+003	3.3380517E-001	-2.7039093E+002
3	0	1.731075769663948E+003	3.3375454E-001	-2.7035913E+002
3	0	1.731575769651317E+003	3.3381930E-001	-2.7039447E+002
3	0	1.732075769638686E+003	3.3382505E-001	-2.7037677E+002
3	0	1.732575769626055E+003	3.3371753E-001	-2.7038742E+002
3	0	1.733075769613424E+003	3.3357653E-001	-2.7038742E+002
3	0	1.733575769600793E+003	3.3337536E-001	-2.7037326E+002
3	0	1.734075769588162E+003	3.3310646E-001	-2.7036618E+002
3	0	1.734575769575531E+003	3.3277795E-001	-2.7038742E+002
3	0	1.735075769562900E+003	3.3260211E-001	-2.7038385E+002
3	0	1.735575769550269E+003	3.3257827E-001	-2.7039801E+002
3	0	1.736075769537638E+003	3.3248639E-001	-2.7036267E+002
3	0	1.736575769525007E+003	3.3230376E-001	-2.7038031E+002
3	0	1.737075769512376E+003	3.3207104E-001	-2.7039447E+002
3	0	1.737575769499745E+003	3.3179581E-001	-2.7039801E+002
3	0	1.738075769487114E+003	3.3144930E-001	-2.7038031E+002
3	0	1.738575769474483E+003	3.3108518E-001	-2.7036972E+002
3	0	1.739075769461851E+003	3.3086672E-001	-2.7040155E+002
3	0	1.739575769449220E+003	3.3077374E-001	-2.7039801E+002
3	0	1.740075769436589E+003	3.3063370E-001	-2.7037677E+002
3	0	1.740575769423958E+003	3.3041686E-001	-2.7039093E+002
3	0	1.741075769411327E+003	3.3018100E-001	-2.7037677E+002
3	0	1.741575769398696E+003	3.2992974E-001	-2.7036618E+002
3	0	1.742075769386065E+003	3.2962397E-001	-2.7039801E+002
3	0	1.742575769373434E+003	3.2924119E-001	-2.7036267E+002
3	0	1.743075769360803E+003	3.2902983E-001	-2.7039093E+002
3	0	1.743575769348172E+003	3.2895219E-001	-2.7036618E+002
3	0	1.744075769335541E+003	3.2882911E-001	-2.7038385E+002
3	0	1.744575769322910E+003	3.2860646E-001	-2.7037677E+002
3	0	1.745075769310279E+003	3.2834974E-001	-2.7038742E+002
3	0	1.745575769297648E+003	3.2813755E-001	-2.7037326E+002
3	0	1.746075769285017E+003	3.2796237E-001	-2.7037326E+002
3	0	1.746575769272386E+003	3.2775998E-001	-2.7038742E+002
3	0	1.747075769259754E+003	3.2777050E-001	-2.7040506E+002
3	0	1.747575769247123E+003	3.2794362E-001	-2.7037326E+002
3	0	1.748075769234492E+003	3.2809696E-001	-2.7037326E+002
3	0	1.748575769221861E+003	3.2821593E-001	-2.7037677E+002
3	0	1.749075769209230E+003	3.2835555E-001	-2.7038385E+002
3	0	1.749575769196599E+003	3.2844943E-001	-2.7035913E+002
3	0	1.750075769183968E+003	3.2841858E-001	-2.7037677E+002
3	0	1.750575769171337E+003	3.2833356E-001	-2.7037326E+002
3	0	1.751075769158706E+003	3.2835597E-001	-2.7037677E+002
3	0	1.751575769146075E+003	3.2846811E-001	-2.7037326E+002
3	0	1.752075769133444E+003	3.2848179E-001	-2.7036618E+002
3	0	1.752575769120813E+003	3.2839400E-001	-2.7039447E+002
3	0	1.753075769108182E+003	3.2827413E-001	-2.7036972E+002
3	0	1.753575769095551E+003	3.2812184E-001	-2.7039447E+002
3	0	1.754075769082920E+003	3.2787204E-001	-2.7036972E+002
3	0	1.754575769070289E+003	3.2754308E-001	-2.7038385E+002
3	0	1.755075769057657E+003	3.2733929E-001	-2.7037677E+002
3	0	1.755575769045026E+003	3.2726339E-001	-2.7035913E+002
3	0	1.756075769032395E+003	3.2714567E-001	-2.7038031E+002
3	0	1.756575769019764E+003	3.2691666E-001	-2.7037326E+002
3	0	1.757075769007133E+003	3.2668376E-001	-2.7036972E+002
3	0	1.757575768994502E+003	3.2648441E-001	-2.7038385E+002
3	0	1.758075768981871E+003	3.2623947E-001	-2.7035913E+002
3	0	1.758575768969240E+003	3.2590201E-001	-2.7039447E+002
3	0	1.759075768956609E+003	3.2567957E-001	-2.7037326E+002
3	0	1.759575768943978E+003	3.2558429E-001	-2.7036618E+002
3	0	1.760075768931347E+003	3.2539085E-001	-2.7040506E+002
3	0	1.760575768918716E+003	3.2519323E-001	-2.7036618E+002
3	0	1.761075768906085E+003	3.2498613E-001	-2.7035913E+002
3	0	1.761575768893454E+003	3.2476589E-001	-2.7036972E+002
3	0	1.762075768880823E+003	3.2447121E-001	-2.7037326E+002
3	0	1.762575768868192E+003	3.2411689E-001	-2.7040155E+002
3	0	1.763075768855560E+003	3.2390368E-001	-2.7036618E+002
3	0	1.763575768842929E+003	3.2380542E-001	-2.7036618E+002
3	0	1.764075768830298E+003	3.2363161E-001	-2.7038742E+002
3	0	1.764575768817667E+003	3.2343459E-001	-2.7038742E+002
3	0	1.765075768805036E+003	3.2323200E-001	-2.7039447E+002
3	0	1.765575768792405E+003	3.2304043E-001	-2.7035913E+002
3	0	1.766075768779774E+003	3.2281071E-001	-2.7038385E+002
3	0	1.766575768767143E+003	3.2257515E-001	-2.7037677E+002
3	0	1.767075768754512E+003	3.2251015E-001	-2.7038742E+002
3	0	1.767575768741881E+003	3.2257631E-001	-2.7037677E+002
3	0	1.768075768729250E+003	3.2254192E-001	-2.7039093E+002
3	0	1.768575768716619E+003	3.2247889E-001	-2.7036972E+002
3	0	1.769075768703988E+003	3.2238439E-001	-2.7038031E+002
3	0	1.769575768691357E+003	3.2227445E-001	-2.7038742E+002
3	0	1.770075768678726E+003	3.2208434E-001	-2.7039447E+002
3	0	1.770575768666095E+003	3.2182631E-001	-2.7037677E+002
3	0	1.771075768653463E+003	3.2167178E-001	-2.7037326E+002
3	0	1.771575768640832E+003	3.2163396E-001	-2.7038031E+002
3	0	1.772075768628201E+003	3.2149515E-001	-2.7037326E+002
3	0	1.772575768615570E+003	3.2134181E-001	-2.7037677E+002
3	0	1.773075768602939E+003	3.2116085E-001	-2.7038385E+002
3	0	1.773575768590308E+003	3.2098284E-001	-2.7038385E+002
3	0	1.774075768577677E+003	3.2070389E-001	-2.7040506E+002
3	0	1.774575768565046E+003	3.2037595E-001	-2.7035559E+002
3	0	1.775075768552415E+003	3.2018849E-001	-2.7035913E+002
3	0	1.775575768539784E+003	3.2011116E-001	-2.7036618E+002
3	0	1.776075768527153E+003	3.1995732E-001	-2.7039801E+002
3	0	1.776575768514522E+003	3.1978187E-001	-2.7040506E+002
3	0	1.777075768501891E+003	3.1959265E-001	-2.7036267E+002
3	0	1.777575768489260E+003	3.1938165E-001	-2.7035913E+002
3	0	1.778075768476629E+003	3.1909740E-001	-2.7037677E+002
3	0	1.778575768463998E+003	3.1876665E-001	-2.7036972E+002
3	0	1.779075768451366E+003	3.1855816E-001	-2.7038742E+002
3	0	1.779575768438735E+003	3.1846806E-001	-2.7035559E+002
3	0	1.780075768426104E+003	3.1830245E-001	-2.7040155E+002
3	0	1.780575768413473E+003	3.1812149E-001	-2.7036972E+002
3	0	1.781075768400842E+003	3.1794131E-001	-2.7039447E+002
3	0	1.781575768388211E+003	3.1776094E-001	-2.7036267E+002
3	0	1.782075768375580E+003	3.1751081E-001	-2.7037326E+002
3	0	1.782575768362949E+003	3.1722432E-001	-2.7036267E+002
3	0	1.783075768350318E+003	3.1703457E-001	-2.7038385E+002
3	0	1.783575768337687E+003	3.1695983E-001	-2.7038385E+002
3	0	1.784075768325056E+003	3.1680602E-001	-2.7037677E+002
3	0	1.784575768312425E+003	3.1664544E-001	-2.7035913E+002
3	0	1.785075768299794E+003	3.1648323E-001	-2.7039093E+002
3	0	1.785575768287163E+003	3.1631660E-001	-2.7039801E+002
3	0	1.786075768274532E+003	3.1612059E-001	-2.7038031E+002
3	0	1.786575768261901E+003	3.1591722E-001	-2.7036972E+002
3	0	1.787075768249269E+003	3.1587589E-001	-2.7036618E+002
3	0	1.787575768236638E+003	3.1600314E-001	-2.7041214E+002
3	0	1.788075768224007E+003	3.1611493E-001	-2.7034851E+002
3	0	1.788575768211376E+003	3.1625324E-001	-2.7039093E+002
3	0	1.789075768198745E+003	3.1639707E-001	-2.7038385E+002
3	0	1.789575768186114E+003	3.1653759E-001	-2.7039093E+002
3	0	1.790075768173483E+003	3.1659511E-001	-2.7036972E+002
3	0	1.790575768160852E+003	3.1655717E-001	-2.7039447E+002
3	0	1.791075768148221E+003	3.1658483E-001	-2.7035913E+002
3	0	1.791575768135590E+003	3.1668681E-001	-2.7038031E+002
3	0	1.792075768122959E+003	3.1669372E-001	-2.7038031E+002
3	0	1.792575768110328E+003	3.1665817E-001	-2.7036618E+002
3	0	1.793075768097697E+003	3.1658605E-001	-2.7038742E+002
3	0	1.793575768085066E+003	3.1649098E-001	-2.7038031E+002
3	0	1.794075768072435E+003	3.1631464E-001	-2.7037326E+002
3	0	1.794575768059804E+003	3.1605700E-001	-2.7038385E+002
3	0	1.795075768047172E+003	3.1587699E-001	-2.7038385E+002
3	0	1.795575768034541E+003	3.1579047E-001	-2.7036618E+002
3	0	1.796075768021910E+003	3.1563732E-001	-2.7037326E+002
3	0	1.796575768009279E+003	3.1546554E-001	-2.7036267E+002
3	0	1.797075767996648E+003	3.1527579E-001	-2.7038385E+002
3	0	1.797575767984017E+003	3.1505251E-001	-2.7036972E+002
3	0	1.798075767971386E+003	3.1479856E-001	-2.7037326E+002
3	0	1.798575767958755E+003	3.1447703E-001	-2.7038385E+002
3	0	1.799075767946124E+003	3.1426656E-001	-2.7038385E+002
3	0	1.799575767933493E+003	3.1417221E-001	-2.7040506E+002
3	0	1.800075767920862E+003	3.1401065E-001	-2.7036972E+002
3	0	1.800575767908231E+003	3.1384119E-001	-2.7036618E+002
3	0	1.801075767895600E+003	3.1367585E-001	-2.7038742E+002
3	0	1.801575767882969E+003	3.1349766E-001	-2.7037326E+002
3	0	1.802075767870338E+003	3.1324440E-001	-2.7036267E+002
3	0	1.802575767857707E+003	3.1293359E-001	-2.7037677E+002
3	0	1.803075767845075E+003	3.1271592E-001	-2.7038742E+002
3	0	1.803575767832444E+003	3.1260550E-001	-2.7037677E+002
3	0	1.804075767819813E+003	3.1243819E-001	-2.7036972E+002
3	0	1.804100367819192E+003	3.1236532E-001	-2.7039801E+002