EC-Lab ASCII FILE
Nb header lines : 48                          

Open Circuit Voltage

Run on channel : 1 (SN 81504)
User : 
CE vs. WE compliance from -10 V to 10 V
Electrode connection : standard
Potential control : Ewe
Ewe ctrl range : min = -2.50 V, max = 2.50 V
Safety Limits :
	Do not start on E overload
Acquisition started on : 05/10/2026 00:41:40.044
Loaded Setting File :  C:\PEM-WE_measurements\2026\372_IV_IV IrOx, 5 min Pt, 30 min C, etched cathode\new station\Loopeis new\1,46 V different time gaps closed cell\Loopeis 1,46V_45s_2_PEIS from 65kHz to 10kHz.mps
Saved on :
	File : L_07_Loopeis 1,46V_45s_2_PEIS from 65kHz to 10kHz_20_OCV_C01.mpr
	Directory : C:\PEM-WE_measurements\2026\372_IV_IV IrOx, 5 min Pt, 30 min C, etched cathode\new station\Loopeis new\1,46 V different time gaps closed cell\
	Host : 192.168.0.2
Device : SP-150e (SN .005491)
Address : 192.168.0.91
EC-LAB for windows v11.71 (software)
Internet server v28.00 (firmware)
Command interpretor v14.01 (firmware)
Electrode material : 
Initial state : 
Electrolyte : 
Comments : 
Current amplifier : SP-150eB-20A
Electrode surface area : 0.001 cm²
Characteristic mass : 0.001 g
Equivalent Weight : 0.000 g/eq.
Density : 0.000 g/cm3
Volume (V) : 0.001 cm³
Record Analogic IN 1
Text export
   Mode : Standard
   Time format : Elapsed
Cycle Definition : Charge/Discharge alternance
tR (h:m:s)          0:00:45.0000        
dER/dt (mV/h)       1.0                 
record              <Ewe>               
dER (mV)            10.00               
dtR (s)             0.5000              
E range min (V)     -2.500              
E range max (V)     2.500               

mode	error	time/s	<Ewe/V>	Analog IN 1/V	
3	0	8.606461950055382E+002	1.2095969E+000	-1.4881945E-004
3	0	8.611461949929071E+002	1.2538012E+000	3.8648941E-006
3	0	8.616461949802761E+002	1.2582753E+000	-5.3391734E-005
3	0	8.621461949676450E+002	1.2609618E+000	-5.3391734E-005
3	0	8.626461949550139E+002	1.2627938E+000	3.8648941E-006
3	0	8.631461949423829E+002	1.2642075E+000	-5.3391734E-005
3	0	8.636461949297518E+002	1.2653149E+000	3.8648941E-006
3	0	8.641461949171207E+002	1.2661819E+000	-1.1064836E-004
3	0	8.646461949044897E+002	1.2668810E+000	-1.2973390E-004
3	0	8.651461948918586E+002	1.2674433E+000	3.8648941E-006
3	0	8.656461948792276E+002	1.2678822E+000	-7.2477276E-005
3	0	8.661461948665965E+002	1.2681805E+000	-1.5220648E-005
3	0	8.666461948539654E+002	1.2683784E+000	-1.2973390E-004
3	0	8.671461948413344E+002	1.2685815E+000	-3.4306191E-005
3	0	8.676461948287033E+002	1.2687541E+000	-1.5220648E-005
3	0	8.681461948160722E+002	1.2688757E+000	-9.1562819E-005
3	0	8.686461948034412E+002	1.2689610E+000	-1.8699054E-004
3	0	8.691461947908101E+002	1.2690178E+000	-5.3391734E-005
3	0	8.696461947781791E+002	1.2690196E+000	-3.4306191E-005
3	0	8.701461947655480E+002	1.2689501E+000	-5.3391734E-005
3	0	8.706461947529169E+002	1.2688311E+000	-5.3391734E-005
3	0	8.711461947402859E+002	1.2687738E+000	-1.2973390E-004
3	0	8.716461947276548E+002	1.2687438E+000	-9.1562819E-005
3	0	8.721461947150237E+002	1.2687041E+000	-5.3391734E-005
3	0	8.726461947023927E+002	1.2686571E+000	-9.1562819E-005
3	0	8.731461946897616E+002	1.2686095E+000	-7.2477276E-005
3	0	8.736461946771306E+002	1.2685221E+000	-1.5220648E-005
3	0	8.741461946644995E+002	1.2683748E+000	-1.4881945E-004
3	0	8.746461946518684E+002	1.2681829E+000	-9.1562819E-005
3	0	8.751461946392374E+002	1.2680773E+000	-7.2477276E-005
3	0	8.756461946266063E+002	1.2679901E+000	4.2035979E-005
3	0	8.761461946139752E+002	1.2678944E+000	-1.5220648E-005
3	0	8.766461946013442E+002	1.2678009E+000	-3.4306191E-005
3	0	8.771461945887131E+002	1.2677062E+000	-5.3391734E-005
3	0	8.776461945760821E+002	1.2675817E+000	-1.2973390E-004
3	0	8.781461945634510E+002	1.2673924E+000	3.8648941E-006
3	0	8.786461945508199E+002	1.2671512E+000	2.2950437E-005
3	0	8.791461945381889E+002	1.2669870E+000	-1.1064836E-004
3	0	8.796461945255578E+002	1.2668539E+000	-1.5220648E-005
3	0	8.801461945129267E+002	1.2667004E+000	-1.5220648E-005
3	0	8.806461945002957E+002	1.2665495E+000	-1.1064836E-004
3	0	8.811461944876646E+002	1.2663924E+000	-1.1064836E-004
3	0	8.816461944750336E+002	1.2661970E+000	-1.4881945E-004
3	0	8.821461944624025E+002	1.2659428E+000	-1.4881945E-004
3	0	8.826461944497714E+002	1.2656507E+000	-9.1562819E-005
3	0	8.831461944371404E+002	1.2654191E+000	-1.2973390E-004
3	0	8.836461944245093E+002	1.2652273E+000	-3.4306191E-005
3	0	8.841461944118782E+002	1.2650212E+000	-5.3391734E-005
3	0	8.846461943992472E+002	1.2648079E+000	-1.2973390E-004
3	0	8.851461943866161E+002	1.2646004E+000	2.2950437E-005
3	0	8.856461943739851E+002	1.2643528E+000	-7.2477276E-005
3	0	8.861461943613540E+002	1.2640319E+000	-7.2477276E-005
3	0	8.866461943487229E+002	1.2636706E+000	4.2035979E-005
3	0	8.871461943360919E+002	1.2633961E+000	6.1121522E-005
3	0	8.876461943234608E+002	1.2631351E+000	3.8648941E-006
3	0	8.881461943108297E+002	1.2628658E+000	-1.5220648E-005
3	0	8.886461942981987E+002	1.2625937E+000	-3.4306191E-005
3	0	8.891461942855676E+002	1.2623227E+000	-3.4306191E-005
3	0	8.896461942729366E+002	1.2620140E+000	1.1837815E-004
3	0	8.901461942603055E+002	1.2616618E+000	-1.2973390E-004
3	0	8.906461942476744E+002	1.2612746E+000	-9.1562819E-005
3	0	8.911461942350434E+002	1.2609713E+000	2.2950437E-005
3	0	8.916461942224123E+002	1.2607034E+000	-9.1562819E-005
3	0	8.921461942097812E+002	1.2604377E+000	8.0207064E-005
3	0	8.926461941971502E+002	1.2601770E+000	2.2950437E-005
3	0	8.931461941845191E+002	1.2599261E+000	4.2035979E-005
3	0	8.936461941718881E+002	1.2596537E+000	-1.5220648E-005
3	0	8.941461941592570E+002	1.2593284E+000	-5.3391734E-005
3	0	8.946461941466259E+002	1.2589611E+000	8.0207064E-005
3	0	8.951461941339949E+002	1.2586770E+000	-1.5220648E-005
3	0	8.956461941213638E+002	1.2584139E+000	-9.1562819E-005
3	0	8.961461941087327E+002	1.2581487E+000	-3.4306191E-005
3	0	8.966461940961017E+002	1.2578869E+000	4.2035979E-005
3	0	8.971461940834706E+002	1.2576232E+000	-1.1064836E-004
3	0	8.976461940708396E+002	1.2573304E+000	-3.4306191E-005
3	0	8.981461940582085E+002	1.2569723E+000	8.0207064E-005
3	0	8.986461940455774E+002	1.2565781E+000	-3.4306191E-005
3	0	8.991461940329464E+002	1.2562548E+000	-1.2973390E-004
3	0	8.996461940203153E+002	1.2559590E+000	-1.5220648E-005
3	0	9.001461940076842E+002	1.2556673E+000	8.0207064E-005
3	0	9.006461939950532E+002	1.2553614E+000	-1.5220648E-005
3	0	9.011461939824221E+002	1.2550561E+000	2.2950437E-005
3	0	9.016461939697911E+002	1.2547266E+000	-1.4881945E-004
3	0	9.021461939571600E+002	1.2543373E+000	-1.4881945E-004
3	0	9.026461939445289E+002	1.2539009E+000	-3.4306191E-005
3	0	9.031461939318979E+002	1.2535349E+000	-7.2477276E-005
3	0	9.036461939192668E+002	1.2532011E+000	9.9292607E-005
3	0	9.041461939066357E+002	1.2528588E+000	-5.3391734E-005
3	0	9.046461938940047E+002	1.2525101E+000	-1.1064836E-004
3	0	9.051461938813736E+002	1.2521651E+000	-1.6790499E-004
3	0	9.051811938804894E+002	1.2519741E+000	-7.2477276E-005