EC-Lab ASCII FILE
Nb header lines : 48                          

Open Circuit Voltage

Run on channel : 1 (SN 81504)
User : 
CE vs. WE compliance from -10 V to 10 V
Electrode connection : standard
Potential control : Ewe
Ewe ctrl range : min = -2.50 V, max = 2.50 V
Safety Limits :
	Do not start on E overload
Acquisition started on : 05/07/2026 23:27:51.851
Loaded Setting File :  C:\PEM-WE_measurements\2026\372_IV_IV IrOx, 5 min Pt, 30 min C, etched cathode\new station\Loopeis new\1,46 V different time gaps open cell\Loopeis 1,46V_180s_2_PEIS from 65kHz to 10kHz.mps
Saved on :
	File : L_27_Loopeis 1,46V_180s_2_PEIS from 65kHz to 10kHz_04_OCV_C01.mpr
	Directory : C:\PEM-WE_measurements\2026\372_IV_IV IrOx, 5 min Pt, 30 min C, etched cathode\new station\Loopeis new\1,46 V different time gaps open cell\
	Host : 192.168.0.2
Device : SP-150e (SN .005491)
Address : 192.168.0.91
EC-LAB for windows v11.71 (software)
Internet server v28.00 (firmware)
Command interpretor v14.01 (firmware)
Electrode material : 
Initial state : 
Electrolyte : 
Comments : 
Current amplifier : SP-150eB-20A
Electrode surface area : 0.001 cm²
Characteristic mass : 0.001 g
Equivalent Weight : 0.000 g/eq.
Density : 0.000 g/cm3
Volume (V) : 0.001 cm³
Record Analogic IN 1
Text export
   Mode : Standard
   Time format : Elapsed
Cycle Definition : Charge/Discharge alternance
tR (h:m:s)          0:03:0.0000         
dER/dt (mV/h)       1.0                 
record              <Ewe>               
dER (mV)            10.00               
dtR (s)             0.5000              
E range min (V)     -2.500              
E range max (V)     2.500               

mode	error	time/s	<Ewe/V>	Analog IN 1/V	
3	0	2.708453964596265E+002	9.3584394E-001	3.8648941E-006
3	0	2.713453964469954E+002	1.1306571E+000	-1.6790499E-004
3	0	2.718453964343644E+002	7.5223047E-001	-7.2477276E-005
3	0	2.723453964217333E+002	3.8979748E-001	-9.1562819E-005
3	0	2.728453964091023E+002	3.2251060E-001	2.2950437E-005
3	0	2.733453963964712E+002	3.1301481E-001	2.2950437E-005
3	0	2.738453963838401E+002	3.0641061E-001	-1.5220648E-005
3	0	2.743453963712091E+002	3.0095997E-001	2.2950437E-005
3	0	2.748453963585780E+002	2.9669940E-001	-3.4306191E-005
3	0	2.753453963459469E+002	2.9338446E-001	-7.2477276E-005
3	0	2.758453963333159E+002	2.9075700E-001	-1.5220648E-005
3	0	2.763453963206848E+002	2.8862152E-001	-9.1562819E-005
3	0	2.768453963080538E+002	2.8684619E-001	2.2950437E-005
3	0	2.773453962954227E+002	2.8533345E-001	-5.3391734E-005
3	0	2.778453962827916E+002	2.8401503E-001	-9.1562819E-005
3	0	2.783453962701606E+002	2.8283283E-001	-7.2477276E-005
3	0	2.788453962575295E+002	2.8175801E-001	-7.2477276E-005
3	0	2.793453962448984E+002	2.8079960E-001	2.2950437E-005
3	0	2.798453962322674E+002	2.7993956E-001	-1.5220648E-005
3	0	2.803453962196363E+002	2.7915064E-001	-9.1562819E-005
3	0	2.808453962070053E+002	2.7839735E-001	-5.3391734E-005
3	0	2.813453961943742E+002	2.7767596E-001	3.8648941E-006
3	0	2.818453961817431E+002	2.7698451E-001	-3.4306191E-005
3	0	2.823453961691121E+002	2.7629986E-001	-5.3391734E-005
3	0	2.828453961564810E+002	2.7562660E-001	1.1837815E-004
3	0	2.833453961438499E+002	2.7499744E-001	8.0207064E-005
3	0	2.838453961312189E+002	2.7441660E-001	8.0207064E-005
3	0	2.843453961185878E+002	2.7383772E-001	-1.5220648E-005
3	0	2.848453961059568E+002	2.7327392E-001	2.2950437E-005
3	0	2.853453960933257E+002	2.7270877E-001	3.8648941E-006
3	0	2.858453960806946E+002	2.7216384E-001	-1.1064836E-004
3	0	2.863453960680636E+002	2.7159652E-001	-3.4306191E-005
3	0	2.868453960554325E+002	2.7101913E-001	6.1121522E-005
3	0	2.873453960428014E+002	2.7048042E-001	-7.2477276E-005
3	0	2.878453960301704E+002	2.6997077E-001	2.2950437E-005
3	0	2.883453960175393E+002	2.6947632E-001	-9.1562819E-005
3	0	2.888453960049083E+002	2.6897681E-001	-5.3391734E-005
3	0	2.893453959922772E+002	2.6848659E-001	-5.3391734E-005
3	0	2.898453959796461E+002	2.6799583E-001	2.2950437E-005
3	0	2.903453959670151E+002	2.6749033E-001	-3.4306191E-005
3	0	2.908453959543840E+002	2.6696998E-001	-1.2973390E-004
3	0	2.913453959417529E+002	2.6648253E-001	-1.1064836E-004
3	0	2.918453959291219E+002	2.6602682E-001	-7.2477276E-005
3	0	2.923453959164908E+002	2.6557609E-001	-7.2477276E-005
3	0	2.928453959038598E+002	2.6511857E-001	-9.1562819E-005
3	0	2.933453958912287E+002	2.6466832E-001	-1.2973390E-004
3	0	2.938453958785976E+002	2.6421764E-001	4.2035979E-005
3	0	2.943453958659666E+002	2.6374730E-001	3.8648941E-006
3	0	2.948453958533355E+002	2.6326597E-001	3.8648941E-006
3	0	2.953453958407044E+002	2.6282072E-001	-7.2477276E-005
3	0	2.958453958280734E+002	2.6239306E-001	-1.2973390E-004
3	0	2.963453958154423E+002	2.6196906E-001	2.2950437E-005
3	0	2.968453958028113E+002	2.6154575E-001	-1.8699054E-004
3	0	2.973453957901802E+002	2.6113048E-001	-7.2477276E-005
3	0	2.978453957775491E+002	2.6071188E-001	-3.4306191E-005
3	0	2.983453957649181E+002	2.6027066E-001	-3.4306191E-005
3	0	2.988453957522870E+002	2.5982094E-001	-1.6790499E-004
3	0	2.993453957396559E+002	2.5941139E-001	-3.4306191E-005
3	0	2.998453957270249E+002	2.5902182E-001	8.0207064E-005
3	0	3.003453957143938E+002	2.5862616E-001	-5.3391734E-005
3	0	3.008453957017628E+002	2.5823894E-001	3.8648941E-006
3	0	3.013453956891317E+002	2.5784743E-001	-5.3391734E-005
3	0	3.018453956765006E+002	2.5745907E-001	-5.3391734E-005
3	0	3.023453956638696E+002	2.5705352E-001	-1.6790499E-004
3	0	3.028453956512385E+002	2.5663429E-001	-1.1064836E-004
3	0	3.033453956386074E+002	2.5625217E-001	-3.4306191E-005
3	0	3.038453956259764E+002	2.5588951E-001	6.1121522E-005
3	0	3.043453956133453E+002	2.5553274E-001	-5.3391734E-005
3	0	3.048453956007143E+002	2.5516722E-001	-7.2477276E-005
3	0	3.053453955880832E+002	2.5481656E-001	3.8648941E-006
3	0	3.058453955754521E+002	2.5445330E-001	-3.4306191E-005
3	0	3.063453955628211E+002	2.5407371E-001	-9.1562819E-005
3	0	3.068453955501900E+002	2.5367823E-001	-1.2973390E-004
3	0	3.073453955375589E+002	2.5332204E-001	4.2035979E-005
3	0	3.078453955249279E+002	2.5299478E-001	-1.4881945E-004
3	0	3.083453955122968E+002	2.5266227E-001	-3.4306191E-005
3	0	3.088453954996658E+002	2.5233108E-001	-9.1562819E-005
3	0	3.093453954870347E+002	2.5200102E-001	-3.4306191E-005
3	0	3.098453954744036E+002	2.5167090E-001	2.2950437E-005
3	0	3.103453954617726E+002	2.5132158E-001	9.9292607E-005
3	0	3.108453954491415E+002	2.5095910E-001	-5.3391734E-005
3	0	3.113453954365104E+002	2.5063732E-001	-1.5220648E-005
3	0	3.118453954238794E+002	2.5033319E-001	4.2035979E-005
3	0	3.123453954112483E+002	2.5003514E-001	-1.2973390E-004
3	0	3.128453953986173E+002	2.4973463E-001	-1.5220648E-005
3	0	3.133453953859862E+002	2.4943663E-001	-1.1064836E-004
3	0	3.138453953733551E+002	2.4913310E-001	-3.4306191E-005
3	0	3.143453953607241E+002	2.4881686E-001	4.2035979E-005
3	0	3.148453953480930E+002	2.4847950E-001	-5.3391734E-005
3	0	3.153453953354619E+002	2.4818158E-001	-7.2477276E-005
3	0	3.158453953228309E+002	2.4791470E-001	-1.5220648E-005
3	0	3.163453953101998E+002	2.4763694E-001	-3.4306191E-005
3	0	3.168453952975688E+002	2.4735960E-001	-5.3391734E-005
3	0	3.173453952849377E+002	2.4708384E-001	3.8648941E-006
3	0	3.178453952723066E+002	2.4680465E-001	-1.8699054E-004
3	0	3.183453952596756E+002	2.4651092E-001	-9.1562819E-005
3	0	3.188453952470445E+002	2.4620011E-001	6.1121522E-005
3	0	3.193453952344134E+002	2.4592884E-001	-3.4306191E-005
3	0	3.198453952217824E+002	2.4567628E-001	4.2035979E-005
3	0	3.203453952091513E+002	2.4543123E-001	-9.1562819E-005
3	0	3.208453951965203E+002	2.4517760E-001	-3.4306191E-005
3	0	3.213453951838892E+002	2.4492313E-001	3.8648941E-006
3	0	3.218453951712581E+002	2.4466304E-001	3.8648941E-006
3	0	3.223453951586271E+002	2.4439266E-001	3.8648941E-006
3	0	3.228453951459960E+002	2.4410447E-001	-5.3391734E-005
3	0	3.233453951333649E+002	2.4384858E-001	-1.8699054E-004
3	0	3.238453951207339E+002	2.4361657E-001	3.8648941E-006
3	0	3.243453951081028E+002	2.4339223E-001	6.1121522E-005
3	0	3.248453950954718E+002	2.4315977E-001	3.8648941E-006
3	0	3.253453950828407E+002	2.4292961E-001	-1.2973390E-004
3	0	3.258453950702096E+002	2.4269374E-001	-2.2516162E-004
3	0	3.263453950575786E+002	2.4243680E-001	-1.4881945E-004
3	0	3.268453950449475E+002	2.4216565E-001	3.8648941E-006
3	0	3.273453950323164E+002	2.4193700E-001	-1.1064836E-004
3	0	3.278453950196854E+002	2.4172409E-001	-3.4306191E-005
3	0	3.283453950070543E+002	2.4151571E-001	-5.3391734E-005
3	0	3.288453949944233E+002	2.4130028E-001	-5.3391734E-005
3	0	3.293453949817922E+002	2.4108775E-001	-3.4306191E-005
3	0	3.298453949691611E+002	2.4086122E-001	1.1837815E-004
3	0	3.303453949565301E+002	2.4061839E-001	-7.2477276E-005
3	0	3.308453949438990E+002	2.4036390E-001	3.8648941E-006
3	0	3.313453949312679E+002	2.4015912E-001	2.2950437E-005
3	0	3.318453949186369E+002	2.3996642E-001	-1.8699054E-004
3	0	3.323453949060058E+002	2.3976719E-001	-1.4881945E-004
3	0	3.328453948933748E+002	2.3957130E-001	-1.6790499E-004
3	0	3.333453948807437E+002	2.3937701E-001	-7.2477276E-005
3	0	3.338453948681126E+002	2.3917347E-001	-9.1562819E-005
3	0	3.343453948554816E+002	2.3895557E-001	-9.1562819E-005
3	0	3.348453948428505E+002	2.3872235E-001	-1.5220648E-005
3	0	3.353453948302194E+002	2.3853104E-001	-5.3391734E-005
3	0	3.358453948175884E+002	2.3835614E-001	-5.3391734E-005
3	0	3.363453948049573E+002	2.3818189E-001	-1.2973390E-004
3	0	3.368453947923263E+002	2.3800129E-001	-3.4306191E-005
3	0	3.373453947796952E+002	2.3781861E-001	-5.3391734E-005
3	0	3.378453947670641E+002	2.3763528E-001	3.8648941E-006
3	0	3.383453947544331E+002	2.3742460E-001	9.9292607E-005
3	0	3.388453947418020E+002	2.3720682E-001	-1.2973390E-004
3	0	3.393453947291709E+002	2.3702887E-001	-1.5220648E-005
3	0	3.398453947165399E+002	2.3687105E-001	-1.6790499E-004
3	0	3.403453947039088E+002	2.3670800E-001	1.3746369E-004
3	0	3.408453946912778E+002	2.3654754E-001	8.0207064E-005
3	0	3.413453946786467E+002	2.3638460E-001	-2.2516162E-004
3	0	3.418453946660156E+002	2.3621519E-001	-7.2477276E-005
3	0	3.423453946533846E+002	2.3602055E-001	-1.2973390E-004
3	0	3.428453946407535E+002	2.3581769E-001	2.2950437E-005
3	0	3.433453946281224E+002	2.3566166E-001	-5.3391734E-005
3	0	3.438453946154914E+002	2.3551793E-001	-9.1562819E-005
3	0	3.443453946028603E+002	2.3537333E-001	-1.5220648E-005
3	0	3.448453945902293E+002	2.3521689E-001	-7.2477276E-005
3	0	3.453453945775982E+002	2.3506522E-001	-1.4881945E-004
3	0	3.458453945649671E+002	2.3490295E-001	6.1121522E-005
3	0	3.463453945523361E+002	2.3472269E-001	6.1121522E-005
3	0	3.468453945397050E+002	2.3452894E-001	-1.1064836E-004
3	0	3.473453945270740E+002	2.3437005E-001	-1.2973390E-004
3	0	3.478453945144429E+002	2.3423383E-001	3.8648941E-006
3	0	3.483453945018118E+002	2.3409268E-001	-1.5220648E-005
3	0	3.488453944891808E+002	2.3395433E-001	-1.2973390E-004
3	0	3.493453944765497E+002	2.3380770E-001	-3.4306191E-005
3	0	3.498453944639186E+002	2.3365243E-001	-1.6790499E-004
3	0	3.503453944512876E+002	2.3348455E-001	-3.4306191E-005
3	0	3.508453944386565E+002	2.3330319E-001	-3.4306191E-005
3	0	3.513453944260255E+002	2.3316327E-001	-3.4306191E-005
3	0	3.518453944133944E+002	2.3304144E-001	-5.3391734E-005
3	0	3.523453944007633E+002	2.3291937E-001	9.9292607E-005
3	0	3.528453943881323E+002	2.3278937E-001	-3.4306191E-005
3	0	3.533453943755012E+002	2.3266512E-001	3.8648941E-006
3	0	3.538453943628701E+002	2.3252466E-001	3.8648941E-006
3	0	3.543453943502391E+002	2.3236485E-001	-1.5220648E-005
3	0	3.548453943376080E+002	2.3219439E-001	-5.3391734E-005
3	0	3.553453943249770E+002	2.3205997E-001	-3.4306191E-005
3	0	3.558453943123459E+002	2.3194696E-001	-1.5220648E-005
3	0	3.563453942997148E+002	2.3183322E-001	-9.1562819E-005
3	0	3.568453942870838E+002	2.3171446E-001	-7.2477276E-005
3	0	3.573453942744527E+002	2.3159245E-001	-1.8699054E-004
3	0	3.578453942618216E+002	2.3147164E-001	6.1121522E-005
3	0	3.583453942491906E+002	2.3132242E-001	-9.1562819E-005
3	0	3.588453942365595E+002	2.3115887E-001	-7.2477276E-005
3	0	3.593453942239285E+002	2.3102662E-001	3.8648941E-006
3	0	3.598453942112974E+002	2.3092127E-001	-2.0607607E-004
3	0	3.603453941986663E+002	2.3081222E-001	-1.6790499E-004
3	0	3.608453941860353E+002	2.3069891E-001	-1.1064836E-004
3	0	3.613453941734042E+002	2.3059076E-001	2.2950437E-005
3	0	3.618453941607731E+002	2.3047505E-001	4.2035979E-005
3	0	3.623453941481421E+002	2.3033530E-001	-1.8699054E-004
3	0	3.628453941355110E+002	2.3018502E-001	4.2035979E-005
3	0	3.633453941228800E+002	2.3007086E-001	-1.1064836E-004
3	0	3.638453941102489E+002	2.2997384E-001	-3.4306191E-005
3	0	3.643453940976178E+002	2.2987172E-001	-1.4881945E-004
3	0	3.648453940849868E+002	2.2976458E-001	-1.5220648E-005
3	0	3.653453940723557E+002	2.2965790E-001	3.8648941E-006
3	0	3.658453940597246E+002	2.2954771E-001	-3.4306191E-005
3	0	3.663453940470936E+002	2.2940937E-001	2.2950437E-005
3	0	3.668453940344625E+002	2.2925545E-001	3.8648941E-006
3	0	3.673453940218315E+002	2.2913939E-001	-2.0607607E-004
3	0	3.678453940092004E+002	2.2904550E-001	-3.4306191E-005
3	0	3.683453939965693E+002	2.2894301E-001	-1.5220648E-005
3	0	3.688453939839383E+002	2.2884506E-001	-2.0607607E-004
3	0	3.693453939713072E+002	2.2873861E-001	3.8648941E-006
3	0	3.698453939586761E+002	2.2862796E-001	-1.5220648E-005
3	0	3.703453939460451E+002	2.2849679E-001	2.2950437E-005
3	0	3.708453939334140E+002	2.2834983E-001	-2.0607607E-004
3	0	3.713453939207830E+002	2.2824708E-001	-7.2477276E-005
3	0	3.718453939081519E+002	2.2816133E-001	-1.2973390E-004
3	0	3.723453938955208E+002	2.2807550E-001	6.1121522E-005
3	0	3.728453938828898E+002	2.2798464E-001	3.8648941E-006
3	0	3.733453938702587E+002	2.2789332E-001	-7.2477276E-005
3	0	3.738453938576276E+002	2.2778849E-001	4.2035979E-005
3	0	3.743453938449966E+002	2.2767147E-001	8.0207064E-005
3	0	3.748453938323655E+002	2.2753224E-001	2.2950437E-005
3	0	3.753453938197345E+002	2.2743215E-001	-5.3391734E-005
3	0	3.758453938071034E+002	2.2735476E-001	-9.1562819E-005
3	0	3.763453937944723E+002	2.2727253E-001	-7.2477276E-005
3	0	3.768453937818413E+002	2.2718625E-001	-7.2477276E-005
3	0	3.773453937692102E+002	2.2710091E-001	-3.4306191E-005
3	0	3.778453937565791E+002	2.2700888E-001	-5.3391734E-005
3	0	3.783453937439481E+002	2.2688851E-001	-1.8699054E-004
3	0	3.788453937313170E+002	2.2675946E-001	-1.2973390E-004
3	0	3.793453937186860E+002	2.2666539E-001	-3.4306191E-005
3	0	3.798453937060549E+002	2.2658899E-001	-1.5220648E-005
3	0	3.803453936934238E+002	2.2651356E-001	-1.6790499E-004
3	0	3.808453936807928E+002	2.2643605E-001	-3.4306191E-005
3	0	3.813453936681617E+002	2.2635323E-001	-5.3391734E-005
3	0	3.818453936555306E+002	2.2626396E-001	4.2035979E-005
3	0	3.823453936428996E+002	2.2615260E-001	3.8648941E-006
3	0	3.828453936302685E+002	2.2602677E-001	-3.4306191E-005
3	0	3.833453936176375E+002	2.2593825E-001	-7.2477276E-005
3	0	3.838453936050064E+002	2.2586805E-001	-1.5220648E-005
3	0	3.843453935923753E+002	2.2579548E-001	6.1121522E-005
3	0	3.848453935797443E+002	2.2571556E-001	3.8648941E-006
3	0	3.853453935671132E+002	2.2563766E-001	-1.1064836E-004
3	0	3.858453935544821E+002	2.2554688E-001	-7.2477276E-005
3	0	3.863453935418511E+002	2.2543669E-001	-1.5220648E-005
3	0	3.868453935292200E+002	2.2530560E-001	-1.6790499E-004
3	0	3.873453935165890E+002	2.2521539E-001	-1.5220648E-005
3	0	3.878453935039579E+002	2.2514400E-001	-1.5220648E-005
3	0	3.883453934913268E+002	2.2506981E-001	-5.3391734E-005
3	0	3.888453934786958E+002	2.2499405E-001	-9.1562819E-005
3	0	3.893453934660647E+002	2.2491698E-001	-7.2477276E-005
3	0	3.898453934534336E+002	2.2483900E-001	2.2950437E-005
3	0	3.903453934408026E+002	2.2473074E-001	-1.1064836E-004
3	0	3.908453934281715E+002	2.2460233E-001	8.0207064E-005
3	0	3.913453934155405E+002	2.2451508E-001	-1.5220648E-005
3	0	3.918453934029094E+002	2.2445314E-001	-5.3391734E-005
3	0	3.923453933902783E+002	2.2438297E-001	-3.4306191E-005
3	0	3.928453933776473E+002	2.2431527E-001	-3.4306191E-005
3	0	3.933453933650162E+002	2.2425029E-001	-9.1562819E-005
3	0	3.938453933523851E+002	2.2417477E-001	4.2035979E-005
3	0	3.943453933397541E+002	2.2406940E-001	1.1837815E-004
3	0	3.948453933271230E+002	2.2395578E-001	-5.3391734E-005
3	0	3.953453933144920E+002	2.2387755E-001	-2.0607607E-004
3	0	3.958453933018609E+002	2.2381625E-001	-7.2477276E-005
3	0	3.963453932892298E+002	2.2375311E-001	-1.1064836E-004
3	0	3.968453932765988E+002	2.2368939E-001	-7.2477276E-005
3	0	3.973453932639677E+002	2.2362980E-001	2.2950437E-005
3	0	3.978453932513366E+002	2.2355221E-001	-7.2477276E-005
3	0	3.983453932387056E+002	2.2345784E-001	-7.2477276E-005
3	0	3.988453932260745E+002	2.2334193E-001	-1.1064836E-004
3	0	3.993453932134435E+002	2.2326349E-001	6.1121522E-005
3	0	3.998453932008124E+002	2.2320811E-001	-3.4306191E-005
3	0	4.003453931881813E+002	2.2315361E-001	-7.2477276E-005
3	0	4.008453931755503E+002	2.2309797E-001	-9.1562819E-005
3	0	4.013453931629192E+002	2.2303364E-001	-1.1064836E-004
3	0	4.018453931502881E+002	2.2296324E-001	-1.6790499E-004
3	0	4.023453931376571E+002	2.2286595E-001	-1.2973390E-004
3	0	4.028453931250260E+002	2.2275001E-001	-9.1562819E-005
3	0	4.033453931123950E+002	2.2267880E-001	-7.2477276E-005
3	0	4.038453930997639E+002	2.2262339E-001	2.2950437E-005
3	0	4.043453930871328E+002	2.2257167E-001	-9.1562819E-005
3	0	4.048453930745018E+002	2.2250862E-001	-1.1064836E-004
3	0	4.053453930618707E+002	2.2244881E-001	-1.5220648E-005
3	0	4.058453930492396E+002	2.2238082E-001	3.8648941E-006
3	0	4.063453930366086E+002	2.2229201E-001	2.2950437E-005
3	0	4.068453930239775E+002	2.2218393E-001	-1.8699054E-004
3	0	4.073453930113465E+002	2.2211075E-001	-1.4881945E-004
3	0	4.078453929987154E+002	2.2205245E-001	-7.2477276E-005
3	0	4.083453929860843E+002	2.2198929E-001	-3.4306191E-005
3	0	4.088453929734533E+002	2.2191805E-001	-1.5220648E-005
3	0	4.093453929608222E+002	2.2184427E-001	-9.1562819E-005
3	0	4.098453929481911E+002	2.2177264E-001	-1.5220648E-005
3	0	4.103453929355601E+002	2.2167435E-001	-1.5220648E-005
3	0	4.108453929229290E+002	2.2156808E-001	-1.5220648E-005
3	0	4.113453929102980E+002	2.2149667E-001	-7.2477276E-005
3	0	4.118453928976669E+002	2.2144489E-001	3.8648941E-006
3	0	4.123453928850358E+002	2.2138803E-001	-2.4424717E-004
3	0	4.128453928724048E+002	2.2133258E-001	2.2950437E-005
3	0	4.133453928597737E+002	2.2127718E-001	-5.3391734E-005
3	0	4.138453928471426E+002	2.2121561E-001	-1.5220648E-005
3	0	4.143453928345116E+002	2.2112951E-001	4.2035979E-005
3	0	4.148453928218805E+002	2.2102973E-001	-5.3391734E-005
3	0	4.153453928092495E+002	2.2096789E-001	-1.5220648E-005
3	0	4.158453927966184E+002	2.2091486E-001	-7.2477276E-005
3	0	4.163453927839873E+002	2.2085753E-001	3.8648941E-006
3	0	4.168453927713563E+002	2.2080807E-001	-9.1562819E-005
3	0	4.173453927587252E+002	2.2076166E-001	-1.2973390E-004
3	0	4.178453927460941E+002	2.2070059E-001	-1.5220648E-005
3	0	4.183453927334631E+002	2.2061996E-001	6.1121522E-005
3	0	4.188453927208320E+002	2.2052458E-001	-9.1562819E-005
3	0	4.193453927082010E+002	2.2046903E-001	-9.1562819E-005
3	0	4.198453926955699E+002	2.2042756E-001	-5.3391734E-005
3	0	4.203453926829388E+002	2.2037193E-001	-3.4306191E-005
3	0	4.208453926703078E+002	2.2032765E-001	6.1121522E-005
3	0	4.213453926576767E+002	2.2027633E-001	-1.1064836E-004
3	0	4.218453926450456E+002	2.2022404E-001	-9.1562819E-005
3	0	4.223453926324146E+002	2.2014037E-001	-1.5220648E-005
3	0	4.228453926197835E+002	2.2004193E-001	9.9292607E-005
3	0	4.233453926071525E+002	2.1999389E-001	4.2035979E-005
3	0	4.238453925945214E+002	2.1995459E-001	-7.2477276E-005
3	0	4.243453925818903E+002	2.1990564E-001	-3.4306191E-005
3	0	4.248453925692593E+002	2.1985982E-001	-1.4881945E-004
3	0	4.253453925566282E+002	2.1981159E-001	-3.4306191E-005
3	0	4.258453925439972E+002	2.1975562E-001	-3.4306191E-005
3	0	4.263453925313661E+002	2.1967408E-001	2.2950437E-005
3	0	4.268453925187350E+002	2.1957660E-001	3.8648941E-006
3	0	4.273453925061040E+002	2.1951859E-001	-1.5220648E-005
3	0	4.278453924934729E+002	2.1946794E-001	-7.2477276E-005
3	0	4.283453924808418E+002	2.1941662E-001	-1.2973390E-004
3	0	4.288453924682108E+002	2.1936966E-001	-1.5220648E-005
3	0	4.293453924555797E+002	2.1931994E-001	-7.2477276E-005
3	0	4.298453924429487E+002	2.1925963E-001	-1.6790499E-004
3	0	4.303453924303176E+002	2.1918261E-001	-3.4306191E-005
3	0	4.308453924176865E+002	2.1908687E-001	2.2950437E-005
3	0	4.313453924050555E+002	2.1903004E-001	-9.1562819E-005
3	0	4.318453923924244E+002	2.1898915E-001	3.8648941E-006
3	0	4.323453923797933E+002	2.1893734E-001	-9.1562819E-005
3	0	4.328453923671623E+002	2.1889445E-001	-7.2477276E-005
3	0	4.333453923545312E+002	2.1884674E-001	-7.2477276E-005
3	0	4.338453923419002E+002	2.1879339E-001	-1.8699054E-004
3	0	4.343453923292691E+002	2.1871495E-001	8.0207064E-005
3	0	4.348453923166380E+002	2.1862991E-001	-1.2973390E-004
3	0	4.353453923040070E+002	2.1857563E-001	-5.3391734E-005
3	0	4.358453922913759E+002	2.1853822E-001	-1.1064836E-004
3	0	4.363453922787448E+002	2.1850136E-001	-5.3391734E-005
3	0	4.368453922661138E+002	2.1845885E-001	-7.2477276E-005
3	0	4.373453922534827E+002	2.1841735E-001	-3.4306191E-005
3	0	4.378453922408517E+002	2.1837237E-001	-1.1064836E-004
3	0	4.383453922282206E+002	2.1830197E-001	-7.2477276E-005
3	0	4.388453922155895E+002	2.1821019E-001	-3.4306191E-005
3	0	4.393453922029585E+002	2.1815750E-001	-1.5220648E-005
3	0	4.398453921903274E+002	2.1811810E-001	2.2950437E-005
3	0	4.403453921776963E+002	2.1807855E-001	-3.4306191E-005
3	0	4.408453921650653E+002	2.1803617E-001	-9.1562819E-005
3	0	4.413453921524342E+002	2.1799262E-001	-5.3391734E-005
3	0	4.418453921398032E+002	2.1794739E-001	-3.4306191E-005
3	0	4.423453921271721E+002	2.1787499E-001	4.2035979E-005
3	0	4.428453921145410E+002	2.1779075E-001	-1.5220648E-005
3	0	4.433453921019100E+002	2.1774524E-001	-7.2477276E-005
3	0	4.438453920892789E+002	2.1771128E-001	6.1121522E-005
3	0	4.443453920766478E+002	2.1766745E-001	-1.5220648E-005
3	0	4.448453920640168E+002	2.1763055E-001	3.8648941E-006
3	0	4.453453920513857E+002	2.1758983E-001	4.2035979E-005
3	0	4.458453920387547E+002	2.1753885E-001	-1.4881945E-004
3	0	4.463453920261236E+002	2.1746385E-001	-5.3391734E-005
3	0	4.468453920134925E+002	2.1737313E-001	-7.2477276E-005
3	0	4.473453920008615E+002	2.1731608E-001	-3.4306191E-005
3	0	4.478453919882304E+002	2.1728180E-001	-5.3391734E-005
3	0	4.483453919755993E+002	2.1723536E-001	-1.4881945E-004
3	0	4.488453919629683E+002	2.1719438E-001	-3.4306191E-005
3	0	4.493453919503372E+002	2.1715339E-001	-5.3391734E-005
3	0	4.498453919377062E+002	2.1710360E-001	-1.5220648E-005
3	0	4.503453919250751E+002	2.1702562E-001	-1.5220648E-005
3	0	4.503799919242010E+002	2.1697800E-001	-9.1562819E-005