EC-Lab ASCII FILE
Nb header lines : 55                          

Open Circuit Voltage

Run on channel : 1 (SN 81504)
User : 
CE vs. WE compliance from -10 V to 10 V
Electrode connection : standard
Potential control : Ewe
Ewe ctrl range : min = -2.50 V, max = 2.50 V
Safety Limits :
	Do not start on E overload
Acquisition started on : 05/10/2026 07:17:37.794
Loaded Setting File :  C:\PEM-WE_measurements\2026\372_IV_IV IrOx, 5 min Pt, 30 min C, etched cathode\new station\Loopeis new\1,46 V different time gaps closed cell\Loopeis 1,46V_120s_5_PEIS from 65Hz to 10Hz.mps
Saved on :
	File : L_25_Loopeis 1,46V_120s_5_PEIS from 65Hz to 10Hz_10_OCV_C01.mpr
	Directory : C:\PEM-WE_measurements\2026\372_IV_IV IrOx, 5 min Pt, 30 min C, etched cathode\new station\Loopeis new\1,46 V different time gaps closed cell\
	Host : 192.168.0.2
Device : SP-150e (SN .005491)
Address : 192.168.0.91
EC-LAB for windows v11.71 (software)
Internet server v28.00 (firmware)
Command interpretor v14.01 (firmware)
Electrode material : 
Initial state : 
Electrolyte : 
Comments : 
Current amplifier : SP-150eB-20A
Electrode surface area : 0.001 cm²
Characteristic mass : 0.001 g
Equivalent Weight : 0.000 g/eq.
Density : 0.000 g/cm3
Volume (V) : 0.001 cm³
Record Analogic IN 1
Text export
   Mode : Standard
   Time format : Elapsed
Cycle Definition : Charge/Discharge alternance
External device configuration :
   device type : Temperature Probe
   device name : Other
   Analog IN 1 : 
      unit : T/Â°C
      max : 100.000 at 2.000 V
      min : 0.000 at 1.460 V
tR (h:m:s)          0:02:0.0000         
dER/dt (mV/h)       1.0                 
record              <Ewe>               
dER (mV)            10.00               
dtR (s)             0.5000              
E range min (V)     -2.500              
E range max (V)     2.500               

mode	error	time/s	<Ewe/V>	Analog IN 1/V	
3	0	8.477233954809344E+002	1.2913594E+000	-2.7037677E+002
3	0	8.482233954683034E+002	1.2984350E+000	-2.7035913E+002
3	0	8.487233954556723E+002	1.2975396E+000	-2.7037326E+002
3	0	8.492233954430412E+002	1.2940288E+000	-2.7037326E+002
3	0	8.497233954304102E+002	1.2868363E+000	-2.7038385E+002
3	0	8.502233954177791E+002	1.2742978E+000	-2.7037326E+002
3	0	8.507233954051480E+002	1.2542564E+000	-2.7038031E+002
3	0	8.512233953925170E+002	1.2233303E+000	-2.7038385E+002
3	0	8.517233953798859E+002	1.1729022E+000	-2.7039093E+002
3	0	8.522233953672549E+002	1.0672845E+000	-2.7037326E+002
3	0	8.527233953546238E+002	7.6231110E-001	-2.7036618E+002
3	0	8.532233953419927E+002	5.4445922E-001	-2.7039093E+002
3	0	8.537233953293617E+002	4.7962794E-001	-2.7036267E+002
3	0	8.542233953167306E+002	4.5726764E-001	-2.7038385E+002
3	0	8.547233953040995E+002	4.4807488E-001	-2.7038031E+002
3	0	8.552233952914685E+002	4.4350865E-001	-2.7037677E+002
3	0	8.557233952788374E+002	4.4099054E-001	-2.7035913E+002
3	0	8.562233952662064E+002	4.3878263E-001	-2.7034851E+002
3	0	8.567233952535753E+002	4.3665677E-001	-2.7038385E+002
3	0	8.572233952409442E+002	4.3493548E-001	-2.7037326E+002
3	0	8.577233952283132E+002	4.3345931E-001	-2.7038742E+002
3	0	8.582233952156821E+002	4.3185794E-001	-2.7038385E+002
3	0	8.587233952030510E+002	4.3012688E-001	-2.7036267E+002
3	0	8.592233951904200E+002	4.2891395E-001	-2.7038385E+002
3	0	8.597233951777889E+002	4.2897302E-001	-2.7038742E+002
3	0	8.602233951651579E+002	4.2882931E-001	-2.7038031E+002
3	0	8.607233951525268E+002	4.2842409E-001	-2.7035913E+002
3	0	8.612233951398957E+002	4.2806965E-001	-2.7036267E+002
3	0	8.617233951272647E+002	4.2763758E-001	-2.7036618E+002
3	0	8.622233951146336E+002	4.2685768E-001	-2.7036972E+002
3	0	8.627233951020025E+002	4.2600155E-001	-2.7039447E+002
3	0	8.632233950893715E+002	4.2582229E-001	-2.7035559E+002
3	0	8.637233950767404E+002	4.2641610E-001	-2.7037677E+002
3	0	8.642233950641094E+002	4.2693409E-001	-2.7039447E+002
3	0	8.647233950514783E+002	4.2735198E-001	-2.7039447E+002
3	0	8.652233950388472E+002	4.2786482E-001	-2.7036972E+002
3	0	8.657233950262162E+002	4.2860979E-001	-2.7037326E+002
3	0	8.662233950135851E+002	4.2927772E-001	-2.7038742E+002
3	0	8.667233950009540E+002	4.2993084E-001	-2.7037677E+002
3	0	8.672233949883230E+002	4.3130192E-001	-2.7039093E+002
3	0	8.677233949756919E+002	4.3330023E-001	-2.7036618E+002
3	0	8.682233949630609E+002	4.3508112E-001	-2.7036267E+002
3	0	8.687233949504298E+002	4.3654281E-001	-2.7037677E+002
3	0	8.692233949377987E+002	4.3789402E-001	-2.7038385E+002
3	0	8.697233949251677E+002	4.3911970E-001	-2.7039447E+002
3	0	8.702233949125366E+002	4.3993649E-001	-2.7037326E+002
3	0	8.707233948999055E+002	4.4046023E-001	-2.7037677E+002
3	0	8.712233948872745E+002	4.4147414E-001	-2.7036267E+002
3	0	8.717233948746434E+002	4.4306371E-001	-2.7037677E+002
3	0	8.722233948620124E+002	4.4436961E-001	-2.7037677E+002
3	0	8.727233948493813E+002	4.4525012E-001	-2.7038385E+002
3	0	8.732233948367502E+002	4.4599378E-001	-2.7037677E+002
3	0	8.737233948241192E+002	4.4659388E-001	-2.7041214E+002
3	0	8.742233948114881E+002	4.4691032E-001	-2.7040155E+002
3	0	8.747233947988570E+002	4.4685709E-001	-2.7037326E+002
3	0	8.752233947862260E+002	4.4714442E-001	-2.7038742E+002
3	0	8.757233947735949E+002	4.4812644E-001	-2.7035205E+002
3	0	8.762233947609639E+002	4.4884816E-001	-2.7038031E+002
3	0	8.767233947483328E+002	4.4917703E-001	-2.7037677E+002
3	0	8.772233947357017E+002	4.4934285E-001	-2.7038385E+002
3	0	8.777233947230707E+002	4.4941229E-001	-2.7038031E+002
3	0	8.782233947104396E+002	4.4905338E-001	-2.7038385E+002
3	0	8.787233946978085E+002	4.4826669E-001	-2.7039093E+002
3	0	8.792233946851775E+002	4.4805914E-001	-2.7040155E+002
3	0	8.797233946725464E+002	4.4856849E-001	-2.7038031E+002
3	0	8.802233946599154E+002	4.4882771E-001	-2.7035913E+002
3	0	8.807233946472843E+002	4.4871229E-001	-2.7036972E+002
3	0	8.812233946346532E+002	4.4841984E-001	-2.7036618E+002
3	0	8.817233946220222E+002	4.4801110E-001	-2.7037326E+002
3	0	8.822233946093911E+002	4.4720173E-001	-2.7038385E+002
3	0	8.827233945967600E+002	4.4615784E-001	-2.7037677E+002
3	0	8.832233945841290E+002	4.4556171E-001	-2.7039447E+002
3	0	8.837233945714979E+002	4.4567782E-001	-2.7039801E+002
3	0	8.842233945588669E+002	4.4564724E-001	-2.7036972E+002
3	0	8.847233945462358E+002	4.4552508E-001	-2.7039093E+002
3	0	8.852233945336047E+002	4.4551530E-001	-2.7039093E+002
3	0	8.857233945209737E+002	4.4568908E-001	-2.7038031E+002
3	0	8.862233945083426E+002	4.4586891E-001	-2.7036618E+002
3	0	8.867233944957115E+002	4.4609606E-001	-2.7037326E+002
3	0	8.872233944830805E+002	4.4682506E-001	-2.7038031E+002
3	0	8.877233944704494E+002	4.4833019E-001	-2.7038385E+002
3	0	8.882233944578184E+002	4.4966882E-001	-2.7037677E+002
3	0	8.887233944451873E+002	4.5065588E-001	-2.7035205E+002
3	0	8.892233944325562E+002	4.5143870E-001	-2.7035205E+002
3	0	8.897233944199252E+002	4.5206276E-001	-2.7036972E+002
3	0	8.902233944072941E+002	4.5223376E-001	-2.7037677E+002
3	0	8.907233943946630E+002	4.5205587E-001	-2.7038031E+002
3	0	8.912233943820320E+002	4.5228907E-001	-2.7036267E+002
3	0	8.917233943694009E+002	4.5313048E-001	-2.7035205E+002
3	0	8.922233943567699E+002	4.5373568E-001	-2.7038742E+002
3	0	8.927233943441388E+002	4.5398068E-001	-2.7039801E+002
3	0	8.932233943315077E+002	4.5413649E-001	-2.7036972E+002
3	0	8.937233943188767E+002	4.5403346E-001	-2.7038031E+002
3	0	8.942233943062456E+002	4.5343074E-001	-2.7038031E+002
3	0	8.947233942936145E+002	4.5244372E-001	-2.7036972E+002
3	0	8.952233942809835E+002	4.5191175E-001	-2.7039093E+002
3	0	8.957233942683524E+002	4.5199689E-001	-2.7037326E+002
3	0	8.962233942557214E+002	4.5186564E-001	-2.7037677E+002
3	0	8.967233942430903E+002	4.5130974E-001	-2.7037326E+002
3	0	8.972233942304592E+002	4.5053837E-001	-2.7038031E+002
3	0	8.977233942178282E+002	4.4966525E-001	-2.7037677E+002
3	0	8.982233942051971E+002	4.4851905E-001	-2.7036618E+002
3	0	8.987233941925660E+002	4.4699603E-001	-2.7037677E+002
3	0	8.992233941799350E+002	4.4596839E-001	-2.7036618E+002
3	0	8.997233941673039E+002	4.4558170E-001	-2.7040506E+002
3	0	9.002233941546729E+002	4.4500914E-001	-2.7037677E+002
3	0	9.007233941420418E+002	4.4406393E-001	-2.7038385E+002
3	0	9.012233941294107E+002	4.4297621E-001	-2.7039093E+002
3	0	9.017233941167797E+002	4.4182238E-001	-2.7036972E+002
3	0	9.022233941041486E+002	4.4028929E-001	-2.7037677E+002
3	0	9.027233940915175E+002	4.3843937E-001	-2.7040506E+002
3	0	9.032233940788865E+002	4.3715569E-001	-2.7037326E+002
3	0	9.037233940662554E+002	4.3653849E-001	-2.7038742E+002
3	0	9.042233940536244E+002	4.3595272E-001	-2.7036972E+002
3	0	9.047233940409933E+002	4.3523279E-001	-2.7036267E+002
3	0	9.052233940283622E+002	4.3465167E-001	-2.7037677E+002
3	0	9.057233940157312E+002	4.3427214E-001	-2.7035205E+002
3	0	9.062233940031001E+002	4.3379641E-001	-2.7038031E+002
3	0	9.067233939904690E+002	4.3328458E-001	-2.7038742E+002
3	0	9.072233939778380E+002	4.3337643E-001	-2.7039447E+002
3	0	9.077233939652069E+002	4.3414503E-001	-2.7037326E+002
3	0	9.082233939525759E+002	4.3469465E-001	-2.7037677E+002
3	0	9.087233939399448E+002	4.3491375E-001	-2.7040155E+002
3	0	9.092233939273137E+002	4.3497169E-001	-2.7036972E+002
3	0	9.097233939146827E+002	4.3497527E-001	-2.7037326E+002
3	0	9.102233939020516E+002	4.3463811E-001	-2.7036267E+002
3	0	9.107233938894205E+002	4.3400106E-001	-2.7036267E+002
3	0	9.112233938767895E+002	4.3379006E-001	-2.7036972E+002
3	0	9.117233938641584E+002	4.3409827E-001	-2.7039093E+002
3	0	9.122233938515274E+002	4.3413049E-001	-2.7038385E+002
3	0	9.127233938388963E+002	4.3380460E-001	-2.7037677E+002
3	0	9.132233938262652E+002	4.3338653E-001	-2.7039801E+002
3	0	9.137233938136342E+002	4.3279910E-001	-2.7038742E+002
3	0	9.142233938010031E+002	4.3190306E-001	-2.7036267E+002
3	0	9.147233937883721E+002	4.3076071E-001	-2.7036972E+002
3	0	9.152233937757410E+002	4.3006286E-001	-2.7039093E+002
3	0	9.157233937631099E+002	4.2982963E-001	-2.7039801E+002
3	0	9.162233937504789E+002	4.2934236E-001	-2.7036972E+002
3	0	9.167233937378478E+002	4.2858875E-001	-2.7038385E+002
3	0	9.172233937252167E+002	4.2776981E-001	-2.7037326E+002
3	0	9.177233937125857E+002	4.2689285E-001	-2.7037677E+002
3	0	9.182233936999546E+002	4.2568299E-001	-2.7038742E+002
3	0	9.187233936873236E+002	4.2426503E-001	-2.7038742E+002
3	0	9.192233936746925E+002	4.2330554E-001	-2.7037677E+002
3	0	9.197233936620614E+002	4.2282313E-001	-2.7040155E+002
3	0	9.202233936494304E+002	4.2212147E-001	-2.7039801E+002
3	0	9.207233936367993E+002	4.2120466E-001	-2.7038742E+002
3	0	9.212233936241682E+002	4.2021272E-001	-2.7039093E+002
3	0	9.217233936115372E+002	4.1916639E-001	-2.7037677E+002
3	0	9.222233935989061E+002	4.1797367E-001	-2.7035559E+002
3	0	9.227233935862751E+002	4.1665021E-001	-2.7038031E+002
3	0	9.232233935736440E+002	4.1566759E-001	-2.7038742E+002
3	0	9.237233935610129E+002	4.1522169E-001	-2.7038385E+002
3	0	9.242233935483819E+002	4.1473624E-001	-2.7035205E+002
3	0	9.247233935357508E+002	4.1420233E-001	-2.7039447E+002
3	0	9.252233935231197E+002	4.1376385E-001	-2.7035205E+002
3	0	9.257233935104887E+002	4.1342467E-001	-2.7038031E+002
3	0	9.262233934978576E+002	4.1306525E-001	-2.7038742E+002
3	0	9.267233934852266E+002	4.1265577E-001	-2.7036267E+002
3	0	9.272233934725955E+002	4.1273347E-001	-2.7037326E+002
3	0	9.277233934599644E+002	4.1327682E-001	-2.7038031E+002
3	0	9.282233934473334E+002	4.1362238E-001	-2.7035205E+002
3	0	9.287233934347023E+002	4.1376317E-001	-2.7040155E+002
3	0	9.292233934220712E+002	4.1383314E-001	-2.7038031E+002
3	0	9.297233934094402E+002	4.1376036E-001	-2.7037326E+002
3	0	9.302233933968091E+002	4.1347355E-001	-2.7038742E+002
3	0	9.307233933841781E+002	4.1301095E-001	-2.7037677E+002
3	0	9.312233933715470E+002	4.1278034E-001	-2.7041568E+002
3	0	9.317233933589159E+002	4.1286501E-001	-2.7036618E+002
3	0	9.322233933462849E+002	4.1273317E-001	-2.7037326E+002
3	0	9.327233933336538E+002	4.1240051E-001	-2.7037677E+002
3	0	9.332233933210227E+002	4.1199246E-001	-2.7037677E+002
3	0	9.337233933083917E+002	4.1153976E-001	-2.7036267E+002
3	0	9.342233932957606E+002	4.1088402E-001	-2.7039093E+002
3	0	9.347233932831296E+002	4.1011706E-001	-2.7035913E+002
3	0	9.352233932704985E+002	4.0961048E-001	-2.7036972E+002
3	0	9.357233932578674E+002	4.0945765E-001	-2.7037677E+002
3	0	9.362233932452364E+002	4.0912059E-001	-2.7035559E+002
3	0	9.367233932326053E+002	4.0858433E-001	-2.7037326E+002
3	0	9.372233932199742E+002	4.0805069E-001	-2.7039447E+002
3	0	9.377233932073432E+002	4.0743175E-001	-2.7037677E+002
3	0	9.382233931947121E+002	4.0668100E-001	-2.7038742E+002
3	0	9.387233931820811E+002	4.0578091E-001	-2.7036972E+002
3	0	9.392233931694500E+002	4.0518382E-001	-2.7037326E+002
3	0	9.397233931568189E+002	4.0494609E-001	-2.7038031E+002
3	0	9.402233931441879E+002	4.0455931E-001	-2.7041568E+002
3	0	9.407233931315568E+002	4.0399209E-001	-2.7038742E+002
3	0	9.412233931189257E+002	4.0344214E-001	-2.7038742E+002
3	0	9.417233931062947E+002	4.0282738E-001	-2.7037677E+002
3	0	9.422233930936636E+002	4.0206128E-001	-2.7039447E+002
3	0	9.427233930810326E+002	4.0114334E-001	-2.7040506E+002
3	0	9.432233930684015E+002	4.0055630E-001	-2.7038031E+002
3	0	9.437233930557704E+002	4.0029559E-001	-2.7038031E+002
3	0	9.442233930431394E+002	3.9995763E-001	-2.7037677E+002
3	0	9.447233930305083E+002	3.9954776E-001	-2.7037326E+002
3	0	9.452233930178772E+002	3.9920747E-001	-2.7039801E+002
3	0	9.457233930052462E+002	3.9898643E-001	-2.7038742E+002
3	0	9.462233929926151E+002	3.9875087E-001	-2.7040506E+002
3	0	9.467233929799841E+002	3.9855465E-001	-2.7037677E+002
3	0	9.472233929673530E+002	3.9865777E-001	-2.7035559E+002
3	0	9.477233929547219E+002	3.9910746E-001	-2.7038385E+002
3	0	9.482233929420909E+002	3.9944506E-001	-2.7039447E+002
3	0	9.487233929294598E+002	3.9962548E-001	-2.7039447E+002
3	0	9.492233929168287E+002	3.9971587E-001	-2.7036267E+002
3	0	9.497233929041977E+002	3.9973944E-001	-2.7039093E+002
3	0	9.502233928915666E+002	3.9956337E-001	-2.7038385E+002
3	0	9.507233928789356E+002	3.9924189E-001	-2.7036618E+002
3	0	9.512233928663045E+002	3.9917251E-001	-2.7037326E+002
3	0	9.517233928536734E+002	3.9934748E-001	-2.7038385E+002
3	0	9.522233928410424E+002	3.9934248E-001	-2.7040155E+002
3	0	9.527233928284113E+002	3.9918908E-001	-2.7036618E+002
3	0	9.532233928157802E+002	3.9897549E-001	-2.7038385E+002
3	0	9.537233928031492E+002	3.9873397E-001	-2.7036618E+002
3	0	9.542233927905181E+002	3.9827961E-001	-2.7035205E+002
3	0	9.547233927778871E+002	3.9766669E-001	-2.7039093E+002
3	0	9.552233927652560E+002	3.9732054E-001	-2.7035913E+002
3	0	9.557233927526249E+002	3.9724624E-001	-2.7039801E+002
3	0	9.562233927399939E+002	3.9704153E-001	-2.7040506E+002
3	0	9.567233927273628E+002	3.9669913E-001	-2.7038031E+002
3	0	9.572233927147317E+002	3.9631206E-001	-2.7039801E+002
3	0	9.577233927021007E+002	3.9587909E-001	-2.7038742E+002
3	0	9.582233926894696E+002	3.9530355E-001	-2.7037677E+002
3	0	9.587233926768386E+002	3.9462385E-001	-2.7035913E+002
3	0	9.592233926642075E+002	3.9419672E-001	-2.7036267E+002
3	0	9.597233926515764E+002	3.9405036E-001	-2.7039801E+002
3	0	9.602233926389454E+002	3.9377642E-001	-2.7038031E+002
3	0	9.607233926263143E+002	3.9339456E-001	-2.7041214E+002
3	0	9.612233926136832E+002	3.9298338E-001	-2.7036972E+002
3	0	9.617233926010522E+002	3.9249885E-001	-2.7038742E+002
3	0	9.622233925884211E+002	3.9187858E-001	-2.7037326E+002
3	0	9.627233925757901E+002	3.9117038E-001	-2.7037677E+002
3	0	9.632233925631590E+002	3.9075038E-001	-2.7036618E+002
3	0	9.637233925505279E+002	3.9060548E-001	-2.7036267E+002
3	0	9.642233925378969E+002	3.9036489E-001	-2.7038031E+002
3	0	9.647233925252658E+002	3.9007783E-001	-2.7038031E+002
3	0	9.652233925126347E+002	3.8986906E-001	-2.7038742E+002
3	0	9.657233925000037E+002	3.8974532E-001	-2.7036267E+002
3	0	9.662233924873726E+002	3.8956970E-001	-2.7037326E+002
3	0	9.667233924747416E+002	3.8936871E-001	-2.7037677E+002
3	0	9.672233924621105E+002	3.8944343E-001	-2.7035205E+002
3	0	9.672237924621004E+002	3.8963956E-001	-2.7038742E+002