EC-Lab ASCII FILE
Nb header lines : 55                          

Open Circuit Voltage

Run on channel : 1 (SN 81504)
User : 
CE vs. WE compliance from -10 V to 10 V
Electrode connection : standard
Potential control : Ewe
Ewe ctrl range : min = -2.50 V, max = 2.50 V
Safety Limits :
	Do not start on E overload
Acquisition started on : 05/10/2026 00:12:25.049
Loaded Setting File :  C:\PEM-WE_measurements\2026\372_IV_IV IrOx, 5 min Pt, 30 min C, etched cathode\new station\Loopeis new\1,46 V different time gaps closed cell\Loopeis 1,46V_30s_5_PEIS from 65Hz to 10Hz.mps
Saved on :
	File : L_05_Loopeis 1,46V_30s_5_PEIS from 65Hz to 10Hz_20_OCV_C01.mpr
	Directory : C:\PEM-WE_measurements\2026\372_IV_IV IrOx, 5 min Pt, 30 min C, etched cathode\new station\Loopeis new\1,46 V different time gaps closed cell\
	Host : 192.168.0.2
Device : SP-150e (SN .005491)
Address : 192.168.0.91
EC-LAB for windows v11.71 (software)
Internet server v28.00 (firmware)
Command interpretor v14.01 (firmware)
Electrode material : 
Initial state : 
Electrolyte : 
Comments : 
Current amplifier : SP-150eB-20A
Electrode surface area : 0.001 cm²
Characteristic mass : 0.001 g
Equivalent Weight : 0.000 g/eq.
Density : 0.000 g/cm3
Volume (V) : 0.001 cm³
Record Analogic IN 1
Text export
   Mode : Standard
   Time format : Elapsed
Cycle Definition : Charge/Discharge alternance
External device configuration :
   device type : Temperature Probe
   device name : Other
   Analog IN 1 : 
      unit : T/Â°C
      max : 100.000 at 2.000 V
      min : 0.000 at 1.460 V
tR (h:m:s)          0:00:30.0000        
dER/dt (mV/h)       1.0                 
record              <Ewe>               
dER (mV)            10.00               
dtR (s)             0.5000              
E range min (V)     -2.500              
E range max (V)     2.500               

mode	error	time/s	<Ewe/V>	Analog IN 1/V	
3	0	7.270355984811613E+002	1.2220414E+000	-2.7038742E+002
3	0	7.275355984685302E+002	1.2334346E+000	-2.7036972E+002
3	0	7.280355984558992E+002	1.2385921E+000	-2.7037677E+002
3	0	7.285355984432681E+002	1.2418300E+000	-2.7036618E+002
3	0	7.290355984306370E+002	1.2441201E+000	-2.7038742E+002
3	0	7.295355984180060E+002	1.2458380E+000	-2.7036972E+002
3	0	7.300355984053749E+002	1.2471752E+000	-2.7038742E+002
3	0	7.305355983927439E+002	1.2483058E+000	-2.7036267E+002
3	0	7.310355983801128E+002	1.2492658E+000	-2.7037326E+002
3	0	7.315355983674817E+002	1.2500631E+000	-2.7039093E+002
3	0	7.320355983548507E+002	1.2507372E+000	-2.7036618E+002
3	0	7.325355983422196E+002	1.2513006E+000	-2.7037326E+002
3	0	7.330355983295885E+002	1.2517555E+000	-2.7037677E+002
3	0	7.335355983169575E+002	1.2520854E+000	-2.7039447E+002
3	0	7.340355983043264E+002	1.2523288E+000	-2.7036618E+002
3	0	7.345355982916954E+002	1.2525821E+000	-2.7039447E+002
3	0	7.350355982790643E+002	1.2528203E+000	-2.7035205E+002
3	0	7.355355982664332E+002	1.2530011E+000	-2.7037326E+002
3	0	7.360355982538022E+002	1.2531538E+000	-2.7036972E+002
3	0	7.365355982411711E+002	1.2532799E+000	-2.7037677E+002
3	0	7.370355982285400E+002	1.2533468E+000	-2.7039093E+002
3	0	7.375355982159090E+002	1.2533315E+000	-2.7038385E+002
3	0	7.380355982032779E+002	1.2532611E+000	-2.7037326E+002
3	0	7.385355981906469E+002	1.2532449E+000	-2.7035913E+002
3	0	7.390355981780158E+002	1.2532288E+000	-2.7037677E+002
3	0	7.395355981653847E+002	1.2531848E+000	-2.7036972E+002
3	0	7.400355981527537E+002	1.2531230E+000	-2.7036972E+002
3	0	7.405355981401226E+002	1.2530472E+000	-2.7038031E+002
3	0	7.410355981274915E+002	1.2529306E+000	-2.7034851E+002
3	0	7.415355981148605E+002	1.2527388E+000	-2.7039801E+002
3	0	7.420355981022294E+002	1.2525065E+000	-2.7037677E+002
3	0	7.425355980895984E+002	1.2523350E+000	-2.7038742E+002
3	0	7.430355980769673E+002	1.2521834E+000	-2.7038385E+002
3	0	7.435355980643362E+002	1.2519940E+000	-2.7038385E+002
3	0	7.440355980517052E+002	1.2518072E+000	-2.7037677E+002
3	0	7.445355980390741E+002	1.2516042E+000	-2.7038742E+002
3	0	7.450355980264430E+002	1.2513676E+000	-2.7038385E+002
3	0	7.455355980138120E+002	1.2510643E+000	-2.7039801E+002
3	0	7.460355980011809E+002	1.2507173E+000	-2.7038031E+002
3	0	7.465355979885499E+002	1.2504323E+000	-2.7035913E+002
3	0	7.470355979759188E+002	1.2501414E+000	-2.7039093E+002
3	0	7.475355979632877E+002	1.2498374E+000	-2.7035913E+002
3	0	7.480355979506567E+002	1.2495233E+000	-2.7036972E+002
3	0	7.485355979380256E+002	1.2492117E+000	-2.7037326E+002
3	0	7.490355979253945E+002	1.2488540E+000	-2.7040155E+002
3	0	7.495355979127635E+002	1.2484291E+000	-2.7038385E+002
3	0	7.500355979001324E+002	1.2479707E+000	-2.7040506E+002
3	0	7.505355978875014E+002	1.2475713E+000	-2.7039093E+002
3	0	7.510355978748703E+002	1.2471770E+000	-2.7037326E+002
3	0	7.515355978622392E+002	1.2467637E+000	-2.7037326E+002
3	0	7.520355978496082E+002	1.2463372E+000	-2.7036618E+002
3	0	7.525355978369771E+002	1.2459140E+000	-2.7037326E+002
3	0	7.530355978243460E+002	1.2454389E+000	-2.7034497E+002
3	0	7.535355978117150E+002	1.2448967E+000	-2.7039093E+002
3	0	7.540355977990839E+002	1.2443208E+000	-2.7036267E+002
3	0	7.545355977864529E+002	1.2438155E+000	-2.7038031E+002
3	0	7.550355977738218E+002	1.2433321E+000	-2.7038385E+002
3	0	7.555355977611907E+002	1.2428435E+000	-2.7037677E+002
3	0	7.560355977485597E+002	1.2423493E+000	-2.7037677E+002
3	0	7.565355977359286E+002	1.2418585E+000	-2.7038385E+002
3	0	7.565601977353072E+002	1.2415866E+000	-2.7039093E+002