EC-Lab ASCII FILE
Nb header lines : 55                          

Open Circuit Voltage

Run on channel : 1 (SN 81504)
User : 
CE vs. WE compliance from -10 V to 10 V
Electrode connection : standard
Potential control : Ewe
Ewe ctrl range : min = -2.50 V, max = 2.50 V
Safety Limits :
	Do not start on E overload
Acquisition started on : 05/10/2026 06:22:15.566
Loaded Setting File :  C:\PEM-WE_measurements\2026\372_IV_IV IrOx, 5 min Pt, 30 min C, etched cathode\new station\Loopeis new\1,46 V different time gaps closed cell\Loopeis 1,46V_120s_3_PEIS from 6500Hz to 1000Hz.mps
Saved on :
	File : L_23_Loopeis 1,46V_120s_3_PEIS from 6500Hz to 1000Hz_10_OCV_C01.mpr
	Directory : C:\PEM-WE_measurements\2026\372_IV_IV IrOx, 5 min Pt, 30 min C, etched cathode\new station\Loopeis new\1,46 V different time gaps closed cell\
	Host : 192.168.0.2
Device : SP-150e (SN .005491)
Address : 192.168.0.91
EC-LAB for windows v11.71 (software)
Internet server v28.00 (firmware)
Command interpretor v14.01 (firmware)
Electrode material : 
Initial state : 
Electrolyte : 
Comments : 
Current amplifier : SP-150eB-20A
Electrode surface area : 0.001 cm²
Characteristic mass : 0.001 g
Equivalent Weight : 0.000 g/eq.
Density : 0.000 g/cm3
Volume (V) : 0.001 cm³
Record Analogic IN 1
Text export
   Mode : Standard
   Time format : Elapsed
Cycle Definition : Charge/Discharge alternance
External device configuration :
   device type : Temperature Probe
   device name : Other
   Analog IN 1 : 
      unit : T/Â°C
      max : 100.000 at 2.000 V
      min : 0.000 at 1.460 V
tR (h:m:s)          0:02:0.0000         
dER/dt (mV/h)       1.0                 
record              <Ewe>               
dER (mV)            10.00               
dtR (s)             0.5000              
E range min (V)     -2.500              
E range max (V)     2.500               

mode	error	time/s	<Ewe/V>	Analog IN 1/V	
3	0	7.054363887226646E+002	1.2913874E+000	-2.7034851E+002
3	0	7.059363887100335E+002	1.2981009E+000	-2.7036618E+002
3	0	7.064363886974024E+002	1.2944237E+000	-2.7037677E+002
3	0	7.069363886847714E+002	1.2851553E+000	-2.7040155E+002
3	0	7.074363886721403E+002	1.2687073E+000	-2.7037677E+002
3	0	7.079363886595092E+002	1.2422752E+000	-2.7039093E+002
3	0	7.084363886468782E+002	1.2004495E+000	-2.7036618E+002
3	0	7.089363886342471E+002	1.1282598E+000	-2.7036972E+002
3	0	7.094363886216161E+002	9.3939978E-001	-2.7037677E+002
3	0	7.099363886089850E+002	5.9531611E-001	-2.7036972E+002
3	0	7.104363885963539E+002	4.7600457E-001	-2.7036972E+002
3	0	7.109363885837229E+002	4.3518776E-001	-2.7038385E+002
3	0	7.114363885710918E+002	4.1880873E-001	-2.7035913E+002
3	0	7.119363885584607E+002	4.1102800E-001	-2.7038385E+002
3	0	7.124363885458297E+002	4.0658617E-001	-2.7038385E+002
3	0	7.129363885331986E+002	4.0326223E-001	-2.7038031E+002
3	0	7.134363885205676E+002	4.0057567E-001	-2.7038385E+002
3	0	7.139363885079365E+002	3.9895108E-001	-2.7037326E+002
3	0	7.144363884953054E+002	3.9791018E-001	-2.7040155E+002
3	0	7.149363884826744E+002	3.9691991E-001	-2.7040506E+002
3	0	7.154363884700433E+002	3.9593989E-001	-2.7037677E+002
3	0	7.159363884574122E+002	3.9505726E-001	-2.7037677E+002
3	0	7.164363884447812E+002	3.9425486E-001	-2.7037326E+002
3	0	7.169363884321501E+002	3.9335904E-001	-2.7036618E+002
3	0	7.174363884195191E+002	3.9243722E-001	-2.7038385E+002
3	0	7.179363884068880E+002	3.9218938E-001	-2.7038742E+002
3	0	7.184363883942569E+002	3.9221334E-001	-2.7038742E+002
3	0	7.189363883816259E+002	3.9212513E-001	-2.7039447E+002
3	0	7.194363883689948E+002	3.9199740E-001	-2.7036267E+002
3	0	7.199363883563638E+002	3.9173856E-001	-2.7036618E+002
3	0	7.204363883437327E+002	3.9147159E-001	-2.7036972E+002
3	0	7.209363883311016E+002	3.9096794E-001	-2.7039447E+002
3	0	7.214363883184706E+002	3.9037651E-001	-2.7038385E+002
3	0	7.219363883058395E+002	3.9041874E-001	-2.7036267E+002
3	0	7.224363882932084E+002	3.9062065E-001	-2.7037677E+002
3	0	7.229363882805774E+002	3.9072430E-001	-2.7036972E+002
3	0	7.234363882679463E+002	3.9070380E-001	-2.7040860E+002
3	0	7.239363882553153E+002	3.9062646E-001	-2.7037677E+002
3	0	7.244363882426842E+002	3.9027479E-001	-2.7039447E+002
3	0	7.249363882300531E+002	3.9040685E-001	-2.7036267E+002
3	0	7.254363882174221E+002	3.9056715E-001	-2.7040155E+002
3	0	7.259363882047910E+002	3.9115772E-001	-2.7036618E+002
3	0	7.264363881921599E+002	3.9194492E-001	-2.7039093E+002
3	0	7.269363881795289E+002	3.9256448E-001	-2.7040506E+002
3	0	7.274363881668978E+002	3.9329317E-001	-2.7039093E+002
3	0	7.279363881542668E+002	3.9397040E-001	-2.7038031E+002
3	0	7.284363881416357E+002	3.9453506E-001	-2.7035559E+002
3	0	7.289363881290046E+002	3.9490104E-001	-2.7035913E+002
3	0	7.294363881163736E+002	3.9511037E-001	-2.7038742E+002
3	0	7.299363881037425E+002	3.9576167E-001	-2.7036972E+002
3	0	7.304363880911114E+002	3.9651185E-001	-2.7040155E+002
3	0	7.309363880784804E+002	3.9696348E-001	-2.7036972E+002
3	0	7.314363880658493E+002	3.9732531E-001	-2.7036972E+002
3	0	7.319363880532183E+002	3.9761573E-001	-2.7036267E+002
3	0	7.324363880405872E+002	3.9776495E-001	-2.7038385E+002
3	0	7.329363880279561E+002	3.9769039E-001	-2.7036618E+002
3	0	7.334363880153251E+002	3.9748952E-001	-2.7038385E+002
3	0	7.339363880026940E+002	3.9780173E-001	-2.7037326E+002
3	0	7.344363879900629E+002	3.9815533E-001	-2.7035913E+002
3	0	7.349363879774319E+002	3.9824039E-001	-2.7041214E+002
3	0	7.354363879648008E+002	3.9830238E-001	-2.7038742E+002
3	0	7.359363879521698E+002	3.9823854E-001	-2.7036972E+002
3	0	7.364363879395387E+002	3.9812237E-001	-2.7038385E+002
3	0	7.369363879269076E+002	3.9776900E-001	-2.7039801E+002
3	0	7.374363879142766E+002	3.9726090E-001	-2.7039801E+002
3	0	7.379363879016455E+002	3.9727578E-001	-2.7037326E+002
3	0	7.384363878890144E+002	3.9738953E-001	-2.7038385E+002
3	0	7.389363878763834E+002	3.9723137E-001	-2.7038385E+002
3	0	7.394363878637523E+002	3.9709687E-001	-2.7041568E+002
3	0	7.399363878511213E+002	3.9685938E-001	-2.7036618E+002
3	0	7.404363878384902E+002	3.9656657E-001	-2.7038742E+002
3	0	7.409363878258591E+002	3.9603242E-001	-2.7037326E+002
3	0	7.414363878132281E+002	3.9540592E-001	-2.7039447E+002
3	0	7.419363878005970E+002	3.9523274E-001	-2.7036618E+002
3	0	7.424363877879659E+002	3.9524752E-001	-2.7037677E+002
3	0	7.429363877753349E+002	3.9500579E-001	-2.7036972E+002
3	0	7.434363877627038E+002	3.9473796E-001	-2.7040155E+002
3	0	7.439363877500728E+002	3.9444295E-001	-2.7039447E+002
3	0	7.444363877374417E+002	3.9412552E-001	-2.7039093E+002
3	0	7.449363877248106E+002	3.9366654E-001	-2.7036972E+002
3	0	7.454363877121796E+002	3.9326739E-001	-2.7037677E+002
3	0	7.459363876995485E+002	3.9347237E-001	-2.7039093E+002
3	0	7.464363876869174E+002	3.9390457E-001	-2.7036972E+002
3	0	7.469363876742864E+002	3.9422929E-001	-2.7036972E+002
3	0	7.474363876616553E+002	3.9461589E-001	-2.7037326E+002
3	0	7.479363876490243E+002	3.9502895E-001	-2.7038742E+002
3	0	7.484363876363932E+002	3.9537677E-001	-2.7037326E+002
3	0	7.489363876237621E+002	3.9542586E-001	-2.7036618E+002
3	0	7.494363876111311E+002	3.9533424E-001	-2.7037326E+002
3	0	7.499363875985000E+002	3.9569113E-001	-2.7038031E+002
3	0	7.504363875858689E+002	3.9616311E-001	-2.7038031E+002
3	0	7.509363875732379E+002	3.9633077E-001	-2.7040860E+002
3	0	7.514363875606068E+002	3.9643025E-001	-2.7041214E+002
3	0	7.519363875479758E+002	3.9640260E-001	-2.7037677E+002
3	0	7.524363875353447E+002	3.9630139E-001	-2.7037326E+002
3	0	7.529363875227136E+002	3.9596498E-001	-2.7036972E+002
3	0	7.534363875100826E+002	3.9556265E-001	-2.7038385E+002
3	0	7.539363874974515E+002	3.9553642E-001	-2.7040506E+002
3	0	7.544363874848204E+002	3.9568725E-001	-2.7037326E+002
3	0	7.549363874721894E+002	3.9556968E-001	-2.7039093E+002
3	0	7.554363874595583E+002	3.9539865E-001	-2.7038385E+002
3	0	7.559363874469273E+002	3.9508826E-001	-2.7037677E+002
3	0	7.564363874342962E+002	3.9472488E-001	-2.7036618E+002
3	0	7.569363874216651E+002	3.9409947E-001	-2.7037326E+002
3	0	7.574363874090341E+002	3.9337894E-001	-2.7036972E+002
3	0	7.579363873964030E+002	3.9311388E-001	-2.7036618E+002
3	0	7.584363873837719E+002	3.9299947E-001	-2.7038385E+002
3	0	7.589363873711409E+002	3.9268491E-001	-2.7040155E+002
3	0	7.594363873585098E+002	3.9236903E-001	-2.7036267E+002
3	0	7.599363873458788E+002	3.9197364E-001	-2.7039093E+002
3	0	7.604363873332477E+002	3.9152500E-001	-2.7037677E+002
3	0	7.609363873206166E+002	3.9085701E-001	-2.7036267E+002
3	0	7.614363873079856E+002	3.9013493E-001	-2.7039447E+002
3	0	7.619363872953545E+002	3.8982755E-001	-2.7039447E+002
3	0	7.624363872827234E+002	3.8967252E-001	-2.7039093E+002
3	0	7.629363872700924E+002	3.8931167E-001	-2.7037677E+002
3	0	7.634363872574613E+002	3.8896930E-001	-2.7037326E+002
3	0	7.639363872448303E+002	3.8850823E-001	-2.7035913E+002
3	0	7.644363872321992E+002	3.8805473E-001	-2.7040155E+002
3	0	7.649363872195681E+002	3.8756737E-001	-2.7038031E+002
3	0	7.654363872069371E+002	3.8708416E-001	-2.7038742E+002
3	0	7.659363871943060E+002	3.8708270E-001	-2.7038742E+002
3	0	7.664363871816749E+002	3.8736737E-001	-2.7037677E+002
3	0	7.669363871690439E+002	3.8754117E-001	-2.7039093E+002
3	0	7.674363871564128E+002	3.8776794E-001	-2.7037326E+002
3	0	7.679363871437818E+002	3.8790968E-001	-2.7038385E+002
3	0	7.684363871311507E+002	3.8800231E-001	-2.7037677E+002
3	0	7.689363871185196E+002	3.8781455E-001	-2.7033084E+002
3	0	7.694363871058886E+002	3.8756189E-001	-2.7039093E+002
3	0	7.699363870932575E+002	3.8766676E-001	-2.7035205E+002
3	0	7.704363870806264E+002	3.8787964E-001	-2.7036972E+002
3	0	7.709363870679954E+002	3.8789430E-001	-2.7038385E+002
3	0	7.714363870553643E+002	3.8785797E-001	-2.7037326E+002
3	0	7.719363870427333E+002	3.8775340E-001	-2.7038031E+002
3	0	7.724363870301022E+002	3.8754171E-001	-2.7039093E+002
3	0	7.729363870174711E+002	3.8714954E-001	-2.7037677E+002
3	0	7.734363870048401E+002	3.8662186E-001	-2.7038742E+002
3	0	7.739363869922090E+002	3.8642800E-001	-2.7039801E+002
3	0	7.744363869795779E+002	3.8637921E-001	-2.7039093E+002
3	0	7.749363869669469E+002	3.8617599E-001	-2.7039447E+002
3	0	7.754363869543158E+002	3.8594738E-001	-2.7040155E+002
3	0	7.759363869416848E+002	3.8564950E-001	-2.7040155E+002
3	0	7.764363869290537E+002	3.8525450E-001	-2.7036972E+002
3	0	7.769363869164226E+002	3.8467056E-001	-2.7035559E+002
3	0	7.774363869037916E+002	3.8402468E-001	-2.7036972E+002
3	0	7.779363868911605E+002	3.8375139E-001	-2.7037326E+002
3	0	7.784363868785294E+002	3.8358179E-001	-2.7039093E+002
3	0	7.789363868658984E+002	3.8326710E-001	-2.7036618E+002
3	0	7.794363868532673E+002	3.8297904E-001	-2.7038031E+002
3	0	7.799363868406363E+002	3.8262177E-001	-2.7034497E+002
3	0	7.804363868280052E+002	3.8220966E-001	-2.7037326E+002
3	0	7.809363868153741E+002	3.8165578E-001	-2.7037326E+002
3	0	7.814363868027431E+002	3.8104215E-001	-2.7038742E+002
3	0	7.819363867901120E+002	3.8080624E-001	-2.7038385E+002
3	0	7.824363867774809E+002	3.8067231E-001	-2.7038742E+002
3	0	7.829363867648499E+002	3.8040733E-001	-2.7039447E+002
3	0	7.834363867522188E+002	3.8012016E-001	-2.7037326E+002
3	0	7.839363867395878E+002	3.7975612E-001	-2.7039093E+002
3	0	7.844363867269567E+002	3.7932819E-001	-2.7040155E+002
3	0	7.849363867143256E+002	3.7883663E-001	-2.7038031E+002
3	0	7.854363867016946E+002	3.7840083E-001	-2.7036972E+002
3	0	7.859363866890635E+002	3.7836996E-001	-2.7037677E+002
3	0	7.864363866764324E+002	3.7851092E-001	-2.7035559E+002
3	0	7.869363866638014E+002	3.7861726E-001	-2.7038742E+002
3	0	7.874363866511703E+002	3.7879452E-001	-2.7037326E+002
3	0	7.879363866385393E+002	3.7888905E-001	-2.7036972E+002
3	0	7.884363866259082E+002	3.7897679E-001	-2.7034497E+002
3	0	7.889363866132771E+002	3.7892899E-001	-2.7037677E+002
3	0	7.894363866006461E+002	3.7876558E-001	-2.7039093E+002
3	0	7.899363865880150E+002	3.7886143E-001	-2.7038742E+002
3	0	7.904363865753839E+002	3.7905028E-001	-2.7039447E+002
3	0	7.909363865627529E+002	3.7904713E-001	-2.7036267E+002
3	0	7.914363865501218E+002	3.7900084E-001	-2.7038031E+002
3	0	7.919363865374908E+002	3.7885252E-001	-2.7038385E+002
3	0	7.924363865248597E+002	3.7859479E-001	-2.7035913E+002
3	0	7.929363865122286E+002	3.7821978E-001	-2.7038385E+002
3	0	7.934363864995976E+002	3.7776312E-001	-2.7038742E+002
3	0	7.939363864869665E+002	3.7760594E-001	-2.7038385E+002
3	0	7.944363864743355E+002	3.7757564E-001	-2.7036972E+002
3	0	7.949363864617044E+002	3.7739876E-001	-2.7039093E+002
3	0	7.954363864490733E+002	3.7720108E-001	-2.7036618E+002
3	0	7.959363864364423E+002	3.7692121E-001	-2.7039447E+002
3	0	7.964363864238112E+002	3.7662780E-001	-2.7036972E+002
3	0	7.969363864111801E+002	3.7614182E-001	-2.7037677E+002
3	0	7.974363863985491E+002	3.7560892E-001	-2.7039093E+002
3	0	7.979363863859180E+002	3.7538573E-001	-2.7040506E+002
3	0	7.984363863732870E+002	3.7526217E-001	-2.7035913E+002
3	0	7.989363863606559E+002	3.7500161E-001	-2.7041919E+002
3	0	7.994363863480248E+002	3.7474811E-001	-2.7038742E+002
3	0	7.999363863353938E+002	3.7442037E-001	-2.7038742E+002
3	0	8.004363863227627E+002	3.7405202E-001	-2.7036618E+002
3	0	8.009363863101316E+002	3.7358108E-001	-2.7039093E+002
3	0	8.014363862975006E+002	3.7306532E-001	-2.7036618E+002
3	0	8.019363862848695E+002	3.7279537E-001	-2.7039447E+002
3	0	8.024363862722385E+002	3.7265158E-001	-2.7037326E+002
3	0	8.029363862596074E+002	3.7237716E-001	-2.7036267E+002
3	0	8.034363862469763E+002	3.7210861E-001	-2.7038385E+002
3	0	8.039363862343453E+002	3.7180716E-001	-2.7038385E+002
3	0	8.044363862217142E+002	3.7143657E-001	-2.7041919E+002
3	0	8.049363862090831E+002	3.7100378E-001	-2.7039093E+002
3	0	8.054363861964521E+002	3.7059051E-001	-2.7038031E+002
3	0	8.059363861838210E+002	3.7052342E-001	-2.7036972E+002
3	0	8.064363861711900E+002	3.7064213E-001	-2.7036618E+002
3	0	8.069363861585589E+002	3.7069863E-001	-2.7034143E+002
3	0	8.074363861459278E+002	3.7083402E-001	-2.7038742E+002
3	0	8.079363861332968E+002	3.7096855E-001	-2.7038031E+002
3	0	8.084363861206657E+002	3.7104335E-001	-2.7039093E+002
3	0	8.089363861080346E+002	3.7099493E-001	-2.7038742E+002
3	0	8.094363860954036E+002	3.7083870E-001	-2.7038031E+002
3	0	8.099363860827725E+002	3.7088439E-001	-2.7035913E+002
3	0	8.104363860701415E+002	3.7101305E-001	-2.7038742E+002
3	0	8.109363860575104E+002	3.7100399E-001	-2.7038031E+002
3	0	8.114363860448793E+002	3.7094960E-001	-2.7039093E+002
3	0	8.119363860322483E+002	3.7080613E-001	-2.7036267E+002
3	0	8.124363860196172E+002	3.7062445E-001	-2.7037326E+002
3	0	8.129363860069861E+002	3.7031066E-001	-2.7037677E+002
3	0	8.134363859943551E+002	3.6993119E-001	-2.7038742E+002
3	0	8.139363859817240E+002	3.6977196E-001	-2.7036267E+002
3	0	8.144363859690930E+002	3.6973757E-001	-2.7038742E+002
3	0	8.149363859564619E+002	3.6956388E-001	-2.7034497E+002
3	0	8.154363859438308E+002	3.6937931E-001	-2.7036972E+002
3	0	8.159363859311998E+002	3.6911571E-001	-2.7039093E+002
3	0	8.164363859185687E+002	3.6865893E-001	-2.7035559E+002
3	0	8.169363859059376E+002	3.6819884E-001	-2.7036618E+002
3	0	8.174363858933066E+002	3.6794654E-001	-2.7038385E+002
3	0	8.179363858806755E+002	3.6779842E-001	-2.7038385E+002
3	0	8.184363858680445E+002	3.6773592E-001	-2.7038385E+002
3	0	8.189363858554134E+002	3.6747721E-001	-2.7038385E+002
3	0	8.194363858427823E+002	3.6715442E-001	-2.7036972E+002
3	0	8.199363858301513E+002	3.6686188E-001	-2.7036618E+002
3	0	8.204363858175202E+002	3.6650354E-001	-2.7040155E+002
3	0	8.209363858048891E+002	3.6598438E-001	-2.7040155E+002
3	0	8.214363857922581E+002	3.6542958E-001	-2.7038385E+002
3	0	8.219363857796270E+002	3.6515936E-001	-2.7039093E+002
3	0	8.224363857669960E+002	3.6509842E-001	-2.7037326E+002
3	0	8.229363857543649E+002	3.6491418E-001	-2.7035913E+002
3	0	8.234363857417338E+002	3.6459181E-001	-2.7038385E+002
3	0	8.239363857291028E+002	3.6426762E-001	-2.7036267E+002
3	0	8.244363857164717E+002	3.6393049E-001	-2.7035913E+002
3	0	8.249363857038406E+002	3.6350614E-001	-2.7037326E+002
3	0	8.249367857038305E+002	3.6325613E-001	-2.7038385E+002