EC-Lab ASCII FILE
Nb header lines : 48                          

Open Circuit Voltage

Run on channel : 1 (SN 81504)
User : 
CE vs. WE compliance from -10 V to 10 V
Electrode connection : standard
Potential control : Ewe
Ewe ctrl range : min = -2.50 V, max = 2.50 V
Safety Limits :
	Do not start on E overload
Acquisition started on : 05/10/2026 02:09:52.585
Loaded Setting File :  C:\PEM-WE_measurements\2026\372_IV_IV IrOx, 5 min Pt, 30 min C, etched cathode\new station\Loopeis new\1,46 V different time gaps closed cell\Loopeis 1,46V_60s_2_PEIS from 65kHz to 10kHz.mps
Saved on :
	File : L_12_Loopeis 1,46V_60s_2_PEIS from 65kHz to 10kHz_08_OCV_C01.mpr
	Directory : C:\PEM-WE_measurements\2026\372_IV_IV IrOx, 5 min Pt, 30 min C, etched cathode\new station\Loopeis new\1,46 V different time gaps closed cell\
	Host : 192.168.0.2
Device : SP-150e (SN .005491)
Address : 192.168.0.91
EC-LAB for windows v11.71 (software)
Internet server v28.00 (firmware)
Command interpretor v14.01 (firmware)
Electrode material : 
Initial state : 
Electrolyte : 
Comments : 
Current amplifier : SP-150eB-20A
Electrode surface area : 0.001 cm²
Characteristic mass : 0.001 g
Equivalent Weight : 0.000 g/eq.
Density : 0.000 g/cm3
Volume (V) : 0.001 cm³
Record Analogic IN 1
Text export
   Mode : Standard
   Time format : Elapsed
Cycle Definition : Charge/Discharge alternance
tR (h:m:s)          0:01:0.0000         
dER/dt (mV/h)       1.0                 
record              <Ewe>               
dER (mV)            10.00               
dtR (s)             0.5000              
E range min (V)     -2.500              
E range max (V)     2.500               

mode	error	time/s	<Ewe/V>	Analog IN 1/V	
3	0	3.618161975062685E+002	1.1942624E+000	-1.4881945E-004
3	0	3.623161974936374E+002	1.2579918E+000	-1.1064836E-004
3	0	3.628161974810064E+002	1.2620994E+000	-3.4306191E-005
3	0	3.633161974683753E+002	1.2645470E+000	6.1121522E-005
3	0	3.638161974557443E+002	1.2661897E+000	3.8648941E-006
3	0	3.643161974431132E+002	1.2673713E+000	-5.3391734E-005
3	0	3.648161974304821E+002	1.2682436E+000	3.8648941E-006
3	0	3.653161974178511E+002	1.2688948E+000	-3.4306191E-005
3	0	3.658161974052200E+002	1.2693365E+000	-7.2477276E-005
3	0	3.663161973925889E+002	1.2696153E+000	-1.5220648E-005
3	0	3.668161973799579E+002	1.2698692E+000	-1.8699054E-004
3	0	3.673161973673268E+002	1.2701000E+000	-1.8699054E-004
3	0	3.678161973546958E+002	1.2702698E+000	-3.4306191E-005
3	0	3.683161973420647E+002	1.2704045E+000	-1.1064836E-004
3	0	3.688161973294336E+002	1.2705015E+000	2.2950437E-005
3	0	3.693161973168026E+002	1.2705508E+000	-1.5220648E-005
3	0	3.698161973041715E+002	1.2705214E+000	-7.2477276E-005
3	0	3.703161972915404E+002	1.2704371E+000	-3.4306191E-005
3	0	3.708161972789094E+002	1.2704237E+000	-7.2477276E-005
3	0	3.713161972662783E+002	1.2704494E+000	-3.4306191E-005
3	0	3.718161972536473E+002	1.2704730E+000	-7.2477276E-005
3	0	3.723161972410162E+002	1.2704875E+000	-1.4881945E-004
3	0	3.728161972283851E+002	1.2705058E+000	-1.6790499E-004
3	0	3.733161972157541E+002	1.2705076E+000	-3.4306191E-005
3	0	3.738161972031230E+002	1.2704427E+000	4.2035979E-005
3	0	3.743161971904919E+002	1.2703241E+000	-1.1064836E-004
3	0	3.748161971778609E+002	1.2702764E+000	-3.4306191E-005
3	0	3.753161971652298E+002	1.2702858E+000	3.8648941E-006
3	0	3.758161971525988E+002	1.2702944E+000	-1.1064836E-004
3	0	3.763161971399677E+002	1.2702876E+000	-3.4306191E-005
3	0	3.768161971273366E+002	1.2702845E+000	4.2035979E-005
3	0	3.773161971147056E+002	1.2702622E+000	-5.3391734E-005
3	0	3.778161971020745E+002	1.2701691E+000	3.8648941E-006
3	0	3.783161970894434E+002	1.2700132E+000	-5.3391734E-005
3	0	3.788161970768124E+002	1.2699237E+000	-1.5220648E-005
3	0	3.793161970641813E+002	1.2698963E+000	-1.4881945E-004
3	0	3.798161970515503E+002	1.2698623E+000	-1.1064836E-004
3	0	3.803161970389192E+002	1.2698175E+000	-7.2477276E-005
3	0	3.808161970262881E+002	1.2697754E+000	-7.2477276E-005
3	0	3.813161970136571E+002	1.2696998E+000	-1.1064836E-004
3	0	3.818161970010260E+002	1.2695557E+000	-7.2477276E-005
3	0	3.823161969883950E+002	1.2693553E+000	-2.4424717E-004
3	0	3.828161969757639E+002	1.2692190E+000	4.2035979E-005
3	0	3.833161969631328E+002	1.2691352E+000	3.8648941E-006
3	0	3.838161969505018E+002	1.2690417E+000	-9.1562819E-005
3	0	3.843161969378707E+002	1.2689432E+000	3.8648941E-006
3	0	3.848161969252396E+002	1.2688373E+000	3.8648941E-006
3	0	3.853161969126086E+002	1.2687143E+000	-1.2973390E-004
3	0	3.858161968999775E+002	1.2685151E+000	-9.1562819E-005
3	0	3.863161968873465E+002	1.2682455E+000	-1.5220648E-005
3	0	3.868161968747154E+002	1.2680537E+000	-1.5220648E-005
3	0	3.873161968620843E+002	1.2679135E+000	-1.1064836E-004
3	0	3.878161968494533E+002	1.2677723E+000	-5.3391734E-005
3	0	3.883161968368222E+002	1.2676281E+000	2.2950437E-005
3	0	3.888161968241911E+002	1.2674972E+000	4.2035979E-005
3	0	3.893161968115601E+002	1.2673435E+000	8.0207064E-005
3	0	3.898161967989290E+002	1.2671421E+000	3.8648941E-006
3	0	3.903161967862980E+002	1.2668875E+000	4.2035979E-005
3	0	3.908161967736669E+002	1.2667083E+000	4.2035979E-005
3	0	3.913161967610358E+002	1.2665952E+000	2.2950437E-005
3	0	3.918161967484048E+002	1.2664899E+000	-1.1064836E-004
3	0	3.923161967357737E+002	1.2663786E+000	-7.2477276E-005
3	0	3.928161967231426E+002	1.2662638E+000	-9.1562819E-005
3	0	3.933161967105116E+002	1.2661337E+000	-1.2973390E-004
3	0	3.938161966978805E+002	1.2659360E+000	-1.5220648E-005
3	0	3.943161966852495E+002	1.2656704E+000	3.8648941E-006
3	0	3.948161966726184E+002	1.2654822E+000	-9.1562819E-005
3	0	3.953161966599873E+002	1.2653439E+000	9.9292607E-005
3	0	3.958161966473563E+002	1.2652045E+000	-7.2477276E-005
3	0	3.963161966347252E+002	1.2650570E+000	-1.5220648E-005
3	0	3.968161966220941E+002	1.2649101E+000	2.2950437E-005
3	0	3.973161966094631E+002	1.2647506E+000	-1.5220648E-005
3	0	3.978161965968320E+002	1.2645137E+000	-1.5220648E-005
3	0	3.983161965842010E+002	1.2642120E+000	-1.4881945E-004
3	0	3.988161965715699E+002	1.2639853E+000	6.1121522E-005
3	0	3.993161965589388E+002	1.2638018E+000	-5.3391734E-005
3	0	3.998161965463078E+002	1.2636225E+000	-1.5220648E-005
3	0	4.003161965336767E+002	1.2634231E+000	-1.2973390E-004
3	0	4.008161965210456E+002	1.2632245E+000	-5.3391734E-005
3	0	4.013161965084146E+002	1.2630048E+000	-1.5220648E-005
3	0	4.018161964957835E+002	1.2627199E+000	-1.5220648E-005
3	0	4.023161964831525E+002	1.2623737E+000	-9.1562819E-005
3	0	4.028161964705214E+002	1.2620878E+000	6.1121522E-005
3	0	4.033161964578903E+002	1.2618673E+000	-5.3391734E-005
3	0	4.038161964452593E+002	1.2616475E+000	-1.1064836E-004
3	0	4.043161964326282E+002	1.2614071E+000	2.2950437E-005
3	0	4.048161964199971E+002	1.2611823E+000	-3.4306191E-005
3	0	4.053161964073661E+002	1.2609234E+000	-1.1064836E-004
3	0	4.058161963947350E+002	1.2605904E+000	-1.8699054E-004
3	0	4.063161963821040E+002	1.2601948E+000	-9.1562819E-005
3	0	4.068161963694729E+002	1.2598823E+000	4.2035979E-005
3	0	4.073161963568418E+002	1.2596158E+000	3.8648941E-006
3	0	4.078161963442108E+002	1.2593650E+000	-9.1562819E-005
3	0	4.083161963315797E+002	1.2591051E+000	8.0207064E-005
3	0	4.088161963189486E+002	1.2588536E+000	2.2950437E-005
3	0	4.093161963063176E+002	1.2585914E+000	-1.6790499E-004
3	0	4.098161962936865E+002	1.2582794E+000	-1.1064836E-004
3	0	4.103161962810555E+002	1.2579118E+000	2.2950437E-005
3	0	4.108161962684244E+002	1.2576251E+000	-3.4306191E-005
3	0	4.113161962557933E+002	1.2574127E+000	6.1121522E-005
3	0	4.118161962431623E+002	1.2572080E+000	-7.2477276E-005
3	0	4.123161962305312E+002	1.2569977E+000	-1.6790499E-004
3	0	4.128161962179001E+002	1.2567968E+000	-7.2477276E-005
3	0	4.133161962052691E+002	1.2565690E+000	-9.1562819E-005
3	0	4.138161961926380E+002	1.2562912E+000	-5.3391734E-005
3	0	4.143161961800070E+002	1.2559512E+000	-9.1562819E-005
3	0	4.148161961673759E+002	1.2556765E+000	-1.1064836E-004
3	0	4.153161961547448E+002	1.2554646E+000	-5.3391734E-005
3	0	4.158161961421138E+002	1.2552568E+000	-3.4306191E-005
3	0	4.163161961294827E+002	1.2550346E+000	-3.4306191E-005
3	0	4.168161961168516E+002	1.2548181E+000	8.0207064E-005
3	0	4.173161961042206E+002	1.2545791E+000	-7.2477276E-005
3	0	4.178161960915895E+002	1.2542628E+000	-1.2973390E-004
3	0	4.183161960789585E+002	1.2538862E+000	-5.3391734E-005
3	0	4.188161960663274E+002	1.2535814E+000	-1.5220648E-005
3	0	4.193161960536963E+002	1.2533293E+000	3.8648941E-006
3	0	4.198161960410653E+002	1.2530819E+000	-1.1064836E-004
3	0	4.203161960284342E+002	1.2528241E+000	-1.1064836E-004
3	0	4.208161960158031E+002	1.2525798E+000	-3.4306191E-005
3	0	4.213161960031721E+002	1.2523284E+000	-7.2477276E-005
3	0	4.213517960022727E+002	1.2521679E+000	-5.3391734E-005