EC-Lab ASCII FILE
Nb header lines : 55                          

Open Circuit Voltage

Run on channel : 1 (SN 81504)
User : 
CE vs. WE compliance from -10 V to 10 V
Electrode connection : standard
Potential control : Ewe
Ewe ctrl range : min = -2.50 V, max = 2.50 V
Safety Limits :
	Do not start on E overload
Acquisition started on : 05/07/2026 19:49:57.838
Loaded Setting File :  C:\PEM-WE_measurements\2026\372_IV_IV IrOx, 5 min Pt, 30 min C, etched cathode\new station\Loopeis new\1,46 V different time gaps open cell\Loopeis 1,46V_90s_5_PEIS from 65Hz to 10Hz.mps
Saved on :
	File : L_20_Loopeis 1,46V_90s_5_PEIS from 65Hz to 10Hz_04_OCV_C01.mpr
	Directory : C:\PEM-WE_measurements\2026\372_IV_IV IrOx, 5 min Pt, 30 min C, etched cathode\new station\Loopeis new\1,46 V different time gaps open cell\
	Host : 192.168.0.2
Device : SP-150e (SN .005491)
Address : 192.168.0.91
EC-LAB for windows v11.71 (software)
Internet server v28.00 (firmware)
Command interpretor v14.01 (firmware)
Electrode material : 
Initial state : 
Electrolyte : 
Comments : 
Current amplifier : SP-150eB-20A
Electrode surface area : 0.001 cm²
Characteristic mass : 0.001 g
Equivalent Weight : 0.000 g/eq.
Density : 0.000 g/cm3
Volume (V) : 0.001 cm³
Record Analogic IN 1
Text export
   Mode : Standard
   Time format : Elapsed
Cycle Definition : Charge/Discharge alternance
External device configuration :
   device type : Temperature Probe
   device name : Other
   Analog IN 1 : 
      unit : T/Â°C
      max : 100.000 at 2.000 V
      min : 0.000 at 1.460 V
tR (h:m:s)          0:01:30.0000        
dER/dt (mV/h)       1.0                 
record              <Ewe>               
dER (mV)            10.00               
dtR (s)             0.5000              
E range min (V)     -2.500              
E range max (V)     2.500               

mode	error	time/s	<Ewe/V>	Analog IN 1/V	
3	0	6.216466196693364E+002	1.2662684E+000	-2.7038031E+002
3	0	6.221466196567053E+002	1.2568618E+000	-2.7037326E+002
3	0	6.226466196440742E+002	1.1931827E+000	-2.7036267E+002
3	0	6.231466196314432E+002	1.0229139E+000	-2.7038031E+002
3	0	6.236466196188121E+002	5.4327363E-001	-2.7035913E+002
3	0	6.241466196061810E+002	3.6752203E-001	-2.7037326E+002
3	0	6.246466195935500E+002	3.4354052E-001	-2.7038385E+002
3	0	6.251466195809189E+002	3.3430055E-001	-2.7039447E+002
3	0	6.256466195682879E+002	3.2701716E-001	-2.7038031E+002
3	0	6.261466195556568E+002	3.2155606E-001	-2.7037326E+002
3	0	6.266466195430257E+002	3.1750295E-001	-2.7038742E+002
3	0	6.271466195303947E+002	3.1441391E-001	-2.7036972E+002
3	0	6.276466195177636E+002	3.1198826E-001	-2.7038742E+002
3	0	6.281466195051325E+002	3.1001073E-001	-2.7037326E+002
3	0	6.286466194925015E+002	3.0836648E-001	-2.7039093E+002
3	0	6.291466194798704E+002	3.0693945E-001	-2.7036267E+002
3	0	6.296466194672394E+002	3.0567014E-001	-2.7037677E+002
3	0	6.301466194546083E+002	3.0454981E-001	-2.7040155E+002
3	0	6.306466194419772E+002	3.0356422E-001	-2.7036267E+002
3	0	6.311466194293462E+002	3.0266637E-001	-2.7038031E+002
3	0	6.316466194167151E+002	3.0182189E-001	-2.7034143E+002
3	0	6.321466194040840E+002	3.0102560E-001	-2.7037677E+002
3	0	6.326466193914530E+002	3.0027369E-001	-2.7038742E+002
3	0	6.331466193788219E+002	2.9953742E-001	-2.7038742E+002
3	0	6.336466193661909E+002	2.9881454E-001	-2.7037326E+002
3	0	6.341466193535598E+002	2.9813290E-001	-2.7038031E+002
3	0	6.346466193409287E+002	2.9748976E-001	-2.7039093E+002
3	0	6.351466193282977E+002	2.9687577E-001	-2.7039093E+002
3	0	6.356466193156666E+002	2.9626277E-001	-2.7037326E+002
3	0	6.361466193030356E+002	2.9566905E-001	-2.7038031E+002
3	0	6.366466192904045E+002	2.9508206E-001	-2.7036267E+002
3	0	6.371466192777734E+002	2.9448637E-001	-2.7039093E+002
3	0	6.376466192651424E+002	2.9387856E-001	-2.7039447E+002
3	0	6.381466192525113E+002	2.9329383E-001	-2.7039093E+002
3	0	6.386466192398802E+002	2.9274136E-001	-2.7038385E+002
3	0	6.391466192272492E+002	2.9219443E-001	-2.7036972E+002
3	0	6.396466192146181E+002	2.9164481E-001	-2.7036618E+002
3	0	6.401466192019871E+002	2.9110277E-001	-2.7038031E+002
3	0	6.406466191893560E+002	2.9056484E-001	-2.7039447E+002
3	0	6.411466191767249E+002	2.9001704E-001	-2.7037326E+002
3	0	6.416466191640939E+002	2.8945419E-001	-2.7039801E+002
3	0	6.421466191514628E+002	2.8891593E-001	-2.7037326E+002
3	0	6.426466191388317E+002	2.8840974E-001	-2.7036267E+002
3	0	6.431466191262007E+002	2.8790298E-001	-2.7037677E+002
3	0	6.436466191135696E+002	2.8740340E-001	-2.7035913E+002
3	0	6.441466191009386E+002	2.8690603E-001	-2.7037326E+002
3	0	6.446466190883075E+002	2.8640524E-001	-2.7036267E+002
3	0	6.451466190756764E+002	2.8589213E-001	-2.7037677E+002
3	0	6.456466190630454E+002	2.8537184E-001	-2.7039447E+002
3	0	6.461466190504143E+002	2.8486672E-001	-2.7036618E+002
3	0	6.466466190377832E+002	2.8439310E-001	-2.7037677E+002
3	0	6.471466190251522E+002	2.8392565E-001	-2.7036972E+002
3	0	6.476466190125211E+002	2.8345114E-001	-2.7037677E+002
3	0	6.481466189998901E+002	2.8298602E-001	-2.7039093E+002
3	0	6.486466189872590E+002	2.8252107E-001	-2.7039093E+002
3	0	6.491466189746279E+002	2.8205127E-001	-2.7036972E+002
3	0	6.496466189619969E+002	2.8155687E-001	-2.7039093E+002
3	0	6.501466189493658E+002	2.8108197E-001	-2.7036972E+002
3	0	6.506466189367347E+002	2.8064305E-001	-2.7038742E+002
3	0	6.511466189241037E+002	2.8020144E-001	-2.7038742E+002
3	0	6.516466189114726E+002	2.7976742E-001	-2.7038742E+002
3	0	6.521466188988416E+002	2.7933782E-001	-2.7036618E+002
3	0	6.526466188862105E+002	2.7890718E-001	-2.7036972E+002
3	0	6.531466188735794E+002	2.7846214E-001	-2.7040155E+002
3	0	6.536466188609484E+002	2.7800134E-001	-2.7038031E+002
3	0	6.541466188483173E+002	2.7756223E-001	-2.7036267E+002
3	0	6.546466188356862E+002	2.7715737E-001	-2.7037326E+002
3	0	6.551466188230552E+002	2.7675846E-001	-2.7035913E+002
3	0	6.556466188104241E+002	2.7634877E-001	-2.7035559E+002
3	0	6.561466187977931E+002	2.7595285E-001	-2.7038385E+002
3	0	6.566466187851620E+002	2.7554888E-001	-2.7037326E+002
3	0	6.571466187725309E+002	2.7512670E-001	-2.7039093E+002
3	0	6.576466187598999E+002	2.7470744E-001	-2.7039447E+002
3	0	6.581466187472688E+002	2.7430215E-001	-2.7036618E+002
3	0	6.586466187346377E+002	2.7392912E-001	-2.7037326E+002
3	0	6.591466187220067E+002	2.7355984E-001	-2.7040155E+002
3	0	6.596466187093756E+002	2.7318764E-001	-2.7036267E+002
3	0	6.601466186967446E+002	2.7281374E-001	-2.7035559E+002
3	0	6.606466186841135E+002	2.7244404E-001	-2.7037326E+002
3	0	6.611466186714824E+002	2.7206790E-001	-2.7036618E+002
3	0	6.616466186588514E+002	2.7166682E-001	-2.7037677E+002
3	0	6.621466186462203E+002	2.7129424E-001	-2.7038742E+002
3	0	6.626466186335892E+002	2.7095336E-001	-2.7038031E+002
3	0	6.631466186209582E+002	2.7061161E-001	-2.7037677E+002
3	0	6.636466186083271E+002	2.7026430E-001	-2.7040155E+002
3	0	6.641466185956961E+002	2.6992819E-001	-2.7036972E+002
3	0	6.646466185830650E+002	2.6959884E-001	-2.7038742E+002
3	0	6.651466185704339E+002	2.6925319E-001	-2.7036618E+002
3	0	6.656466185578029E+002	2.6888505E-001	-2.7035913E+002
3	0	6.661466185451718E+002	2.6853713E-001	-2.7038742E+002
3	0	6.666466185325407E+002	2.6822573E-001	-2.7038385E+002
3	0	6.671466185199097E+002	2.6791683E-001	-2.7037326E+002
3	0	6.676466185072786E+002	2.6760313E-001	-2.7036972E+002
3	0	6.681466184946476E+002	2.6729217E-001	-2.7039801E+002
3	0	6.686466184820165E+002	2.6698083E-001	-2.7038742E+002
3	0	6.691466184693854E+002	2.6665607E-001	-2.7039093E+002
3	0	6.696466184567544E+002	2.6631314E-001	-2.7037326E+002
3	0	6.701466184441233E+002	2.6599759E-001	-2.7036618E+002
3	0	6.706466184314922E+002	2.6571557E-001	-2.7037677E+002
3	0	6.711466184188612E+002	2.6543173E-001	-2.7036618E+002
3	0	6.716466184062301E+002	2.6514396E-001	-2.7041919E+002
3	0	6.721466183935991E+002	2.6486039E-001	-2.7038742E+002
3	0	6.726466183809680E+002	2.6458406E-001	-2.7037326E+002
3	0	6.731466183683369E+002	2.6428622E-001	-2.7037677E+002
3	0	6.736466183557059E+002	2.6397449E-001	-2.7038385E+002
3	0	6.741466183430748E+002	2.6368573E-001	-2.7040155E+002
3	0	6.746466183304437E+002	2.6342723E-001	-2.7040506E+002
3	0	6.751466183178127E+002	2.6317483E-001	-2.7037677E+002
3	0	6.756466183051816E+002	2.6291430E-001	-2.7039801E+002
3	0	6.761466182925506E+002	2.6265690E-001	-2.7038385E+002
3	0	6.766466182799195E+002	2.6240048E-001	-2.7036972E+002
3	0	6.771466182672884E+002	2.6212835E-001	-2.7036267E+002
3	0	6.776466182546574E+002	2.6183286E-001	-2.7040155E+002
3	0	6.781466182420263E+002	2.6156700E-001	-2.7036972E+002
3	0	6.786466182293952E+002	2.6133007E-001	-2.7036618E+002
3	0	6.791466182167642E+002	2.6109207E-001	-2.7040506E+002
3	0	6.796466182041331E+002	2.6085263E-001	-2.7037677E+002
3	0	6.801466181915021E+002	2.6062119E-001	-2.7035559E+002
3	0	6.806466181788710E+002	2.6037642E-001	-2.7036618E+002
3	0	6.811466181662399E+002	2.6012138E-001	-2.7039447E+002
3	0	6.816466181536089E+002	2.5985548E-001	-2.7036972E+002
3	0	6.821466181409778E+002	2.5961116E-001	-2.7039447E+002
3	0	6.826466181283467E+002	2.5940135E-001	-2.7037677E+002
3	0	6.831466181157157E+002	2.5919354E-001	-2.7037677E+002
3	0	6.836466181030846E+002	2.5897983E-001	-2.7037326E+002
3	0	6.841466180904536E+002	2.5876912E-001	-2.7037677E+002
3	0	6.846466180778225E+002	2.5854883E-001	-2.7038742E+002
3	0	6.851466180651914E+002	2.5831974E-001	-2.7039447E+002
3	0	6.856466180525604E+002	2.5806943E-001	-2.7035913E+002
3	0	6.861466180399293E+002	2.5784981E-001	-2.7037677E+002
3	0	6.866466180272982E+002	2.5765297E-001	-2.7038742E+002
3	0	6.871466180146672E+002	2.5745961E-001	-2.7037326E+002
3	0	6.876466180020361E+002	2.5726822E-001	-2.7039447E+002
3	0	6.881466179894051E+002	2.5707620E-001	-2.7039093E+002
3	0	6.886466179767740E+002	2.5687924E-001	-2.7036972E+002
3	0	6.891466179641429E+002	2.5666645E-001	-2.7037326E+002
3	0	6.896466179515119E+002	2.5644109E-001	-2.7037677E+002
3	0	6.901466179388808E+002	2.5623730E-001	-2.7038742E+002
3	0	6.906466179262497E+002	2.5606525E-001	-2.7039093E+002
3	0	6.911466179136187E+002	2.5589025E-001	-2.7036267E+002
3	0	6.916466179009876E+002	2.5571218E-001	-2.7036972E+002
3	0	6.921466178883566E+002	2.5553888E-001	-2.7040506E+002
3	0	6.926466178757255E+002	2.5535992E-001	-2.7038742E+002
3	0	6.931466178630944E+002	2.5516430E-001	-2.7039801E+002
3	0	6.936466178504634E+002	2.5495136E-001	-2.7038031E+002
3	0	6.941466178378323E+002	2.5476179E-001	-2.7038742E+002
3	0	6.946466178252012E+002	2.5460258E-001	-2.7036267E+002
3	0	6.951466178125702E+002	2.5444430E-001	-2.7036972E+002
3	0	6.956466177999391E+002	2.5428721E-001	-2.7037677E+002
3	0	6.961466177873081E+002	2.5413114E-001	-2.7038742E+002
3	0	6.966466177746770E+002	2.5397047E-001	-2.7040155E+002
3	0	6.971466177620459E+002	2.5378346E-001	-2.7037677E+002
3	0	6.976466177494149E+002	2.5358608E-001	-2.7035913E+002
3	0	6.981466177367838E+002	2.5339881E-001	-2.7039093E+002
3	0	6.986466177241527E+002	2.5324440E-001	-2.7034851E+002
3	0	6.991466177115217E+002	2.5310180E-001	-2.7039801E+002
3	0	6.996466176988906E+002	2.5295496E-001	-2.7040506E+002
3	0	7.001466176862596E+002	2.5279918E-001	-2.7034851E+002
3	0	7.006466176736285E+002	2.5264528E-001	-2.7037677E+002
3	0	7.011466176609974E+002	2.5247476E-001	-2.7037677E+002
3	0	7.016466176483664E+002	2.5228253E-001	-2.7040155E+002
3	0	7.021466176357353E+002	2.5211516E-001	-2.7036618E+002
3	0	7.026466176231042E+002	2.5198337E-001	-2.7039093E+002
3	0	7.031466176104732E+002	2.5185063E-001	-2.7037326E+002
3	0	7.036466175978421E+002	2.5171289E-001	-2.7039093E+002
3	0	7.041466175852111E+002	2.5157696E-001	-2.7037326E+002
3	0	7.046466175725800E+002	2.5143531E-001	-2.7035559E+002
3	0	7.051466175599489E+002	2.5127804E-001	-2.7038031E+002
3	0	7.056466175473179E+002	2.5110775E-001	-2.7036267E+002
3	0	7.061466175346868E+002	2.5095040E-001	-2.7035913E+002
3	0	7.066466175220557E+002	2.5083068E-001	-2.7039093E+002
3	0	7.071466175094247E+002	2.5071093E-001	-2.7036267E+002
3	0	7.076466174967936E+002	2.5058883E-001	-2.7038385E+002
3	0	7.081466174841626E+002	2.5047186E-001	-2.7039093E+002
3	0	7.086466174715315E+002	2.5034350E-001	-2.7040860E+002
3	0	7.091466174589004E+002	2.5019670E-001	-2.7040506E+002
3	0	7.096466174462694E+002	2.5003102E-001	-2.7037326E+002
3	0	7.101466174336383E+002	2.4988534E-001	-2.7039093E+002
3	0	7.106466174210073E+002	2.4977340E-001	-2.7039447E+002
3	0	7.111466174083762E+002	2.4966004E-001	-2.7036618E+002
3	0	7.111700174077851E+002	2.4961123E-001	-2.7039801E+002