EC-Lab ASCII FILE
Nb header lines : 56                          

Open Circuit Voltage

Run on channel : 1 (SN 81504)
User : 
CE vs. WE compliance from -10 V to 10 V
Electrode connection : standard
Potential control : Ewe
Ewe ctrl range : min = -2.50 V, max = 2.50 V
Safety Limits :
	Do not start on E overload
Acquisition started on : 05/10/2026 01:50:34.027
Loaded Setting File :  C:\PEM-WE_measurements\2026\372_IV_IV IrOx, 5 min Pt, 30 min C, etched cathode\new station\Loopeis new\1,46 V different time gaps closed cell\Loopeis 1,46V_60s_1_initial_loops.mps
Saved on :
	File : L_11_Loopeis 1,46V_60s_1_initial_loops_02_OCV_C01.mpr
	Directory : C:\PEM-WE_measurements\2026\372_IV_IV IrOx, 5 min Pt, 30 min C, etched cathode\new station\Loopeis new\1,46 V different time gaps closed cell\
	Host : 192.168.0.2
Device : SP-150e (SN .005491)
Address : 192.168.0.91
EC-LAB for windows v11.71 (software)
Internet server v28.00 (firmware)
Command interpretor v14.01 (firmware)
Electrode material : 
Initial state : 
Electrolyte : 
Comments : 
Current amplifier : SP-150eB-20A
Electrode surface area : 0.000 cm²
Characteristic mass : 0.001 g
Equivalent Weight : 0.000 g/eq.
Density : 0.000 g/cm3
Volume (V) : 0.001 cm³
Record Analogic IN 1
Record energy
Text export
   Mode : Standard
   Time format : Elapsed
Cycle Definition : Charge/Discharge alternance
External device configuration :
   device type : Temperature Probe
   device name : Other
   Analog IN 1 : 
      unit : T/Â°C
      max : 100.000 at 2.000 V
      min : 0.000 at 1.460 V
tR (h:m:s)          0:01:0.0000         
dER/dt (mV/h)       1.0                 
record              <Ewe>               
dER (mV)            10.00               
dtR (s)             0.5000              
E range min (V)     -2.500              
E range max (V)     2.500               

mode	error	time/s	<Ewe/V>	Analog IN 1/V	
3	0	4.549979885057837E+001	1.4186423E+000	-2.7038031E+002
3	0	4.599979883794731E+001	1.4103190E+000	-2.7036618E+002
3	0	4.649979882531625E+001	1.4047059E+000	-2.7038031E+002
3	0	4.699979881268519E+001	1.4006094E+000	-2.7038385E+002
3	0	4.749979880005412E+001	1.3973521E+000	-2.7035559E+002
3	0	4.799979878742306E+001	1.3946398E+000	-2.7036267E+002
3	0	4.849979877479200E+001	1.3922738E+000	-2.7039447E+002
3	0	4.899979876216094E+001	1.3901206E+000	-2.7039447E+002
3	0	4.949979874952987E+001	1.3881050E+000	-2.7038742E+002
3	0	4.999979873689881E+001	1.3863021E+000	-2.7038031E+002
3	0	5.049979872426775E+001	1.3846947E+000	-2.7038031E+002
3	0	5.099979871163669E+001	1.3832221E+000	-2.7038031E+002
3	0	5.149979869900562E+001	1.3818527E+000	-2.7038385E+002
3	0	5.199979868637456E+001	1.3805836E+000	-2.7038385E+002
3	0	5.249979867374350E+001	1.3793769E+000	-2.7038742E+002
3	0	5.299979866111244E+001	1.3781693E+000	-2.7037326E+002
3	0	5.349979864848137E+001	1.3769614E+000	-2.7036972E+002
3	0	5.399979863585031E+001	1.3758720E+000	-2.7037326E+002
3	0	5.449979862321925E+001	1.3748728E+000	-2.7034851E+002
3	0	5.499979861058819E+001	1.3739259E+000	-2.7036972E+002
3	0	5.549979859795712E+001	1.3730210E+000	-2.7037677E+002
3	0	5.599979858532606E+001	1.3721558E+000	-2.7038031E+002
3	0	5.649979857269500E+001	1.3713118E+000	-2.7037326E+002
3	0	5.699979856006394E+001	1.3704393E+000	-2.7038031E+002
3	0	5.749979854743287E+001	1.3695335E+000	-2.7037677E+002
3	0	5.799979853480181E+001	1.3687145E+000	-2.7038742E+002
3	0	5.849979852217075E+001	1.3679724E+000	-2.7036972E+002
3	0	5.899979850953969E+001	1.3672639E+000	-2.7038385E+002
3	0	5.949979849690862E+001	1.3665897E+000	-2.7037326E+002
3	0	5.999979848427756E+001	1.3659515E+000	-2.7037677E+002
3	0	6.049979847164650E+001	1.3653203E+000	-2.7038385E+002
3	0	6.099979845901544E+001	1.3646584E+000	-2.7038031E+002
3	0	6.149979844638438E+001	1.3639498E+000	-2.7039093E+002
3	0	6.199979843375331E+001	1.3633296E+000	-2.7036972E+002
3	0	6.249979842112225E+001	1.3627715E+000	-2.7036972E+002
3	0	6.299979840849119E+001	1.3622427E+000	-2.7038385E+002
3	0	6.349979839586013E+001	1.3617549E+000	-2.7037677E+002
3	0	6.399979838322906E+001	1.3613436E+000	-2.7036618E+002
3	0	6.449979837059800E+001	1.3610140E+000	-2.7038385E+002
3	0	6.499979835796694E+001	1.3606335E+000	-2.7041568E+002
3	0	6.549979834533588E+001	1.3601698E+000	-2.7038385E+002
3	0	6.599979833270481E+001	1.3597592E+000	-2.7040506E+002
3	0	6.649979832007375E+001	1.3593415E+000	-2.7035205E+002
3	0	6.699979830744269E+001	1.3589115E+000	-2.7036618E+002
3	0	6.749979829481163E+001	1.3584707E+000	-2.7037677E+002
3	0	6.799979828218056E+001	1.3580167E+000	-2.7035913E+002
3	0	6.849979826954950E+001	1.3575443E+000	-2.7038385E+002
3	0	6.899979825691844E+001	1.3570102E+000	-2.7037326E+002
3	0	6.949979824428738E+001	1.3564162E+000	-2.7036972E+002
3	0	6.999979823165631E+001	1.3558962E+000	-2.7036972E+002
3	0	7.049979821902525E+001	1.3554101E+000	-2.7038385E+002
3	0	7.099979820639419E+001	1.3549426E+000	-2.7037677E+002
3	0	7.149979819376313E+001	1.3544811E+000	-2.7037326E+002
3	0	7.199979818113206E+001	1.3540264E+000	-2.7039093E+002
3	0	7.249979816850100E+001	1.3535352E+000	-2.7036618E+002
3	0	7.299979815586994E+001	1.3529909E+000	-2.7038742E+002
3	0	7.349979814323888E+001	1.3523945E+000	-2.7038031E+002
3	0	7.399979813060781E+001	1.3518714E+000	-2.7038031E+002
3	0	7.449979811797675E+001	1.3513845E+000	-2.7039801E+002
3	0	7.499979810534569E+001	1.3509088E+000	-2.7039801E+002
3	0	7.549979809271463E+001	1.3504426E+000	-2.7040155E+002
3	0	7.599979808008356E+001	1.3499529E+000	-2.7037677E+002
3	0	7.649979806745250E+001	1.3494167E+000	-2.7039447E+002
3	0	7.699979805482144E+001	1.3488724E+000	-2.7036267E+002
3	0	7.749979804219038E+001	1.3482894E+000	-2.7033789E+002
3	0	7.799979802955932E+001	1.3477882E+000	-2.7036972E+002
3	0	7.849979801692825E+001	1.3473107E+000	-2.7039447E+002
3	0	7.899979800429719E+001	1.3468382E+000	-2.7038031E+002
3	0	7.949979799166613E+001	1.3463863E+000	-2.7038385E+002
3	0	7.999979797903507E+001	1.3459475E+000	-2.7035913E+002
3	0	8.049979796640400E+001	1.3455153E+000	-2.7036267E+002
3	0	8.099979795377294E+001	1.3450141E+000	-2.7037677E+002
3	0	8.149979794114188E+001	1.3444676E+000	-2.7037677E+002
3	0	8.199979792851082E+001	1.3440139E+000	-2.7037326E+002
3	0	8.249979791587975E+001	1.3435858E+000	-2.7036972E+002
3	0	8.299979790324869E+001	1.3431653E+000	-2.7038742E+002
3	0	8.349979789061763E+001	1.3427590E+000	-2.7038385E+002
3	0	8.399979787798657E+001	1.3423439E+000	-2.7035913E+002
3	0	8.449979786535550E+001	1.3419255E+000	-2.7036618E+002
3	0	8.499979785272444E+001	1.3414497E+000	-2.7036618E+002
3	0	8.549979784009338E+001	1.3409210E+000	-2.7038742E+002
3	0	8.599979782746232E+001	1.3404725E+000	-2.7038742E+002
3	0	8.649979781483125E+001	1.3400578E+000	-2.7036267E+002
3	0	8.699979780220019E+001	1.3396469E+000	-2.7040506E+002
3	0	8.749979778956913E+001	1.3392426E+000	-2.7038385E+002
3	0	8.799979777693807E+001	1.3388425E+000	-2.7038031E+002
3	0	8.849979776430700E+001	1.3384141E+000	-2.7038385E+002
3	0	8.899979775167594E+001	1.3379235E+000	-2.7038031E+002
3	0	8.949979773904488E+001	1.3373809E+000	-2.7036267E+002
3	0	8.999979772641382E+001	1.3369279E+000	-2.7035205E+002
3	0	9.049979771378275E+001	1.3364897E+000	-2.7038385E+002
3	0	9.099979770115169E+001	1.3360485E+000	-2.7038385E+002
3	0	9.149979768852063E+001	1.3356291E+000	-2.7036972E+002
3	0	9.199979767588957E+001	1.3352048E+000	-2.7039801E+002
3	0	9.249979766325851E+001	1.3347564E+000	-2.7038742E+002
3	0	9.299979765062744E+001	1.3342450E+000	-2.7036972E+002
3	0	9.349979763799638E+001	1.3336827E+000	-2.7038031E+002
3	0	9.399979762536532E+001	1.3332057E+000	-2.7039093E+002
3	0	9.449979761273426E+001	1.3327484E+000	-2.7040506E+002
3	0	9.499979760010319E+001	1.3322825E+000	-2.7036267E+002
3	0	9.549979758747213E+001	1.3318301E+000	-2.7037677E+002
3	0	9.599979757484107E+001	1.3313769E+000	-2.7038031E+002
3	0	9.649979756221001E+001	1.3309047E+000	-2.7040506E+002
3	0	9.699979754957894E+001	1.3303771E+000	-2.7036618E+002
3	0	9.749979753694788E+001	1.3297868E+000	-2.7038031E+002
3	0	9.799979752431682E+001	1.3293011E+000	-2.7038385E+002
3	0	9.849979751168576E+001	1.3288264E+000	-2.7038031E+002
3	0	9.899979749905469E+001	1.3283664E+000	-2.7036972E+002
3	0	9.949979748642363E+001	1.3279204E+000	-2.7040506E+002
3	0	9.999979747379257E+001	1.3274863E+000	-2.7036972E+002
3	0	1.004997974611615E+002	1.3270380E+000	-2.7036267E+002
3	0	1.009997974485304E+002	1.3265449E+000	-2.7037326E+002
3	0	1.014997974358994E+002	1.3260053E+000	-2.7035559E+002
3	0	1.019997974232683E+002	1.3255500E+000	-2.7038031E+002
3	0	1.024997974106373E+002	1.3251117E+000	-2.7039801E+002
3	0	1.029997973980062E+002	1.3246787E+000	-2.7037677E+002
3	0	1.034997973853751E+002	1.3242571E+000	-2.7036618E+002
3	0	1.039997973727441E+002	1.3238404E+000	-2.7037326E+002
3	0	1.044997973601130E+002	1.3234036E+000	-2.7038742E+002
3	0	1.049997973474819E+002	1.3229238E+000	-2.7036267E+002
3	0	1.050001973474718E+002	1.3226393E+000	-2.7041214E+002
3	0	1.505007961980300E+002	1.4185103E+000	-2.7036618E+002
3	0	1.510007961853989E+002	1.4102106E+000	-2.7038742E+002
3	0	1.515007961727679E+002	1.4045956E+000	-2.7038742E+002
3	0	1.520007961601368E+002	1.4004791E+000	-2.7035913E+002
3	0	1.525007961475058E+002	1.3971895E+000	-2.7038742E+002
3	0	1.530007961348747E+002	1.3943548E+000	-2.7039447E+002
3	0	1.535007961222436E+002	1.3918271E+000	-2.7038385E+002
3	0	1.540007961096126E+002	1.3896426E+000	-2.7035913E+002
3	0	1.545007960969815E+002	1.3877101E+000	-2.7038031E+002
3	0	1.550007960843504E+002	1.3859389E+000	-2.7039801E+002
3	0	1.555007960717194E+002	1.3843256E+000	-2.7037326E+002
3	0	1.560007960590883E+002	1.3828198E+000	-2.7037677E+002
3	0	1.565007960464573E+002	1.3813884E+000	-2.7038031E+002
3	0	1.570007960338262E+002	1.3799927E+000	-2.7036618E+002
3	0	1.575007960211951E+002	1.3786154E+000	-2.7038742E+002
3	0	1.580007960085641E+002	1.3773701E+000	-2.7038742E+002
3	0	1.585007959959330E+002	1.3762246E+000	-2.7037677E+002
3	0	1.590007959833019E+002	1.3751451E+000	-2.7036972E+002
3	0	1.595007959706709E+002	1.3741361E+000	-2.7038742E+002
3	0	1.600007959580398E+002	1.3731784E+000	-2.7036618E+002
3	0	1.605007959454088E+002	1.3721780E+000	-2.7036618E+002
3	0	1.610007959327777E+002	1.3712047E+000	-2.7040860E+002
3	0	1.615007959201466E+002	1.3702893E+000	-2.7037677E+002
3	0	1.620007959075156E+002	1.3694850E+000	-2.7037326E+002
3	0	1.625007958948845E+002	1.3687484E+000	-2.7037677E+002
3	0	1.630007958822534E+002	1.3680513E+000	-2.7038742E+002
3	0	1.635007958696224E+002	1.3673633E+000	-2.7036267E+002
3	0	1.640007958569913E+002	1.3667146E+000	-2.7040155E+002
3	0	1.645007958443603E+002	1.3660778E+000	-2.7036267E+002
3	0	1.650007958317292E+002	1.3653944E+000	-2.7041214E+002
3	0	1.655007958190981E+002	1.3646699E+000	-2.7038385E+002
3	0	1.660007958064671E+002	1.3640440E+000	-2.7036618E+002
3	0	1.665007957938360E+002	1.3634838E+000	-2.7038031E+002
3	0	1.670007957812049E+002	1.3629452E+000	-2.7036618E+002
3	0	1.675007957685739E+002	1.3624035E+000	-2.7037677E+002
3	0	1.680007957559428E+002	1.3618975E+000	-2.7037326E+002
3	0	1.685007957433118E+002	1.3613570E+000	-2.7038385E+002
3	0	1.690007957306807E+002	1.3607800E+000	-2.7038031E+002
3	0	1.695007957180496E+002	1.3601550E+000	-2.7038031E+002
3	0	1.700007957054186E+002	1.3596083E+000	-2.7037326E+002
3	0	1.705007956927875E+002	1.3591295E+000	-2.7039447E+002
3	0	1.710007956801564E+002	1.3586667E+000	-2.7037326E+002
3	0	1.715007956675254E+002	1.3582017E+000	-2.7036618E+002
3	0	1.720007956548943E+002	1.3577389E+000	-2.7036618E+002
3	0	1.725007956422633E+002	1.3572609E+000	-2.7038031E+002
3	0	1.730007956296322E+002	1.3567251E+000	-2.7038385E+002
3	0	1.735007956170011E+002	1.3561339E+000	-2.7036972E+002
3	0	1.740007956043701E+002	1.3556367E+000	-2.7036267E+002
3	0	1.745007955917390E+002	1.3551966E+000	-2.7040506E+002
3	0	1.750007955791079E+002	1.3547645E+000	-2.7036972E+002
3	0	1.755007955664769E+002	1.3543226E+000	-2.7036618E+002
3	0	1.760007955538458E+002	1.3538873E+000	-2.7036267E+002
3	0	1.765007955412148E+002	1.3534349E+000	-2.7036972E+002
3	0	1.770007955285837E+002	1.3529148E+000	-2.7034851E+002
3	0	1.775007955159526E+002	1.3523433E+000	-2.7034851E+002
3	0	1.780007955033216E+002	1.3518668E+000	-2.7038031E+002
3	0	1.785007954906905E+002	1.3514429E+000	-2.7040155E+002
3	0	1.790007954780594E+002	1.3510270E+000	-2.7037326E+002
3	0	1.795007954654284E+002	1.3506168E+000	-2.7034851E+002
3	0	1.800007954527973E+002	1.3502173E+000	-2.7038742E+002
3	0	1.805007954401663E+002	1.3498017E+000	-2.7037677E+002
3	0	1.810007954275352E+002	1.3493283E+000	-2.7039447E+002
3	0	1.815007954149041E+002	1.3487995E+000	-2.7037677E+002
3	0	1.820007954022731E+002	1.3483506E+000	-2.7038742E+002
3	0	1.825007953896420E+002	1.3479589E+000	-2.7040860E+002
3	0	1.830007953770109E+002	1.3475677E+000	-2.7038742E+002
3	0	1.835007953643799E+002	1.3471876E+000	-2.7038742E+002
3	0	1.840007953517488E+002	1.3468062E+000	-2.7035913E+002
3	0	1.845007953391178E+002	1.3463987E+000	-2.7035559E+002
3	0	1.850007953264867E+002	1.3459334E+000	-2.7037677E+002
3	0	1.855007953138556E+002	1.3454182E+000	-2.7037326E+002
3	0	1.860007953012246E+002	1.3449808E+000	-2.7039801E+002
3	0	1.865007952885935E+002	1.3445848E+000	-2.7038031E+002
3	0	1.870007952759624E+002	1.3441970E+000	-2.7039093E+002
3	0	1.875007952633314E+002	1.3438044E+000	-2.7037677E+002
3	0	1.880007952507003E+002	1.3434222E+000	-2.7037677E+002
3	0	1.885007952380693E+002	1.3430092E+000	-2.7038742E+002
3	0	1.890007952254382E+002	1.3425393E+000	-2.7037326E+002
3	0	1.895007952128071E+002	1.3420142E+000	-2.7038385E+002
3	0	1.900007952001761E+002	1.3415732E+000	-2.7038031E+002
3	0	1.905007951875450E+002	1.3411745E+000	-2.7036267E+002
3	0	1.910007951749139E+002	1.3407810E+000	-2.7038385E+002
3	0	1.915007951622829E+002	1.3403786E+000	-2.7037677E+002
3	0	1.920007951496518E+002	1.3399789E+000	-2.7038031E+002
3	0	1.925007951370208E+002	1.3395561E+000	-2.7036267E+002
3	0	1.930007951243897E+002	1.3390820E+000	-2.7038031E+002
3	0	1.935007951117586E+002	1.3385417E+000	-2.7037677E+002
3	0	1.940007950991276E+002	1.3380876E+000	-2.7035559E+002
3	0	1.945007950864965E+002	1.3376831E+000	-2.7039801E+002
3	0	1.950007950738654E+002	1.3372861E+000	-2.7039093E+002
3	0	1.955007950612344E+002	1.3368835E+000	-2.7038742E+002
3	0	1.960007950486033E+002	1.3364786E+000	-2.7038385E+002
3	0	1.965007950359723E+002	1.3360472E+000	-2.7038385E+002
3	0	1.970007950233412E+002	1.3355538E+000	-2.7036972E+002
3	0	1.975007950107101E+002	1.3350037E+000	-2.7036267E+002
3	0	1.980007949980791E+002	1.3345304E+000	-2.7036618E+002
3	0	1.985007949854480E+002	1.3341217E+000	-2.7036972E+002
3	0	1.990007949728169E+002	1.3337070E+000	-2.7038385E+002
3	0	1.995007949601859E+002	1.3333025E+000	-2.7035559E+002
3	0	2.000007949475548E+002	1.3329129E+000	-2.7035913E+002
3	0	2.005007949349238E+002	1.3325100E+000	-2.7036618E+002
3	0	2.010007949222927E+002	1.3320472E+000	-2.7039093E+002
3	0	2.015007949096616E+002	1.3315417E+000	-2.7038031E+002
3	0	2.020007948970306E+002	1.3311338E+000	-2.7038385E+002
3	0	2.025007948843995E+002	1.3307838E+000	-2.7035913E+002
3	0	2.030007948717684E+002	1.3304501E+000	-2.7037677E+002
3	0	2.035007948591374E+002	1.3300890E+000	-2.7039093E+002
3	0	2.040007948465063E+002	1.3297381E+000	-2.7036972E+002
3	0	2.045007948338753E+002	1.3293846E+000	-2.7038031E+002
3	0	2.050007948212442E+002	1.3289607E+000	-2.7037326E+002
3	0	2.055007948086131E+002	1.3284748E+000	-2.7039801E+002
3	0	2.060007947959821E+002	1.3280704E+000	-2.7039093E+002
3	0	2.065007947833510E+002	1.3277242E+000	-2.7038742E+002
3	0	2.070007947707199E+002	1.3273743E+000	-2.7037677E+002
3	0	2.075007947580889E+002	1.3270144E+000	-2.7037677E+002
3	0	2.080007947454578E+002	1.3266689E+000	-2.7039801E+002
3	0	2.085007947328268E+002	1.3262851E+000	-2.7037677E+002
3	0	2.090007947201957E+002	1.3258427E+000	-2.7038031E+002
3	0	2.095007947075646E+002	1.3253407E+000	-2.7038031E+002
3	0	2.100007946949336E+002	1.3249100E+000	-2.7038385E+002
3	0	2.100011946949235E+002	1.3247004E+000	-2.7038031E+002
3	0	2.555017935454816E+002	1.4186022E+000	-2.7039447E+002
3	0	2.560017935328506E+002	1.4103494E+000	-2.7036972E+002
3	0	2.565017935202195E+002	1.4047258E+000	-2.7039447E+002
3	0	2.570017935075884E+002	1.4004850E+000	-2.7038742E+002
3	0	2.575017934949574E+002	1.3969923E+000	-2.7036618E+002
3	0	2.580017934823263E+002	1.3941013E+000	-2.7039093E+002
3	0	2.585017934696953E+002	1.3916547E+000	-2.7039093E+002
3	0	2.590017934570642E+002	1.3894950E+000	-2.7036618E+002
3	0	2.595017934444331E+002	1.3875484E+000	-2.7039447E+002
3	0	2.600017934318021E+002	1.3857810E+000	-2.7038385E+002
3	0	2.605017934191710E+002	1.3841584E+000	-2.7037326E+002
3	0	2.610017934065399E+002	1.3825854E+000	-2.7038031E+002
3	0	2.615017933939089E+002	1.3810427E+000	-2.7038385E+002
3	0	2.620017933812778E+002	1.3796751E+000	-2.7037677E+002
3	0	2.625017933686468E+002	1.3784499E+000	-2.7036267E+002
3	0	2.630017933560157E+002	1.3772935E+000	-2.7039447E+002
3	0	2.635017933433846E+002	1.3761961E+000	-2.7039447E+002
3	0	2.640017933307536E+002	1.3751687E+000	-2.7038385E+002
3	0	2.645017933181225E+002	1.3741912E+000	-2.7037677E+002
3	0	2.650017933054914E+002	1.3731837E+000	-2.7038031E+002
3	0	2.655017932928604E+002	1.3721613E+000	-2.7036618E+002
3	0	2.660017932802293E+002	1.3712512E+000	-2.7036618E+002
3	0	2.665017932675983E+002	1.3704445E+000	-2.7038385E+002
3	0	2.670017932549672E+002	1.3696824E+000	-2.7038031E+002
3	0	2.675017932423361E+002	1.3689336E+000	-2.7036972E+002
3	0	2.680017932297051E+002	1.3682377E+000	-2.7036267E+002
3	0	2.685017932170740E+002	1.3675283E+000	-2.7038031E+002
3	0	2.690017932044429E+002	1.3667792E+000	-2.7038742E+002
3	0	2.695017931918119E+002	1.3659908E+000	-2.7038385E+002
3	0	2.700017931791808E+002	1.3653060E+000	-2.7037677E+002
3	0	2.705017931665498E+002	1.3647029E+000	-2.7035559E+002
3	0	2.710017931539187E+002	1.3641008E+000	-2.7038031E+002
3	0	2.715017931412876E+002	1.3635199E+000	-2.7038031E+002
3	0	2.720017931286566E+002	1.3629543E+000	-2.7038742E+002
3	0	2.725017931160255E+002	1.3623844E+000	-2.7037326E+002
3	0	2.730017931033944E+002	1.3617648E+000	-2.7038742E+002
3	0	2.735017930907634E+002	1.3610911E+000	-2.7037677E+002
3	0	2.740017930781323E+002	1.3605204E+000	-2.7038385E+002
3	0	2.745017930655013E+002	1.3600096E+000	-2.7038031E+002
3	0	2.750017930528702E+002	1.3595030E+000	-2.7039447E+002
3	0	2.755017930402391E+002	1.3589928E+000	-2.7038385E+002
3	0	2.760017930276081E+002	1.3584991E+000	-2.7037677E+002
3	0	2.765017930149770E+002	1.3579875E+000	-2.7036267E+002
3	0	2.770017930023459E+002	1.3574229E+000	-2.7039093E+002
3	0	2.775017929897149E+002	1.3568027E+000	-2.7040155E+002
3	0	2.780017929770838E+002	1.3562640E+000	-2.7036972E+002
3	0	2.785017929644528E+002	1.3557895E+000	-2.7038385E+002
3	0	2.790017929518217E+002	1.3553329E+000	-2.7037326E+002
3	0	2.795017929391906E+002	1.3548808E+000	-2.7037326E+002
3	0	2.800017929265596E+002	1.3544395E+000	-2.7036618E+002
3	0	2.805017929139285E+002	1.3539913E+000	-2.7036972E+002
3	0	2.810017929012974E+002	1.3534833E+000	-2.7037677E+002
3	0	2.815017928886664E+002	1.3529309E+000	-2.7039447E+002
3	0	2.820017928760353E+002	1.3524749E+000	-2.7041214E+002
3	0	2.825017928634043E+002	1.3520885E+000	-2.7037677E+002
3	0	2.830017928507732E+002	1.3517082E+000	-2.7039447E+002
3	0	2.835017928381421E+002	1.3513284E+000	-2.7039093E+002
3	0	2.840017928255111E+002	1.3509530E+000	-2.7039801E+002
3	0	2.845017928128800E+002	1.3505727E+000	-2.7038742E+002
3	0	2.850017928002490E+002	1.3501341E+000	-2.7038385E+002
3	0	2.855017927876179E+002	1.3496400E+000	-2.7036618E+002
3	0	2.860017927749868E+002	1.3492236E+000	-2.7036972E+002
3	0	2.865017927623558E+002	1.3488595E+000	-2.7039801E+002
3	0	2.870017927497247E+002	1.3485053E+000	-2.7038031E+002
3	0	2.875017927370936E+002	1.3481405E+000	-2.7038742E+002
3	0	2.880017927244626E+002	1.3477758E+000	-2.7039447E+002
3	0	2.885017927118315E+002	1.3473976E+000	-2.7039447E+002
3	0	2.890017926992005E+002	1.3469605E+000	-2.7036972E+002
3	0	2.895017926865694E+002	1.3464565E+000	-2.7037326E+002
3	0	2.900017926739383E+002	1.3460330E+000	-2.7038031E+002
3	0	2.905017926613073E+002	1.3456544E+000	-2.7036618E+002
3	0	2.910017926486762E+002	1.3452761E+000	-2.7037677E+002
3	0	2.915017926360451E+002	1.3448896E+000	-2.7039093E+002
3	0	2.920017926234141E+002	1.3445215E+000	-2.7037677E+002
3	0	2.925017926107830E+002	1.3441364E+000	-2.7035913E+002
3	0	2.930017925981520E+002	1.3436750E+000	-2.7039093E+002
3	0	2.935017925855209E+002	1.3431627E+000	-2.7038742E+002
3	0	2.940017925728898E+002	1.3427316E+000	-2.7037677E+002
3	0	2.945017925602588E+002	1.3423436E+000	-2.7038385E+002
3	0	2.950017925476277E+002	1.3419627E+000	-2.7035913E+002
3	0	2.955017925349966E+002	1.3415666E+000	-2.7038031E+002
3	0	2.960017925223656E+002	1.3411717E+000	-2.7037326E+002
3	0	2.965017925097345E+002	1.3407612E+000	-2.7039447E+002
3	0	2.970017924971035E+002	1.3402803E+000	-2.7036267E+002
3	0	2.975017924844724E+002	1.3397278E+000	-2.7036618E+002
3	0	2.980017924718413E+002	1.3392707E+000	-2.7036267E+002
3	0	2.985017924592103E+002	1.3388593E+000	-2.7036618E+002
3	0	2.990017924465792E+002	1.3384458E+000	-2.7036618E+002
3	0	2.995017924339481E+002	1.3380268E+000	-2.7039447E+002
3	0	3.000017924213171E+002	1.3376210E+000	-2.7041214E+002
3	0	3.005017924086860E+002	1.3371972E+000	-2.7038031E+002
3	0	3.010017923960550E+002	1.3367298E+000	-2.7039801E+002
3	0	3.015017923834239E+002	1.3362143E+000	-2.7036972E+002
3	0	3.020017923707928E+002	1.3357831E+000	-2.7037326E+002
3	0	3.025017923581618E+002	1.3354174E+000	-2.7036972E+002
3	0	3.030017923455307E+002	1.3350523E+000	-2.7038385E+002
3	0	3.035017923328996E+002	1.3346821E+000	-2.7036972E+002
3	0	3.040017923202686E+002	1.3343252E+000	-2.7036267E+002
3	0	3.045017923076375E+002	1.3339552E+000	-2.7038385E+002
3	0	3.050017922950065E+002	1.3335115E+000	-2.7035913E+002
3	0	3.055017922823754E+002	1.3330156E+000	-2.7038742E+002
3	0	3.060017922697443E+002	1.3325984E+000	-2.7037326E+002
3	0	3.065017922571133E+002	1.3322275E+000	-2.7040155E+002
3	0	3.070017922444822E+002	1.3318635E+000	-2.7035205E+002
3	0	3.075017922318511E+002	1.3314881E+000	-2.7037677E+002
3	0	3.080017922192201E+002	1.3311218E+000	-2.7036267E+002
3	0	3.085017922065890E+002	1.3307339E+000	-2.7040155E+002
3	0	3.090017921939580E+002	1.3302896E+000	-2.7036972E+002
3	0	3.095017921813269E+002	1.3297582E+000	-2.7037677E+002
3	0	3.100017921686958E+002	1.3293304E+000	-2.7038742E+002
3	0	3.105017921560648E+002	1.3289344E+000	-2.7039801E+002
3	0	3.110017921434337E+002	1.3285373E+000	-2.7038385E+002
3	0	3.115017921308026E+002	1.3281317E+000	-2.7039093E+002
3	0	3.120017921181716E+002	1.3277338E+000	-2.7041568E+002
3	0	3.125017921055405E+002	1.3273046E+000	-2.7036972E+002
3	0	3.130017920929095E+002	1.3268316E+000	-2.7039447E+002
3	0	3.135017920802784E+002	1.3262976E+000	-2.7039447E+002
3	0	3.140017920676473E+002	1.3258352E+000	-2.7038031E+002
3	0	3.145017920550163E+002	1.3254296E+000	-2.7036972E+002
3	0	3.150017920423852E+002	1.3250093E+000	-2.7039447E+002
3	0	3.150021920423751E+002	1.3247385E+000	-2.7039093E+002
3	0	3.605027908929333E+002	1.4184415E+000	-2.7038385E+002
3	0	3.610027908803022E+002	1.4100207E+000	-2.7039447E+002
3	0	3.615027908676711E+002	1.4041671E+000	-2.7036267E+002
3	0	3.620027908550401E+002	1.3998865E+000	-2.7038385E+002
3	0	3.625027908424090E+002	1.3965466E+000	-2.7038385E+002
3	0	3.630027908297780E+002	1.3937637E+000	-2.7038742E+002
3	0	3.635027908171469E+002	1.3913674E+000	-2.7038385E+002
3	0	3.640027908045158E+002	1.3892722E+000	-2.7037677E+002
3	0	3.645027907918848E+002	1.3873624E+000	-2.7036267E+002
3	0	3.650027907792537E+002	1.3855506E+000	-2.7038385E+002
3	0	3.655027907666226E+002	1.3838286E+000	-2.7039801E+002
3	0	3.660027907539916E+002	1.3822851E+000	-2.7038385E+002
3	0	3.665027907413605E+002	1.3808980E+000	-2.7038031E+002
3	0	3.670027907287295E+002	1.3796000E+000	-2.7036972E+002
3	0	3.675027907160984E+002	1.3783853E+000	-2.7037677E+002
3	0	3.680027907034673E+002	1.3772477E+000	-2.7040860E+002
3	0	3.685027906908363E+002	1.3761572E+000	-2.7040155E+002
3	0	3.690027906782052E+002	1.3750554E+000	-2.7036972E+002
3	0	3.695027906655741E+002	1.3739406E+000	-2.7038031E+002
3	0	3.700027906529431E+002	1.3729444E+000	-2.7035559E+002
3	0	3.705027906403120E+002	1.3720412E+000	-2.7035913E+002
3	0	3.710027906276810E+002	1.3711718E+000	-2.7036267E+002
3	0	3.715027906150499E+002	1.3703433E+000	-2.7036618E+002
3	0	3.720027906024188E+002	1.3695538E+000	-2.7037677E+002
3	0	3.725027905897878E+002	1.3687699E+000	-2.7038385E+002
3	0	3.730027905771567E+002	1.3679577E+000	-2.7037677E+002
3	0	3.735027905645256E+002	1.3671019E+000	-2.7040155E+002
3	0	3.740027905518946E+002	1.3663439E+000	-2.7036618E+002
3	0	3.745027905392635E+002	1.3656701E+000	-2.7037677E+002
3	0	3.750027905266325E+002	1.3650236E+000	-2.7035559E+002
3	0	3.755027905140014E+002	1.3643899E+000	-2.7039447E+002
3	0	3.760027905013703E+002	1.3637776E+000	-2.7037677E+002
3	0	3.765027904887393E+002	1.3631665E+000	-2.7035913E+002
3	0	3.770027904761082E+002	1.3624951E+000	-2.7039093E+002
3	0	3.775027904634771E+002	1.3617799E+000	-2.7040860E+002
3	0	3.780027904508461E+002	1.3611532E+000	-2.7039447E+002
3	0	3.785027904382150E+002	1.3605980E+000	-2.7035913E+002
3	0	3.790027904255840E+002	1.3600550E+000	-2.7035913E+002
3	0	3.795027904129529E+002	1.3595271E+000	-2.7036618E+002
3	0	3.800027904003218E+002	1.3590142E+000	-2.7038742E+002
3	0	3.805027903876908E+002	1.3584976E+000	-2.7036972E+002
3	0	3.810027903750597E+002	1.3579396E+000	-2.7037326E+002
3	0	3.815027903624286E+002	1.3573411E+000	-2.7039093E+002
3	0	3.820027903497976E+002	1.3568386E+000	-2.7037677E+002
3	0	3.825027903371665E+002	1.3563946E+000	-2.7038742E+002
3	0	3.830027903245355E+002	1.3559735E+000	-2.7038031E+002
3	0	3.835027903119044E+002	1.3555553E+000	-2.7039093E+002
3	0	3.840027902992733E+002	1.3551549E+000	-2.7035913E+002
3	0	3.845027902866423E+002	1.3547469E+000	-2.7038031E+002
3	0	3.850027902740112E+002	1.3542858E+000	-2.7037326E+002
3	0	3.855027902613801E+002	1.3537755E+000	-2.7036267E+002
3	0	3.860027902487491E+002	1.3533423E+000	-2.7038031E+002
3	0	3.865027902361180E+002	1.3529668E+000	-2.7036972E+002
3	0	3.870027902234870E+002	1.3526009E+000	-2.7040155E+002
3	0	3.875027902108559E+002	1.3522335E+000	-2.7036618E+002
3	0	3.880027901982248E+002	1.3518809E+000	-2.7038031E+002
3	0	3.885027901855938E+002	1.3514953E+000	-2.7035205E+002
3	0	3.890027901729627E+002	1.3510544E+000	-2.7038031E+002
3	0	3.895027901603316E+002	1.3505671E+000	-2.7040155E+002
3	0	3.900027901477006E+002	1.3501524E+000	-2.7039447E+002
3	0	3.905027901350695E+002	1.3497843E+000	-2.7039093E+002
3	0	3.910027901224385E+002	1.3494132E+000	-2.7039093E+002
3	0	3.915027901098074E+002	1.3490326E+000	-2.7037326E+002
3	0	3.920027900971763E+002	1.3486712E+000	-2.7037677E+002
3	0	3.925027900845453E+002	1.3482885E+000	-2.7036972E+002
3	0	3.930027900719142E+002	1.3478441E+000	-2.7040155E+002
3	0	3.935027900592831E+002	1.3473421E+000	-2.7037326E+002
3	0	3.940027900466521E+002	1.3469220E+000	-2.7036618E+002
3	0	3.945027900340210E+002	1.3465356E+000	-2.7039093E+002
3	0	3.950027900213900E+002	1.3461497E+000	-2.7039093E+002
3	0	3.955027900087589E+002	1.3457689E+000	-2.7038031E+002
3	0	3.960027899961278E+002	1.3453915E+000	-2.7039093E+002
3	0	3.965027899834968E+002	1.3449875E+000	-2.7037677E+002
3	0	3.970027899708657E+002	1.3445107E+000	-2.7038742E+002
3	0	3.975027899582346E+002	1.3439842E+000	-2.7039801E+002
3	0	3.980027899456036E+002	1.3435321E+000	-2.7038385E+002
3	0	3.985027899329725E+002	1.3431278E+000	-2.7038385E+002
3	0	3.990027899203415E+002	1.3427278E+000	-2.7039093E+002
3	0	3.995027899077104E+002	1.3423233E+000	-2.7037677E+002
3	0	4.000027898950793E+002	1.3419311E+000	-2.7036972E+002
3	0	4.005027898824483E+002	1.3415098E+000	-2.7038385E+002
3	0	4.010027898698172E+002	1.3410332E+000	-2.7037677E+002
3	0	4.015027898571861E+002	1.3405137E+000	-2.7037677E+002
3	0	4.020027898445551E+002	1.3400882E+000	-2.7036972E+002
3	0	4.025027898319240E+002	1.3397094E+000	-2.7038031E+002
3	0	4.030027898192930E+002	1.3393342E+000	-2.7038742E+002
3	0	4.035027898066619E+002	1.3389701E+000	-2.7038385E+002
3	0	4.040027897940308E+002	1.3386112E+000	-2.7038385E+002
3	0	4.045027897813998E+002	1.3382428E+000	-2.7038031E+002
3	0	4.050027897687687E+002	1.3378171E+000	-2.7039093E+002
3	0	4.055027897561376E+002	1.3373300E+000	-2.7038385E+002
3	0	4.060027897435066E+002	1.3369300E+000	-2.7038742E+002
3	0	4.065027897308755E+002	1.3365731E+000	-2.7036972E+002
3	0	4.070027897182445E+002	1.3362137E+000	-2.7036618E+002
3	0	4.075027897056134E+002	1.3358545E+000	-2.7039801E+002
3	0	4.080027896929823E+002	1.3354927E+000	-2.7038742E+002
3	0	4.085027896803513E+002	1.3351055E+000	-2.7036267E+002
3	0	4.090027896677202E+002	1.3346589E+000	-2.7039801E+002
3	0	4.095027896550891E+002	1.3341668E+000	-2.7035913E+002
3	0	4.100027896424581E+002	1.3337399E+000	-2.7035913E+002
3	0	4.105027896298270E+002	1.3333570E+000	-2.7038385E+002
3	0	4.110027896171960E+002	1.3329784E+000	-2.7038031E+002
3	0	4.115027896045649E+002	1.3325933E+000	-2.7039801E+002
3	0	4.120027895919338E+002	1.3322182E+000	-2.7038385E+002
3	0	4.125027895793028E+002	1.3318133E+000	-2.7037326E+002
3	0	4.130027895666717E+002	1.3313489E+000	-2.7037677E+002
3	0	4.135027895540406E+002	1.3308227E+000	-2.7038031E+002
3	0	4.140027895414096E+002	1.3303883E+000	-2.7033438E+002
3	0	4.145027895287785E+002	1.3299731E+000	-2.7040860E+002
3	0	4.150027895161475E+002	1.3295621E+000	-2.7040860E+002
3	0	4.155027895035164E+002	1.3291616E+000	-2.7038385E+002
3	0	4.160027894908853E+002	1.3287483E+000	-2.7038385E+002
3	0	4.165027894782543E+002	1.3283145E+000	-2.7036618E+002
3	0	4.170027894656232E+002	1.3278230E+000	-2.7039447E+002
3	0	4.175027894529921E+002	1.3272665E+000	-2.7037326E+002
3	0	4.180027894403611E+002	1.3267945E+000	-2.7035913E+002
3	0	4.185027894277300E+002	1.3263575E+000	-2.7036618E+002
3	0	4.190027894150990E+002	1.3259215E+000	-2.7034497E+002
3	0	4.195027894024679E+002	1.3254892E+000	-2.7038742E+002
3	0	4.200027893898368E+002	1.3250591E+000	-2.7038742E+002
3	0	4.200031893898267E+002	1.3248340E+000	-2.7038385E+002
3	0	4.655037882403849E+002	1.4179684E+000	-2.7035205E+002
3	0	4.660037882277538E+002	1.4095057E+000	-2.7038385E+002
3	0	4.665037882151228E+002	1.4038364E+000	-2.7037677E+002
3	0	4.670037882024917E+002	1.3996850E+000	-2.7039093E+002
3	0	4.675037881898606E+002	1.3963823E+000	-2.7038742E+002
3	0	4.680037881772296E+002	1.3936306E+000	-2.7036618E+002
3	0	4.685037881645985E+002	1.3912336E+000	-2.7036972E+002
3	0	4.690037881519675E+002	1.3890439E+000	-2.7036618E+002
3	0	4.695037881393364E+002	1.3869902E+000	-2.7036618E+002
3	0	4.700037881267053E+002	1.3851753E+000	-2.7037326E+002
3	0	4.705037881140743E+002	1.3835576E+000	-2.7038031E+002
3	0	4.710037881014432E+002	1.3820550E+000	-2.7035913E+002
3	0	4.715037880888121E+002	1.3806562E+000	-2.7039447E+002
3	0	4.720037880761811E+002	1.3793592E+000	-2.7038385E+002
3	0	4.725037880635500E+002	1.3781154E+000	-2.7038385E+002
3	0	4.730037880509190E+002	1.3768620E+000	-2.7035913E+002
3	0	4.735037880382879E+002	1.3756099E+000	-2.7038742E+002
3	0	4.740037880256568E+002	1.3745067E+000	-2.7037677E+002
3	0	4.745037880130258E+002	1.3734837E+000	-2.7036618E+002
3	0	4.750037880003947E+002	1.3725052E+000	-2.7036618E+002
3	0	4.755037879877636E+002	1.3715801E+000	-2.7038742E+002
3	0	4.760037879751326E+002	1.3707050E+000	-2.7037326E+002
3	0	4.765037879625015E+002	1.3698528E+000	-2.7036618E+002
3	0	4.770037879498705E+002	1.3689588E+000	-2.7037677E+002
3	0	4.775037879372394E+002	1.3680432E+000	-2.7037326E+002
3	0	4.780037879246083E+002	1.3672212E+000	-2.7036267E+002
3	0	4.785037879119773E+002	1.3664724E+000	-2.7036618E+002
3	0	4.790037878993462E+002	1.3657542E+000	-2.7036618E+002
3	0	4.795037878867151E+002	1.3650603E+000	-2.7039447E+002
3	0	4.800037878740841E+002	1.3643956E+000	-2.7038031E+002
3	0	4.805037878614530E+002	1.3637249E+000	-2.7038031E+002
3	0	4.810037878488220E+002	1.3630226E+000	-2.7037677E+002
3	0	4.815037878361909E+002	1.3622862E+000	-2.7039093E+002
3	0	4.820037878235598E+002	1.3616556E+000	-2.7036267E+002
3	0	4.825037878109288E+002	1.3610985E+000	-2.7038385E+002
3	0	4.830037877982977E+002	1.3605773E+000	-2.7036972E+002
3	0	4.835037877856666E+002	1.3600762E+000	-2.7034143E+002
3	0	4.840037877730356E+002	1.3596045E+000	-2.7039801E+002
3	0	4.845037877604045E+002	1.3591158E+000	-2.7037326E+002
3	0	4.850037877477735E+002	1.3585726E+000	-2.7038031E+002
3	0	4.855037877351424E+002	1.3579881E+000	-2.7036618E+002
3	0	4.860037877225113E+002	1.3574998E+000	-2.7036618E+002
3	0	4.865037877098803E+002	1.3570724E+000	-2.7037677E+002
3	0	4.870037876972492E+002	1.3566535E+000	-2.7037677E+002
3	0	4.875037876846181E+002	1.3562344E+000	-2.7038031E+002
3	0	4.880037876719871E+002	1.3558385E+000	-2.7038742E+002
3	0	4.885037876593560E+002	1.3554269E+000	-2.7036972E+002
3	0	4.890037876467250E+002	1.3549641E+000	-2.7038742E+002
3	0	4.895037876340939E+002	1.3544422E+000	-2.7038742E+002
3	0	4.900037876214628E+002	1.3540087E+000	-2.7040860E+002
3	0	4.905037876088318E+002	1.3536201E+000	-2.7036267E+002
3	0	4.910037875962007E+002	1.3532400E+000	-2.7036972E+002
3	0	4.915037875835696E+002	1.3528578E+000	-2.7037677E+002
3	0	4.920037875709386E+002	1.3524878E+000	-2.7040155E+002
3	0	4.925037875583075E+002	1.3521001E+000	-2.7038385E+002
3	0	4.930037875456765E+002	1.3516384E+000	-2.7035559E+002
3	0	4.935037875330454E+002	1.3511276E+000	-2.7039447E+002
3	0	4.940037875204143E+002	1.3507024E+000	-2.7037677E+002
3	0	4.945037875077833E+002	1.3503162E+000	-2.7035913E+002
3	0	4.950037874951522E+002	1.3499362E+000	-2.7038385E+002
3	0	4.955037874825211E+002	1.3495591E+000	-2.7036972E+002
3	0	4.960037874698901E+002	1.3491774E+000	-2.7039093E+002
3	0	4.965037874572590E+002	1.3487786E+000	-2.7036267E+002
3	0	4.970037874446280E+002	1.3483146E+000	-2.7036972E+002
3	0	4.975037874319969E+002	1.3477834E+000	-2.7040155E+002
3	0	4.980037874193658E+002	1.3473406E+000	-2.7040155E+002
3	0	4.985037874067348E+002	1.3469378E+000	-2.7037677E+002
3	0	4.990037873941037E+002	1.3465265E+000	-2.7038385E+002
3	0	4.995037873814726E+002	1.3461176E+000	-2.7038742E+002
3	0	5.000037873688416E+002	1.3457298E+000	-2.7038031E+002
3	0	5.005037873562105E+002	1.3453165E+000	-2.7037326E+002
3	0	5.010037873435795E+002	1.3448508E+000	-2.7038742E+002
3	0	5.015037873309484E+002	1.3443315E+000	-2.7037677E+002
3	0	5.020037873183173E+002	1.3439103E+000	-2.7035913E+002
3	0	5.025037873056863E+002	1.3435360E+000	-2.7037677E+002
3	0	5.030037872930552E+002	1.3431642E+000	-2.7039093E+002
3	0	5.035037872804241E+002	1.3428011E+000	-2.7040155E+002
3	0	5.040037872677931E+002	1.3424480E+000	-2.7038031E+002
3	0	5.045037872551620E+002	1.3420838E+000	-2.7040860E+002
3	0	5.050037872425310E+002	1.3416575E+000	-2.7037326E+002
3	0	5.055037872298999E+002	1.3411806E+000	-2.7035913E+002
3	0	5.060037872172688E+002	1.3407882E+000	-2.7039801E+002
3	0	5.065037872046378E+002	1.3404403E+000	-2.7041919E+002
3	0	5.070037871920067E+002	1.3401022E+000	-2.7037326E+002
3	0	5.075037871793756E+002	1.3397524E+000	-2.7038742E+002
3	0	5.080037871667446E+002	1.3394318E+000	-2.7038385E+002
3	0	5.085037871541135E+002	1.3390772E+000	-2.7039447E+002
3	0	5.090037871414825E+002	1.3386482E+000	-2.7035205E+002
3	0	5.095037871288514E+002	1.3381678E+000	-2.7039801E+002
3	0	5.100037871162203E+002	1.3377732E+000	-2.7037326E+002
3	0	5.105037871035893E+002	1.3374138E+000	-2.7038742E+002
3	0	5.110037870909582E+002	1.3370507E+000	-2.7039801E+002
3	0	5.115037870783272E+002	1.3366816E+000	-2.7041214E+002
3	0	5.120037870656961E+002	1.3363239E+000	-2.7040155E+002
3	0	5.125037870530650E+002	1.3359421E+000	-2.7037677E+002
3	0	5.130037870404340E+002	1.3355006E+000	-2.7038742E+002
3	0	5.135037870278029E+002	1.3349961E+000	-2.7037677E+002
3	0	5.140037870151718E+002	1.3345705E+000	-2.7039093E+002
3	0	5.145037870025408E+002	1.3341856E+000	-2.7037326E+002
3	0	5.150037869899097E+002	1.3337924E+000	-2.7039093E+002
3	0	5.155037869772787E+002	1.3333960E+000	-2.7037326E+002
3	0	5.160037869646476E+002	1.3330045E+000	-2.7039093E+002
3	0	5.165037869520165E+002	1.3325891E+000	-2.7038385E+002
3	0	5.170037869393855E+002	1.3321176E+000	-2.7039447E+002
3	0	5.175037869267544E+002	1.3315967E+000	-2.7037326E+002
3	0	5.180037869141233E+002	1.3311411E+000	-2.7038742E+002
3	0	5.185037869014923E+002	1.3307358E+000	-2.7036267E+002
3	0	5.190037868888612E+002	1.3303429E+000	-2.7038742E+002
3	0	5.195037868762302E+002	1.3299190E+000	-2.7036972E+002
3	0	5.200037868635991E+002	1.3295281E+000	-2.7038742E+002
3	0	5.205037868509680E+002	1.3291156E+000	-2.7038742E+002
3	0	5.210037868383370E+002	1.3286346E+000	-2.7034851E+002
3	0	5.215037868257059E+002	1.3281066E+000	-2.7038031E+002
3	0	5.220037868130748E+002	1.3276702E+000	-2.7036618E+002
3	0	5.225037868004438E+002	1.3272721E+000	-2.7036618E+002
3	0	5.230037867878127E+002	1.3268820E+000	-2.7038031E+002
3	0	5.235037867751817E+002	1.3264931E+000	-2.7041919E+002
3	0	5.240037867625506E+002	1.3261106E+000	-2.7038385E+002
3	0	5.245037867499195E+002	1.3257141E+000	-2.7038385E+002
3	0	5.250037867372885E+002	1.3252569E+000	-2.7037677E+002
3	0	5.250041867372784E+002	1.3249962E+000	-2.7039093E+002
3	0	5.705047855878365E+002	1.4180732E+000	-2.7038031E+002
3	0	5.710047855752055E+002	1.4096823E+000	-2.7037677E+002
3	0	5.715047855625744E+002	1.4040169E+000	-2.7040860E+002
3	0	5.720047855499433E+002	1.3998655E+000	-2.7037677E+002
3	0	5.725047855373123E+002	1.3965333E+000	-2.7036972E+002
3	0	5.730047855246812E+002	1.3936714E+000	-2.7038031E+002
3	0	5.735047855120501E+002	1.3911017E+000	-2.7040155E+002
3	0	5.740047854994191E+002	1.3888839E+000	-2.7035913E+002
3	0	5.745047854867880E+002	1.3869168E+000	-2.7038742E+002
3	0	5.750047854741570E+002	1.3851255E+000	-2.7037326E+002
3	0	5.755047854615259E+002	1.3834859E+000	-2.7036618E+002
3	0	5.760047854488948E+002	1.3819622E+000	-2.7036267E+002
3	0	5.765047854362638E+002	1.3805209E+000	-2.7037326E+002
3	0	5.770047854236327E+002	1.3791023E+000	-2.7036972E+002
3	0	5.775047854110016E+002	1.3777070E+000	-2.7039801E+002
3	0	5.780047853983706E+002	1.3764498E+000	-2.7035205E+002
3	0	5.785047853857395E+002	1.3752941E+000	-2.7037677E+002
3	0	5.790047853731085E+002	1.3742055E+000	-2.7037326E+002
3	0	5.795047853604774E+002	1.3731638E+000	-2.7037677E+002
3	0	5.800047853478463E+002	1.3721716E+000	-2.7036972E+002
3	0	5.805047853352153E+002	1.3712084E+000	-2.7039801E+002
3	0	5.810047853225842E+002	1.3702352E+000	-2.7034851E+002
3	0	5.815047853099531E+002	1.3692471E+000	-2.7038742E+002
3	0	5.820047852973221E+002	1.3683672E+000	-2.7038031E+002
3	0	5.825047852846910E+002	1.3675773E+000	-2.7037326E+002
3	0	5.830047852720600E+002	1.3668194E+000	-2.7038385E+002
3	0	5.835047852594289E+002	1.3661057E+000	-2.7036618E+002
3	0	5.840047852467978E+002	1.3654419E+000	-2.7038031E+002
3	0	5.845047852341668E+002	1.3647932E+000	-2.7039801E+002
3	0	5.850047852215357E+002	1.3640981E+000	-2.7037326E+002
3	0	5.855047852089047E+002	1.3633864E+000	-2.7038742E+002
3	0	5.860047851962736E+002	1.3627700E+000	-2.7038385E+002
3	0	5.865047851836425E+002	1.3622195E+000	-2.7038385E+002
3	0	5.870047851710115E+002	1.3616925E+000	-2.7038385E+002
3	0	5.875047851583804E+002	1.3611776E+000	-2.7038031E+002
3	0	5.880047851457493E+002	1.3606938E+000	-2.7038385E+002
3	0	5.885047851331183E+002	1.3601949E+000	-2.7037677E+002
3	0	5.890047851204872E+002	1.3596612E+000	-2.7037677E+002
3	0	5.895047851078562E+002	1.3590775E+000	-2.7038031E+002
3	0	5.900047850952251E+002	1.3585802E+000	-2.7038742E+002
3	0	5.905047850825940E+002	1.3581403E+000	-2.7036618E+002
3	0	5.910047850699630E+002	1.3577031E+000	-2.7038385E+002
3	0	5.915047850573319E+002	1.3572787E+000	-2.7039447E+002
3	0	5.920047850447008E+002	1.3568630E+000	-2.7039801E+002
3	0	5.925047850320698E+002	1.3564157E+000	-2.7037677E+002
3	0	5.930047850194387E+002	1.3559265E+000	-2.7038031E+002
3	0	5.935047850068077E+002	1.3553941E+000	-2.7038031E+002
3	0	5.940047849941766E+002	1.3549372E+000	-2.7036618E+002
3	0	5.945047849815455E+002	1.3545191E+000	-2.7038385E+002
3	0	5.950047849689145E+002	1.3540998E+000	-2.7039801E+002
3	0	5.955047849562834E+002	1.3536853E+000	-2.7037677E+002
3	0	5.960047849436523E+002	1.3532838E+000	-2.7040860E+002
3	0	5.965047849310213E+002	1.3528578E+000	-2.7036618E+002
3	0	5.970047849183902E+002	1.3523866E+000	-2.7039447E+002
3	0	5.975047849057592E+002	1.3518565E+000	-2.7036618E+002
3	0	5.980047848931281E+002	1.3514022E+000	-2.7039447E+002
3	0	5.985047848804970E+002	1.3509849E+000	-2.7037677E+002
3	0	5.990047848678660E+002	1.3505793E+000	-2.7037326E+002
3	0	5.995047848552349E+002	1.3501633E+000	-2.7039801E+002
3	0	6.000047848426038E+002	1.3497652E+000	-2.7037326E+002
3	0	6.005047848299728E+002	1.3493377E+000	-2.7037326E+002
3	0	6.010047848173417E+002	1.3488503E+000	-2.7037326E+002
3	0	6.015047848047107E+002	1.3483288E+000	-2.7035559E+002
3	0	6.020047847920796E+002	1.3478857E+000	-2.7036972E+002
3	0	6.025047847794485E+002	1.3474975E+000	-2.7038031E+002
3	0	6.030047847668175E+002	1.3471290E+000	-2.7041568E+002
3	0	6.035047847541864E+002	1.3467616E+000	-2.7037677E+002
3	0	6.040047847415553E+002	1.3464165E+000	-2.7038031E+002
3	0	6.045047847289243E+002	1.3460472E+000	-2.7038031E+002
3	0	6.050047847162932E+002	1.3456286E+000	-2.7037326E+002
3	0	6.055047847036622E+002	1.3451649E+000	-2.7037326E+002
3	0	6.060047846910311E+002	1.3447814E+000	-2.7036972E+002
3	0	6.065047846784000E+002	1.3444389E+000	-2.7036972E+002
3	0	6.070047846657690E+002	1.3441025E+000	-2.7037326E+002
3	0	6.075047846531379E+002	1.3437697E+000	-2.7036972E+002
3	0	6.080047846405068E+002	1.3434355E+000	-2.7035913E+002
3	0	6.085047846278758E+002	1.3430777E+000	-2.7038031E+002
3	0	6.090047846152447E+002	1.3426634E+000	-2.7035913E+002
3	0	6.095047846026137E+002	1.3422002E+000	-2.7035205E+002
3	0	6.100047845899826E+002	1.3418164E+000	-2.7040155E+002
3	0	6.105047845773515E+002	1.3414657E+000	-2.7039447E+002
3	0	6.110047845647205E+002	1.3411150E+000	-2.7036972E+002
3	0	6.115047845520894E+002	1.3407677E+000	-2.7037677E+002
3	0	6.120047845394583E+002	1.3404131E+000	-2.7036618E+002
3	0	6.125047845268273E+002	1.3400382E+000	-2.7038742E+002
3	0	6.130047845141962E+002	1.3395972E+000	-2.7038031E+002
3	0	6.135047845015652E+002	1.3391047E+000	-2.7039447E+002
3	0	6.140047844889341E+002	1.3386887E+000	-2.7039093E+002
3	0	6.145047844763030E+002	1.3383106E+000	-2.7038031E+002
3	0	6.150047844636720E+002	1.3379341E+000	-2.7036267E+002
3	0	6.155047844510409E+002	1.3375535E+000	-2.7035559E+002
3	0	6.160047844384098E+002	1.3371787E+000	-2.7036267E+002
3	0	6.165047844257788E+002	1.3367680E+000	-2.7038385E+002
3	0	6.170047844131477E+002	1.3363044E+000	-2.7036267E+002
3	0	6.175047844005167E+002	1.3357875E+000	-2.7038385E+002
3	0	6.180047843878856E+002	1.3353533E+000	-2.7036972E+002
3	0	6.185047843752545E+002	1.3349488E+000	-2.7037677E+002
3	0	6.190047843626235E+002	1.3345436E+000	-2.7039447E+002
3	0	6.195047843499924E+002	1.3341436E+000	-2.7039447E+002
3	0	6.200047843373613E+002	1.3337393E+000	-2.7035913E+002
3	0	6.205047843247303E+002	1.3333170E+000	-2.7038385E+002
3	0	6.210047843120992E+002	1.3328348E+000	-2.7038031E+002
3	0	6.215047842994682E+002	1.3322957E+000	-2.7039447E+002
3	0	6.220047842868371E+002	1.3318509E+000	-2.7040155E+002
3	0	6.225047842742060E+002	1.3314550E+000	-2.7040155E+002
3	0	6.230047842615750E+002	1.3310754E+000	-2.7038742E+002
3	0	6.235047842489439E+002	1.3306975E+000	-2.7038031E+002
3	0	6.240047842363128E+002	1.3303474E+000	-2.7036618E+002
3	0	6.245047842236818E+002	1.3299549E+000	-2.7038385E+002
3	0	6.250047842110507E+002	1.3295196E+000	-2.7038742E+002
3	0	6.255047841984197E+002	1.3290521E+000	-2.7040506E+002
3	0	6.260047841857886E+002	1.3286530E+000	-2.7035913E+002
3	0	6.265047841731575E+002	1.3282905E+000	-2.7038385E+002
3	0	6.270047841605265E+002	1.3279448E+000	-2.7037326E+002
3	0	6.275047841478954E+002	1.3275998E+000	-2.7035559E+002
3	0	6.280047841352643E+002	1.3272517E+000	-2.7037326E+002
3	0	6.285047841226333E+002	1.3268819E+000	-2.7037326E+002
3	0	6.290047841100022E+002	1.3264537E+000	-2.7040506E+002
3	0	6.295047840973712E+002	1.3259745E+000	-2.7038385E+002
3	0	6.300047840847401E+002	1.3255715E+000	-2.7036618E+002
3	0	6.300051840847300E+002	1.3254161E+000	-2.7037677E+002
3	0	6.755057829352882E+002	1.4180834E+000	-2.7036267E+002
3	0	6.760057829226571E+002	1.4097112E+000	-2.7037677E+002
3	0	6.765057829100260E+002	1.4040149E+000	-2.7038031E+002
3	0	6.770057828973950E+002	1.3997430E+000	-2.7038385E+002
3	0	6.775057828847639E+002	1.3962228E+000	-2.7036618E+002
3	0	6.780057828721328E+002	1.3933301E+000	-2.7035559E+002
3	0	6.785057828595018E+002	1.3908437E+000	-2.7037677E+002
3	0	6.790057828468707E+002	1.3886642E+000	-2.7041214E+002
3	0	6.795057828342397E+002	1.3866937E+000	-2.7037677E+002
3	0	6.800057828216086E+002	1.3849022E+000	-2.7038742E+002
3	0	6.805057828089775E+002	1.3832350E+000	-2.7038031E+002
3	0	6.810057827963465E+002	1.3816199E+000	-2.7039093E+002
3	0	6.815057827837154E+002	1.3800484E+000	-2.7035913E+002
3	0	6.820057827710843E+002	1.3786256E+000	-2.7037677E+002
3	0	6.825057827584533E+002	1.3773315E+000	-2.7037677E+002
3	0	6.830057827458222E+002	1.3761287E+000	-2.7035913E+002
3	0	6.835057827331912E+002	1.3749962E+000	-2.7039801E+002
3	0	6.840057827205601E+002	1.3739393E+000	-2.7036972E+002
3	0	6.845057827079290E+002	1.3729210E+000	-2.7039093E+002
3	0	6.850057826952980E+002	1.3718829E+000	-2.7037326E+002
3	0	6.855057826826669E+002	1.3708507E+000	-2.7038031E+002
3	0	6.860057826700358E+002	1.3699403E+000	-2.7039801E+002
3	0	6.865057826574048E+002	1.3691108E+000	-2.7040155E+002
3	0	6.870057826447737E+002	1.3683345E+000	-2.7038031E+002
3	0	6.875057826321427E+002	1.3675951E+000	-2.7037677E+002
3	0	6.880057826195116E+002	1.3668962E+000	-2.7037326E+002
3	0	6.885057826068805E+002	1.3661953E+000	-2.7038742E+002
3	0	6.890057825942495E+002	1.3654577E+000	-2.7035205E+002
3	0	6.895057825816184E+002	1.3647019E+000	-2.7039093E+002
3	0	6.900057825689873E+002	1.3640392E+000	-2.7037326E+002
3	0	6.905057825563563E+002	1.3634324E+000	-2.7039801E+002
3	0	6.910057825437252E+002	1.3628590E+000	-2.7036267E+002
3	0	6.915057825310942E+002	1.3623017E+000	-2.7038385E+002
3	0	6.920057825184631E+002	1.3617676E+000	-2.7038742E+002
3	0	6.925057825058320E+002	1.3612291E+000	-2.7037677E+002
3	0	6.930057824932010E+002	1.3606495E+000	-2.7038031E+002
3	0	6.935057824805699E+002	1.3600194E+000	-2.7038031E+002
3	0	6.940057824679388E+002	1.3594812E+000	-2.7038031E+002
3	0	6.945057824553078E+002	1.3589745E+000	-2.7041919E+002
3	0	6.950057824426767E+002	1.3584963E+000	-2.7038385E+002
3	0	6.955057824300457E+002	1.3580315E+000	-2.7034143E+002
3	0	6.960057824174146E+002	1.3575609E+000	-2.7036618E+002
3	0	6.965057824047835E+002	1.3570944E+000	-2.7038385E+002
3	0	6.970057823921525E+002	1.3565593E+000	-2.7037326E+002
3	0	6.975057823795214E+002	1.3559809E+000	-2.7038742E+002
3	0	6.980057823668903E+002	1.3554891E+000	-2.7036267E+002
3	0	6.985057823542593E+002	1.3550441E+000	-2.7039801E+002
3	0	6.990057823416282E+002	1.3546064E+000	-2.7038385E+002
3	0	6.995057823289972E+002	1.3541702E+000	-2.7037677E+002
3	0	7.000057823163661E+002	1.3537419E+000	-2.7039801E+002
3	0	7.005057823037350E+002	1.3532901E+000	-2.7038385E+002
3	0	7.010057822911040E+002	1.3527782E+000	-2.7040860E+002
3	0	7.015057822784729E+002	1.3522221E+000	-2.7039093E+002
3	0	7.020057822658418E+002	1.3517518E+000	-2.7036972E+002
3	0	7.025057822532108E+002	1.3513225E+000	-2.7040155E+002
3	0	7.030057822405797E+002	1.3509173E+000	-2.7037326E+002
3	0	7.035057822279487E+002	1.3505242E+000	-2.7039447E+002
3	0	7.040057822153176E+002	1.3501529E+000	-2.7040155E+002
3	0	7.045057822026865E+002	1.3497796E+000	-2.7036972E+002
3	0	7.050057821900555E+002	1.3493437E+000	-2.7037326E+002
3	0	7.055057821774244E+002	1.3488631E+000	-2.7037326E+002
3	0	7.060057821647933E+002	1.3484690E+000	-2.7037326E+002
3	0	7.065057821521623E+002	1.3481152E+000	-2.7038742E+002
3	0	7.070057821395312E+002	1.3477714E+000	-2.7037326E+002
3	0	7.075057821269002E+002	1.3474449E+000	-2.7038385E+002
3	0	7.080057821142691E+002	1.3471148E+000	-2.7035205E+002
3	0	7.085057821016380E+002	1.3467637E+000	-2.7039093E+002
3	0	7.090057820890070E+002	1.3463516E+000	-2.7037326E+002
3	0	7.095057820763759E+002	1.3458941E+000	-2.7037677E+002
3	0	7.100057820637448E+002	1.3455174E+000	-2.7038742E+002
3	0	7.105057820511138E+002	1.3451680E+000	-2.7038385E+002
3	0	7.110057820384827E+002	1.3448333E+000	-2.7039093E+002
3	0	7.115057820258517E+002	1.3445016E+000	-2.7037326E+002
3	0	7.120057820132206E+002	1.3441597E+000	-2.7037326E+002
3	0	7.125057820005895E+002	1.3438028E+000	-2.7037677E+002
3	0	7.130057819879585E+002	1.3433684E+000	-2.7035559E+002
3	0	7.135057819753274E+002	1.3428929E+000	-2.7039093E+002
3	0	7.140057819626963E+002	1.3424871E+000	-2.7036267E+002
3	0	7.145057819500653E+002	1.3421171E+000	-2.7037326E+002
3	0	7.150057819374342E+002	1.3417528E+000	-2.7038742E+002
3	0	7.155057819248032E+002	1.3413888E+000	-2.7040506E+002
3	0	7.160057819121721E+002	1.3410259E+000	-2.7038742E+002
3	0	7.165057818995410E+002	1.3406506E+000	-2.7038742E+002
3	0	7.170057818869100E+002	1.3402011E+000	-2.7038031E+002
3	0	7.175057818742789E+002	1.3396915E+000	-2.7039093E+002
3	0	7.180057818616478E+002	1.3392668E+000	-2.7039093E+002
3	0	7.185057818490168E+002	1.3388747E+000	-2.7039801E+002
3	0	7.190057818363857E+002	1.3384820E+000	-2.7036972E+002
3	0	7.195057818237547E+002	1.3380878E+000	-2.7037326E+002
3	0	7.200057818111236E+002	1.3377056E+000	-2.7038031E+002
3	0	7.205057817984925E+002	1.3372833E+000	-2.7040155E+002
3	0	7.210057817858615E+002	1.3368022E+000	-2.7036618E+002
3	0	7.215057817732304E+002	1.3362694E+000	-2.7038385E+002
3	0	7.220057817605993E+002	1.3358270E+000	-2.7038385E+002
3	0	7.225057817479683E+002	1.3354274E+000	-2.7039801E+002
3	0	7.230057817353372E+002	1.3350314E+000	-2.7039447E+002
3	0	7.235057817227062E+002	1.3346509E+000	-2.7039093E+002
3	0	7.240057817100751E+002	1.3342596E+000	-2.7036972E+002
3	0	7.245057816974440E+002	1.3338226E+000	-2.7040506E+002
3	0	7.250057816848130E+002	1.3333993E+000	-2.7037326E+002
3	0	7.255057816721819E+002	1.3329526E+000	-2.7038385E+002
3	0	7.260057816595508E+002	1.3325939E+000	-2.7039093E+002
3	0	7.265057816469198E+002	1.3322363E+000	-2.7037677E+002
3	0	7.270057816342887E+002	1.3318853E+000	-2.7038385E+002
3	0	7.275057816216577E+002	1.3315502E+000	-2.7037326E+002
3	0	7.280057816090266E+002	1.3312129E+000	-2.7035913E+002
3	0	7.285057815963955E+002	1.3308630E+000	-2.7036618E+002
3	0	7.290057815837645E+002	1.3304522E+000	-2.7036972E+002
3	0	7.295057815711334E+002	1.3299868E+000	-2.7038742E+002
3	0	7.300057815585023E+002	1.3296140E+000	-2.7037677E+002
3	0	7.305057815458713E+002	1.3292658E+000	-2.7038031E+002
3	0	7.310057815332402E+002	1.3288990E+000	-2.7038385E+002
3	0	7.315057815206092E+002	1.3285421E+000	-2.7036972E+002
3	0	7.320057815079781E+002	1.3281842E+000	-2.7039093E+002
3	0	7.325057814953470E+002	1.3278074E+000	-2.7038385E+002
3	0	7.330057814827160E+002	1.3273581E+000	-2.7039447E+002
3	0	7.335057814700849E+002	1.3268744E+000	-2.7038031E+002
3	0	7.340057814574539E+002	1.3264676E+000	-2.7038031E+002
3	0	7.345057814448228E+002	1.3260901E+000	-2.7039093E+002
3	0	7.350057814321917E+002	1.3257091E+000	-2.7035559E+002
3	0	7.350061814321816E+002	1.3255877E+000	-2.7040506E+002
3	0	7.805067802827398E+002	1.4179775E+000	-2.7036618E+002
3	0	7.810067802701087E+002	1.4094334E+000	-2.7038385E+002
3	0	7.815067802574777E+002	1.4035103E+000	-2.7038385E+002
3	0	7.820067802448466E+002	1.3991985E+000	-2.7039093E+002
3	0	7.825067802322155E+002	1.3957767E+000	-2.7038742E+002
3	0	7.830067802195845E+002	1.3929182E+000	-2.7038031E+002
3	0	7.835067802069534E+002	1.3904569E+000	-2.7036267E+002
3	0	7.840067801943223E+002	1.3882946E+000	-2.7037326E+002
3	0	7.845067801816913E+002	1.3863146E+000	-2.7035205E+002
3	0	7.850067801690602E+002	1.3844601E+000	-2.7037677E+002
3	0	7.855067801564292E+002	1.3826948E+000	-2.7037326E+002
3	0	7.860067801437981E+002	1.3811322E+000	-2.7038031E+002
3	0	7.865067801311670E+002	1.3796948E+000	-2.7038031E+002
3	0	7.870067801185360E+002	1.3783603E+000	-2.7035205E+002
3	0	7.875067801059049E+002	1.3771102E+000	-2.7035559E+002
3	0	7.880067800932738E+002	1.3759546E+000	-2.7036267E+002
3	0	7.885067800806428E+002	1.3748475E+000	-2.7036267E+002
3	0	7.890067800680117E+002	1.3737390E+000	-2.7038385E+002
3	0	7.895067800553807E+002	1.3726244E+000	-2.7037677E+002
3	0	7.900067800427496E+002	1.3716515E+000	-2.7038385E+002
3	0	7.905067800301185E+002	1.3707443E+000	-2.7035913E+002
3	0	7.910067800174875E+002	1.3698881E+000	-2.7037677E+002
3	0	7.915067800048564E+002	1.3690706E+000	-2.7036972E+002
3	0	7.920067799922253E+002	1.3682936E+000	-2.7038031E+002
3	0	7.925067799795943E+002	1.3675257E+000	-2.7039801E+002
3	0	7.930067799669632E+002	1.3667221E+000	-2.7037677E+002
3	0	7.935067799543322E+002	1.3658967E+000	-2.7038742E+002
3	0	7.940067799417011E+002	1.3651865E+000	-2.7040155E+002
3	0	7.945067799290700E+002	1.3645239E+000	-2.7039093E+002
3	0	7.950067799164390E+002	1.3638752E+000	-2.7036618E+002
3	0	7.955067799038079E+002	1.3632621E+000	-2.7037677E+002
3	0	7.960067798911768E+002	1.3626674E+000	-2.7038031E+002
3	0	7.965067798785458E+002	1.3620702E+000	-2.7037326E+002
3	0	7.970067798659147E+002	1.3614227E+000	-2.7036267E+002
3	0	7.975067798532837E+002	1.3607507E+000	-2.7038385E+002
3	0	7.980067798406526E+002	1.3601806E+000	-2.7038031E+002
3	0	7.985067798280215E+002	1.3596340E+000	-2.7038031E+002
3	0	7.990067798153905E+002	1.3591052E+000	-2.7036972E+002
3	0	7.995067798027594E+002	1.3585925E+000	-2.7036267E+002
3	0	8.000067797901283E+002	1.3580960E+000	-2.7036618E+002
3	0	8.005067797774973E+002	1.3575906E+000	-2.7036618E+002
3	0	8.010067797648662E+002	1.3570230E+000	-2.7037326E+002
3	0	8.015067797522352E+002	1.3564141E+000	-2.7036267E+002
3	0	8.020067797396041E+002	1.3559103E+000	-2.7037326E+002
3	0	8.025067797269730E+002	1.3554312E+000	-2.7035913E+002
3	0	8.030067797143420E+002	1.3549765E+000	-2.7038742E+002
3	0	8.035067797017109E+002	1.3545262E+000	-2.7038742E+002
3	0	8.040067796890798E+002	1.3541034E+000	-2.7036618E+002
3	0	8.045067796764488E+002	1.3536727E+000	-2.7037677E+002
3	0	8.050067796638177E+002	1.3531983E+000	-2.7038385E+002
3	0	8.055067796511867E+002	1.3526849E+000	-2.7035913E+002
3	0	8.060067796385556E+002	1.3522725E+000	-2.7040155E+002
3	0	8.065067796259245E+002	1.3518980E+000	-2.7037326E+002
3	0	8.070067796132935E+002	1.3515263E+000	-2.7039093E+002
3	0	8.075067796006624E+002	1.3511745E+000	-2.7037326E+002
3	0	8.080067795880314E+002	1.3508338E+000	-2.7036972E+002
3	0	8.085067795754003E+002	1.3504773E+000	-2.7035559E+002
3	0	8.090067795627692E+002	1.3500577E+000	-2.7036972E+002
3	0	8.095067795501382E+002	1.3495935E+000	-2.7039447E+002
3	0	8.100067795375071E+002	1.3492204E+000	-2.7037326E+002
3	0	8.105067795248760E+002	1.3488597E+000	-2.7040506E+002
3	0	8.110067795122450E+002	1.3485106E+000	-2.7036972E+002
3	0	8.115067794996139E+002	1.3481688E+000	-2.7036972E+002
3	0	8.120067794869829E+002	1.3478267E+000	-2.7037326E+002
3	0	8.125067794743518E+002	1.3474661E+000	-2.7037677E+002
3	0	8.130067794617207E+002	1.3470553E+000	-2.7039093E+002
3	0	8.135067794490897E+002	1.3465785E+000	-2.7036618E+002
3	0	8.140067794364586E+002	1.3462019E+000	-2.7038385E+002
3	0	8.145067794238275E+002	1.3458380E+000	-2.7039093E+002
3	0	8.150067794111965E+002	1.3454916E+000	-2.7038742E+002
3	0	8.155067793985654E+002	1.3451320E+000	-2.7040506E+002
3	0	8.160067793859344E+002	1.3447729E+000	-2.7038742E+002
3	0	8.165067793733033E+002	1.3443907E+000	-2.7037326E+002
3	0	8.170067793606722E+002	1.3439527E+000	-2.7037677E+002
3	0	8.175067793480412E+002	1.3434606E+000	-2.7039093E+002
3	0	8.180067793354101E+002	1.3430551E+000	-2.7036972E+002
3	0	8.185067793227790E+002	1.3426692E+000	-2.7037326E+002
3	0	8.190067793101480E+002	1.3422909E+000	-2.7037326E+002
3	0	8.195067792975169E+002	1.3419180E+000	-2.7036972E+002
3	0	8.200067792848859E+002	1.3415434E+000	-2.7038031E+002
3	0	8.205067792722548E+002	1.3411376E+000	-2.7037677E+002
3	0	8.210067792596237E+002	1.3406742E+000	-2.7036618E+002
3	0	8.215067792469927E+002	1.3401639E+000	-2.7038031E+002
3	0	8.220067792343616E+002	1.3397411E+000	-2.7037326E+002
3	0	8.225067792217305E+002	1.3393353E+000	-2.7037326E+002
3	0	8.230067792090995E+002	1.3389375E+000	-2.7037677E+002
3	0	8.235067791964684E+002	1.3385496E+000	-2.7038742E+002
3	0	8.240067791838374E+002	1.3381802E+000	-2.7036267E+002
3	0	8.245067791712063E+002	1.3377931E+000	-2.7039801E+002
3	0	8.250067791585752E+002	1.3373532E+000	-2.7036618E+002
3	0	8.255067791459442E+002	1.3368841E+000	-2.7038385E+002
3	0	8.260067791333131E+002	1.3365033E+000	-2.7038742E+002
3	0	8.265067791206820E+002	1.3361431E+000	-2.7036972E+002
3	0	8.270067791080510E+002	1.3357989E+000	-2.7036972E+002
3	0	8.275067790954199E+002	1.3354652E+000	-2.7036618E+002
3	0	8.280067790827889E+002	1.3351319E+000	-2.7036972E+002
3	0	8.285067790701578E+002	1.3347684E+000	-2.7036972E+002
3	0	8.290067790575267E+002	1.3343523E+000	-2.7038385E+002
3	0	8.295067790448957E+002	1.3338921E+000	-2.7037677E+002
3	0	8.300067790322646E+002	1.3335153E+000	-2.7040506E+002
3	0	8.305067790196335E+002	1.3331625E+000	-2.7037677E+002
3	0	8.310067790070025E+002	1.3328196E+000	-2.7036267E+002
3	0	8.315067789943714E+002	1.3324749E+000	-2.7037326E+002
3	0	8.320067789817404E+002	1.3321263E+000	-2.7039447E+002
3	0	8.325067789691093E+002	1.3317664E+000	-2.7039447E+002
3	0	8.330067789564782E+002	1.3313341E+000	-2.7039093E+002
3	0	8.335067789438472E+002	1.3308619E+000	-2.7037326E+002
3	0	8.340067789312161E+002	1.3304787E+000	-2.7036267E+002
3	0	8.345067789185850E+002	1.3300964E+000	-2.7038385E+002
3	0	8.350067789059540E+002	1.3297162E+000	-2.7038031E+002
3	0	8.355067788933229E+002	1.3293529E+000	-2.7036618E+002
3	0	8.360067788806919E+002	1.3289826E+000	-2.7038031E+002
3	0	8.365067788680608E+002	1.3285939E+000	-2.7035913E+002
3	0	8.370067788554297E+002	1.3281370E+000	-2.7036267E+002
3	0	8.375067788427987E+002	1.3276360E+000	-2.7037326E+002
3	0	8.380067788301676E+002	1.3272210E+000	-2.7038385E+002
3	0	8.385067788175365E+002	1.3268211E+000	-2.7038385E+002
3	0	8.390067788049055E+002	1.3264251E+000	-2.7036972E+002
3	0	8.395067787922744E+002	1.3260357E+000	-2.7036972E+002
3	0	8.400067787796434E+002	1.3256364E+000	-2.7038031E+002
3	0	8.400071787796333E+002	1.3255210E+000	-2.7038742E+002
3	0	8.855077776301914E+002	1.4175369E+000	-2.7036267E+002
3	0	8.860077776175604E+002	1.4089698E+000	-2.7038385E+002
3	0	8.865077776049293E+002	1.4032445E+000	-2.7035913E+002
3	0	8.870077775922982E+002	1.3990560E+000	-2.7038031E+002
3	0	8.875077775796672E+002	1.3957076E+000	-2.7039447E+002
3	0	8.880077775670361E+002	1.3929268E+000	-2.7039093E+002
3	0	8.885077775544050E+002	1.3904990E+000	-2.7039093E+002
3	0	8.890077775417740E+002	1.3882711E+000	-2.7038385E+002
3	0	8.895077775291429E+002	1.3861873E+000	-2.7035913E+002
3	0	8.900077775165119E+002	1.3843629E+000	-2.7039447E+002
3	0	8.905077775038808E+002	1.3827355E+000	-2.7035559E+002
3	0	8.910077774912497E+002	1.3812319E+000	-2.7037326E+002
3	0	8.915077774786187E+002	1.3798280E+000	-2.7037326E+002
3	0	8.920077774659876E+002	1.3785268E+000	-2.7036618E+002
3	0	8.925077774533565E+002	1.3772727E+000	-2.7037326E+002
3	0	8.930077774407255E+002	1.3760146E+000	-2.7036972E+002
3	0	8.935077774280944E+002	1.3747690E+000	-2.7039801E+002
3	0	8.940077774154634E+002	1.3736670E+000	-2.7039093E+002
3	0	8.945077774028323E+002	1.3726608E+000	-2.7039801E+002
3	0	8.950077773902012E+002	1.3716968E+000	-2.7038742E+002
3	0	8.955077773775702E+002	1.3707899E+000	-2.7037677E+002
3	0	8.960077773649391E+002	1.3699360E+000	-2.7037677E+002
3	0	8.965077773523080E+002	1.3690898E+000	-2.7039093E+002
3	0	8.970077773396770E+002	1.3682076E+000	-2.7036267E+002
3	0	8.975077773270459E+002	1.3672947E+000	-2.7036972E+002
3	0	8.980077773144149E+002	1.3665030E+000	-2.7037326E+002
3	0	8.985077773017838E+002	1.3657906E+000	-2.7037677E+002
3	0	8.990077772891527E+002	1.3651050E+000	-2.7039093E+002
3	0	8.995077772765217E+002	1.3644366E+000	-2.7039447E+002
3	0	9.000077772638906E+002	1.3637818E+000	-2.7037677E+002
3	0	9.005077772512595E+002	1.3631344E+000	-2.7038742E+002
3	0	9.010077772386285E+002	1.3624357E+000	-2.7036972E+002
3	0	9.015077772259974E+002	1.3617033E+000	-2.7038385E+002
3	0	9.020077772133664E+002	1.3610691E+000	-2.7035559E+002
3	0	9.025077772007353E+002	1.3605047E+000	-2.7039801E+002
3	0	9.030077771881042E+002	1.3599627E+000	-2.7037326E+002
3	0	9.035077771754732E+002	1.3594334E+000	-2.7037326E+002
3	0	9.040077771628421E+002	1.3589218E+000	-2.7040155E+002
3	0	9.045077771502110E+002	1.3584127E+000	-2.7037677E+002
3	0	9.050077771375800E+002	1.3578435E+000	-2.7037677E+002
3	0	9.055077771249489E+002	1.3572477E+000	-2.7039447E+002
3	0	9.060077771123179E+002	1.3567643E+000	-2.7035559E+002
3	0	9.065077770996868E+002	1.3563333E+000	-2.7036972E+002
3	0	9.070077770870557E+002	1.3559252E+000	-2.7037677E+002
3	0	9.075077770744247E+002	1.3555174E+000	-2.7039093E+002
3	0	9.080077770617936E+002	1.3551426E+000	-2.7035913E+002
3	0	9.085077770491625E+002	1.3547417E+000	-2.7036972E+002
3	0	9.090077770365315E+002	1.3542829E+000	-2.7038385E+002
3	0	9.095077770239004E+002	1.3537704E+000	-2.7039447E+002
3	0	9.100077770112694E+002	1.3533658E+000	-2.7037677E+002
3	0	9.105077769986383E+002	1.3530023E+000	-2.7040155E+002
3	0	9.110077769860072E+002	1.3526430E+000	-2.7038742E+002
3	0	9.115077769733762E+002	1.3522817E+000	-2.7037677E+002
3	0	9.120077769607451E+002	1.3519268E+000	-2.7035559E+002
3	0	9.125077769481140E+002	1.3515472E+000	-2.7036267E+002
3	0	9.130077769354830E+002	1.3511029E+000	-2.7036972E+002
3	0	9.135077769228519E+002	1.3506111E+000	-2.7036972E+002
3	0	9.140077769102209E+002	1.3502097E+000	-2.7039447E+002
3	0	9.145077768975898E+002	1.3498567E+000	-2.7038385E+002
3	0	9.150077768849587E+002	1.3495083E+000	-2.7037326E+002
3	0	9.155077768723277E+002	1.3491430E+000	-2.7039801E+002
3	0	9.160077768596966E+002	1.3487931E+000	-2.7036618E+002
3	0	9.165077768470655E+002	1.3484128E+000	-2.7035559E+002
3	0	9.170077768344345E+002	1.3479496E+000	-2.7037326E+002
3	0	9.175077768218034E+002	1.3474393E+000	-2.7036267E+002
3	0	9.180077768091724E+002	1.3470278E+000	-2.7036972E+002
3	0	9.185077767965413E+002	1.3466511E+000	-2.7036267E+002
3	0	9.190077767839102E+002	1.3462802E+000	-2.7036618E+002
3	0	9.195077767712792E+002	1.3459054E+000	-2.7037326E+002
3	0	9.200077767586481E+002	1.3455387E+000	-2.7036618E+002
3	0	9.205077767460170E+002	1.3451469E+000	-2.7036618E+002
3	0	9.210077767333860E+002	1.3446728E+000	-2.7037677E+002
3	0	9.215077767207549E+002	1.3441538E+000	-2.7037677E+002
3	0	9.220077767081239E+002	1.3437234E+000	-2.7036618E+002
3	0	9.225077766954928E+002	1.3433356E+000	-2.7038031E+002
3	0	9.230077766828617E+002	1.3429540E+000	-2.7037677E+002
3	0	9.235077766702307E+002	1.3425598E+000	-2.7038742E+002
3	0	9.240077766575996E+002	1.3421850E+000	-2.7036618E+002
3	0	9.245077766449685E+002	1.3417917E+000	-2.7041568E+002
3	0	9.250077766323375E+002	1.3413439E+000	-2.7039447E+002
3	0	9.255077766197064E+002	1.3408537E+000	-2.7034851E+002
3	0	9.260077766070754E+002	1.3404576E+000	-2.7037326E+002
3	0	9.265077765944443E+002	1.3401196E+000	-2.7038031E+002
3	0	9.270077765818132E+002	1.3397785E+000	-2.7036972E+002
3	0	9.275077765691822E+002	1.3394425E+000	-2.7038385E+002
3	0	9.280077765565511E+002	1.3391163E+000	-2.7038031E+002
3	0	9.285077765439200E+002	1.3387637E+000	-2.7039801E+002
3	0	9.290077765312890E+002	1.3383424E+000	-2.7036618E+002
3	0	9.295077765186579E+002	1.3378699E+000	-2.7038385E+002
3	0	9.300077765060269E+002	1.3374932E+000	-2.7039801E+002
3	0	9.305077764933958E+002	1.3371574E+000	-2.7039093E+002
3	0	9.310077764807647E+002	1.3368251E+000	-2.7038385E+002
3	0	9.315077764681337E+002	1.3364893E+000	-2.7037326E+002
3	0	9.320077764555026E+002	1.3361555E+000	-2.7038742E+002
3	0	9.325077764428715E+002	1.3357992E+000	-2.7040155E+002
3	0	9.330077764302405E+002	1.3353809E+000	-2.7037677E+002
3	0	9.335077764176094E+002	1.3348918E+000	-2.7038031E+002
3	0	9.340077764049784E+002	1.3344967E+000	-2.7035559E+002
3	0	9.345077763923473E+002	1.3341509E+000	-2.7038031E+002
3	0	9.350077763797162E+002	1.3337950E+000	-2.7036972E+002
3	0	9.355077763670852E+002	1.3334230E+000	-2.7038031E+002
3	0	9.360077763544541E+002	1.3330665E+000	-2.7036972E+002
3	0	9.365077763418230E+002	1.3326815E+000	-2.7037677E+002
3	0	9.370077763291920E+002	1.3322195E+000	-2.7038031E+002
3	0	9.375077763165609E+002	1.3317169E+000	-2.7038742E+002
3	0	9.380077763039299E+002	1.3312978E+000	-2.7036618E+002
3	0	9.385077762912988E+002	1.3309292E+000	-2.7036972E+002
3	0	9.390077762786677E+002	1.3305635E+000	-2.7037326E+002
3	0	9.395077762660367E+002	1.3301783E+000	-2.7038742E+002
3	0	9.400077762534056E+002	1.3297967E+000	-2.7038031E+002
3	0	9.405077762407745E+002	1.3293935E+000	-2.7036618E+002
3	0	9.410077762281435E+002	1.3289081E+000	-2.7039093E+002
3	0	9.415077762155124E+002	1.3283765E+000	-2.7041568E+002
3	0	9.420077762028814E+002	1.3279378E+000	-2.7037677E+002
3	0	9.425077761902503E+002	1.3275400E+000	-2.7037677E+002
3	0	9.430077761776192E+002	1.3271432E+000	-2.7038031E+002
3	0	9.435077761649882E+002	1.3267444E+000	-2.7037326E+002
3	0	9.440077761523571E+002	1.3263599E+000	-2.7038031E+002
3	0	9.445077761397260E+002	1.3259622E+000	-2.7038742E+002
3	0	9.450077761270950E+002	1.3255063E+000	-2.7038031E+002
3	0	9.450081761270849E+002	1.3252634E+000	-2.7040506E+002
3	0	9.905087749776430E+002	1.4175879E+000	-2.7038385E+002
3	0	9.910087749650120E+002	1.4090914E+000	-2.7039801E+002
3	0	9.915087749523809E+002	1.4033693E+000	-2.7038742E+002
3	0	9.920087749397499E+002	1.3991870E+000	-2.7036267E+002
3	0	9.925087749271188E+002	1.3958377E+000	-2.7039447E+002
3	0	9.930087749144877E+002	1.3929449E+000	-2.7035913E+002
3	0	9.935087749018567E+002	1.3903428E+000	-2.7036618E+002
3	0	9.940087748892256E+002	1.3881178E+000	-2.7037677E+002
3	0	9.945087748765945E+002	1.3861474E+000	-2.7039093E+002
3	0	9.950087748639635E+002	1.3843641E+000	-2.7041214E+002
3	0	9.955087748513324E+002	1.3827083E+000	-2.7039093E+002
3	0	9.960087748387014E+002	1.3811895E+000	-2.7035913E+002
3	0	9.965087748260703E+002	1.3797389E+000	-2.7039801E+002
3	0	9.970087748134392E+002	1.3783151E+000	-2.7036618E+002
3	0	9.975087748008082E+002	1.3769077E+000	-2.7037326E+002
3	0	9.980087747881771E+002	1.3756524E+000	-2.7038742E+002
3	0	9.985087747755460E+002	1.3745217E+000	-2.7036267E+002
3	0	9.990087747629150E+002	1.3734460E+000	-2.7036618E+002
3	0	9.995087747502839E+002	1.3724260E+000	-2.7038031E+002
3	0	1.000008774737653E+003	1.3714643E+000	-2.7039801E+002
3	0	1.000508774725022E+003	1.3705262E+000	-2.7037677E+002
3	0	1.001008774712391E+003	1.3695551E+000	-2.7038385E+002
3	0	1.001508774699760E+003	1.3685575E+000	-2.7039093E+002
3	0	1.002008774687129E+003	1.3676845E+000	-2.7036618E+002
3	0	1.002508774674498E+003	1.3668860E+000	-2.7036618E+002
3	0	1.003008774661866E+003	1.3661190E+000	-2.7039093E+002
3	0	1.003508774649235E+003	1.3653781E+000	-2.7036618E+002
3	0	1.004008774636604E+003	1.3646848E+000	-2.7040155E+002
3	0	1.004508774623973E+003	1.3639929E+000	-2.7037677E+002
3	0	1.005008774611342E+003	1.3632650E+000	-2.7038742E+002
3	0	1.005508774598711E+003	1.3625108E+000	-2.7037677E+002
3	0	1.006008774586080E+003	1.3618768E+000	-2.7037677E+002
3	0	1.006508774573449E+003	1.3613110E+000	-2.7037677E+002
3	0	1.007008774560818E+003	1.3607776E+000	-2.7038742E+002
3	0	1.007508774548187E+003	1.3602657E+000	-2.7038031E+002
3	0	1.008008774535556E+003	1.3597765E+000	-2.7035205E+002
3	0	1.008508774522925E+003	1.3592776E+000	-2.7036618E+002
3	0	1.009008774510294E+003	1.3587203E+000	-2.7041214E+002
3	0	1.009508774497663E+003	1.3581320E+000	-2.7038742E+002
3	0	1.010008774485032E+003	1.3576399E+000	-2.7037326E+002
3	0	1.010508774472401E+003	1.3572173E+000	-2.7039447E+002
3	0	1.011008774459769E+003	1.3567978E+000	-2.7037326E+002
3	0	1.011508774447138E+003	1.3563796E+000	-2.7038031E+002
3	0	1.012008774434507E+003	1.3559856E+000	-2.7039093E+002
3	0	1.012508774421876E+003	1.3555663E+000	-2.7037677E+002
3	0	1.013008774409245E+003	1.3550889E+000	-2.7037326E+002
3	0	1.013508774396614E+003	1.3545645E+000	-2.7036972E+002
3	0	1.014008774383983E+003	1.3541353E+000	-2.7039093E+002
3	0	1.014508774371352E+003	1.3537482E+000	-2.7039801E+002
3	0	1.015008774358721E+003	1.3533673E+000	-2.7038031E+002
3	0	1.015508774346090E+003	1.3529793E+000	-2.7038385E+002
3	0	1.016008774333459E+003	1.3526052E+000	-2.7037326E+002
3	0	1.016508774320828E+003	1.3522092E+000	-2.7037677E+002
3	0	1.017008774308197E+003	1.3517481E+000	-2.7039447E+002
3	0	1.017508774295566E+003	1.3512326E+000	-2.7038385E+002
3	0	1.018008774282935E+003	1.3508079E+000	-2.7036618E+002
3	0	1.018508774270304E+003	1.3504243E+000	-2.7038385E+002
3	0	1.019008774257672E+003	1.3500460E+000	-2.7036618E+002
3	0	1.019508774245041E+003	1.3496646E+000	-2.7040506E+002
3	0	1.020008774232410E+003	1.3492786E+000	-2.7038385E+002
3	0	1.020508774219779E+003	1.3488659E+000	-2.7041568E+002
3	0	1.021008774207148E+003	1.3483871E+000	-2.7035913E+002
3	0	1.021508774194517E+003	1.3478613E+000	-2.7040155E+002
3	0	1.022008774181886E+003	1.3474189E+000	-2.7038742E+002
3	0	1.022508774169255E+003	1.3470356E+000	-2.7038742E+002
3	0	1.023008774156624E+003	1.3466415E+000	-2.7040506E+002
3	0	1.023508774143993E+003	1.3462516E+000	-2.7036618E+002
3	0	1.024008774131362E+003	1.3458740E+000	-2.7036618E+002
3	0	1.024508774118731E+003	1.3454847E+000	-2.7038742E+002
3	0	1.025008774106100E+003	1.3450302E+000	-2.7037677E+002
3	0	1.025508774093469E+003	1.3445315E+000	-2.7038742E+002
3	0	1.026008774080838E+003	1.3441361E+000	-2.7035913E+002
3	0	1.026508774068207E+003	1.3437967E+000	-2.7039801E+002
3	0	1.027008774055575E+003	1.3434622E+000	-2.7039093E+002
3	0	1.027508774042944E+003	1.3431270E+000	-2.7037677E+002
3	0	1.028008774030313E+003	1.3428096E+000	-2.7037326E+002
3	0	1.028508774017682E+003	1.3424685E+000	-2.7037677E+002
3	0	1.029008774005051E+003	1.3420676E+000	-2.7038031E+002
3	0	1.029508773992420E+003	1.3416139E+000	-2.7040860E+002
3	0	1.030008773979789E+003	1.3412501E+000	-2.7035205E+002
3	0	1.030508773967158E+003	1.3409312E+000	-2.7040155E+002
3	0	1.031008773954527E+003	1.3406184E+000	-2.7036618E+002
3	0	1.031508773941896E+003	1.3402938E+000	-2.7036972E+002
3	0	1.032008773929265E+003	1.3399737E+000	-2.7039093E+002
3	0	1.032508773916634E+003	1.3396269E+000	-2.7037326E+002
3	0	1.033008773904003E+003	1.3392156E+000	-2.7038385E+002
3	0	1.033508773891372E+003	1.3387520E+000	-2.7039093E+002
3	0	1.034008773878741E+003	1.3383723E+000	-2.7037677E+002
3	0	1.034508773866110E+003	1.3380401E+000	-2.7036618E+002
3	0	1.035008773853478E+003	1.3377066E+000	-2.7036618E+002
3	0	1.035508773840847E+003	1.3373600E+000	-2.7038031E+002
3	0	1.036008773828216E+003	1.3370256E+000	-2.7038742E+002
3	0	1.036508773815585E+003	1.3366635E+000	-2.7036618E+002
3	0	1.037008773802954E+003	1.3362243E+000	-2.7037677E+002
3	0	1.037508773790323E+003	1.3357425E+000	-2.7038742E+002
3	0	1.038008773777692E+003	1.3353431E+000	-2.7038385E+002
3	0	1.038508773765061E+003	1.3349833E+000	-2.7034851E+002
3	0	1.039008773752430E+003	1.3346127E+000	-2.7037326E+002
3	0	1.039508773739799E+003	1.3342494E+000	-2.7042273E+002
3	0	1.040008773727168E+003	1.3338869E+000	-2.7036972E+002
3	0	1.040508773714537E+003	1.3334942E+000	-2.7036618E+002
3	0	1.041008773701906E+003	1.3330326E+000	-2.7037326E+002
3	0	1.041508773689275E+003	1.3325158E+000	-2.7036618E+002
3	0	1.042008773676644E+003	1.3320845E+000	-2.7038031E+002
3	0	1.042508773664013E+003	1.3317071E+000	-2.7036972E+002
3	0	1.043008773651381E+003	1.3313130E+000	-2.7035559E+002
3	0	1.043508773638750E+003	1.3309184E+000	-2.7036267E+002
3	0	1.044008773626119E+003	1.3305461E+000	-2.7035559E+002
3	0	1.044508773613488E+003	1.3301449E+000	-2.7037677E+002
3	0	1.045008773600857E+003	1.3296754E+000	-2.7038385E+002
3	0	1.045508773588226E+003	1.3291942E+000	-2.7035559E+002
3	0	1.046008773575595E+003	1.3287909E+000	-2.7036972E+002
3	0	1.046508773562964E+003	1.3284445E+000	-2.7039093E+002
3	0	1.047008773550333E+003	1.3281113E+000	-2.7038742E+002
3	0	1.047508773537702E+003	1.3277822E+000	-2.7038742E+002
3	0	1.048008773525071E+003	1.3274469E+000	-2.7037677E+002
3	0	1.048508773512440E+003	1.3270985E+000	-2.7038385E+002
3	0	1.049008773499809E+003	1.3266830E+000	-2.7035559E+002
3	0	1.049508773487178E+003	1.3262242E+000	-2.7037326E+002
3	0	1.050008773474547E+003	1.3258508E+000	-2.7036972E+002
3	0	1.050009173474537E+003	1.3256832E+000	-2.7038031E+002
3	0	1.095509772325095E+003	1.4176847E+000	-2.7036972E+002
3	0	1.096009772312464E+003	1.4092023E+000	-2.7039093E+002
3	0	1.096509772299833E+003	1.4034351E+000	-2.7036267E+002
3	0	1.097009772287201E+003	1.3991131E+000	-2.7038385E+002
3	0	1.097509772274570E+003	1.3955600E+000	-2.7038385E+002
3	0	1.098009772261939E+003	1.3926375E+000	-2.7038031E+002
3	0	1.098509772249308E+003	1.3901418E+000	-2.7037677E+002
3	0	1.099009772236677E+003	1.3879415E+000	-2.7040155E+002
3	0	1.099509772224046E+003	1.3859462E+000	-2.7038031E+002
3	0	1.100009772211415E+003	1.3841431E+000	-2.7038031E+002
3	0	1.100509772198784E+003	1.3824693E+000	-2.7036972E+002
3	0	1.101009772186153E+003	1.3808421E+000	-2.7036267E+002
3	0	1.101509772173522E+003	1.3792669E+000	-2.7038031E+002
3	0	1.102009772160891E+003	1.3778507E+000	-2.7036618E+002
3	0	1.102509772148260E+003	1.3765537E+000	-2.7038385E+002
3	0	1.103009772135629E+003	1.3753299E+000	-2.7039447E+002
3	0	1.103509772122998E+003	1.3741801E+000	-2.7037677E+002
3	0	1.104009772110367E+003	1.3730839E+000	-2.7036267E+002
3	0	1.104509772097736E+003	1.3720241E+000	-2.7040155E+002
3	0	1.105009772085104E+003	1.3709545E+000	-2.7036618E+002
3	0	1.105509772072473E+003	1.3698894E+000	-2.7036267E+002
3	0	1.106009772059842E+003	1.3689492E+000	-2.7038031E+002
3	0	1.106509772047211E+003	1.3681109E+000	-2.7039093E+002
3	0	1.107009772034580E+003	1.3673121E+000	-2.7035913E+002
3	0	1.107509772021949E+003	1.3665488E+000	-2.7041214E+002
3	0	1.108009772009318E+003	1.3658332E+000	-2.7037677E+002
3	0	1.108509771996687E+003	1.3651347E+000	-2.7039093E+002
3	0	1.109009771984056E+003	1.3643976E+000	-2.7037326E+002
3	0	1.109509771971425E+003	1.3636372E+000	-2.7037326E+002
3	0	1.110009771958794E+003	1.3629844E+000	-2.7038031E+002
3	0	1.110509771946163E+003	1.3623958E+000	-2.7037677E+002
3	0	1.111009771933532E+003	1.3618245E+000	-2.7037677E+002
3	0	1.111509771920901E+003	1.3612700E+000	-2.7039801E+002
3	0	1.112009771908270E+003	1.3607523E+000	-2.7037677E+002
3	0	1.112509771895639E+003	1.3602284E+000	-2.7037326E+002
3	0	1.113009771883007E+003	1.3596489E+000	-2.7038742E+002
3	0	1.113509771870376E+003	1.3590236E+000	-2.7037677E+002
3	0	1.114009771857745E+003	1.3584998E+000	-2.7038385E+002
3	0	1.114509771845114E+003	1.3580295E+000	-2.7036972E+002
3	0	1.115009771832483E+003	1.3575546E+000	-2.7037677E+002
3	0	1.115509771819852E+003	1.3571031E+000	-2.7036972E+002
3	0	1.116009771807221E+003	1.3566645E+000	-2.7038385E+002
3	0	1.116509771794590E+003	1.3561972E+000	-2.7039093E+002
3	0	1.117009771781959E+003	1.3556848E+000	-2.7039801E+002
3	0	1.117509771769328E+003	1.3551326E+000	-2.7037326E+002
3	0	1.118009771756697E+003	1.3546649E+000	-2.7039093E+002
3	0	1.118509771744066E+003	1.3542429E+000	-2.7036972E+002
3	0	1.119009771731435E+003	1.3538189E+000	-2.7038385E+002
3	0	1.119509771718804E+003	1.3534057E+000	-2.7038385E+002
3	0	1.120009771706173E+003	1.3529974E+000	-2.7038385E+002
3	0	1.120509771693542E+003	1.3525724E+000	-2.7038742E+002
3	0	1.121009771680910E+003	1.3520867E+000	-2.7036267E+002
3	0	1.121509771668279E+003	1.3515445E+000	-2.7037677E+002
3	0	1.122009771655648E+003	1.3510979E+000	-2.7035913E+002
3	0	1.122509771643017E+003	1.3506933E+000	-2.7036972E+002
3	0	1.123009771630386E+003	1.3502891E+000	-2.7037677E+002
3	0	1.123509771617755E+003	1.3498849E+000	-2.7037326E+002
3	0	1.124009771605124E+003	1.3494967E+000	-2.7038742E+002
3	0	1.124509771592493E+003	1.3490838E+000	-2.7036972E+002
3	0	1.125009771579862E+003	1.3486195E+000	-2.7038031E+002
3	0	1.125509771567231E+003	1.3481145E+000	-2.7037326E+002
3	0	1.126009771554600E+003	1.3477032E+000	-2.7039093E+002
3	0	1.126509771541969E+003	1.3473281E+000	-2.7037677E+002
3	0	1.127009771529338E+003	1.3469747E+000	-2.7039093E+002
3	0	1.127509771516707E+003	1.3466251E+000	-2.7038742E+002
3	0	1.128009771504076E+003	1.3462957E+000	-2.7037326E+002
3	0	1.128509771491445E+003	1.3459588E+000	-2.7038385E+002
3	0	1.129009771478813E+003	1.3455670E+000	-2.7039447E+002
3	0	1.129509771466182E+003	1.3451433E+000	-2.7036618E+002
3	0	1.130009771453551E+003	1.3447944E+000	-2.7038742E+002
3	0	1.130509771440920E+003	1.3444904E+000	-2.7039093E+002
3	0	1.131009771428289E+003	1.3441828E+000	-2.7036972E+002
3	0	1.131509771415658E+003	1.3438767E+000	-2.7034143E+002
3	0	1.132009771403027E+003	1.3435661E+000	-2.7037326E+002
3	0	1.132509771390396E+003	1.3432305E+000	-2.7037677E+002
3	0	1.133009771377765E+003	1.3428283E+000	-2.7037326E+002
3	0	1.133509771365134E+003	1.3423769E+000	-2.7037677E+002
3	0	1.134009771352503E+003	1.3420154E+000	-2.7039801E+002
3	0	1.134509771339872E+003	1.3416908E+000	-2.7038385E+002
3	0	1.135009771327241E+003	1.3413560E+000	-2.7036267E+002
3	0	1.135509771314610E+003	1.3410170E+000	-2.7036267E+002
3	0	1.136009771301979E+003	1.3406833E+000	-2.7038742E+002
3	0	1.136509771289348E+003	1.3403291E+000	-2.7037677E+002
3	0	1.137009771276716E+003	1.3398958E+000	-2.7037677E+002
3	0	1.137509771264085E+003	1.3394309E+000	-2.7036618E+002
3	0	1.138009771251454E+003	1.3390414E+000	-2.7038385E+002
3	0	1.138509771238823E+003	1.3386836E+000	-2.7040860E+002
3	0	1.139009771226192E+003	1.3383228E+000	-2.7036267E+002
3	0	1.139509771213561E+003	1.3379523E+000	-2.7039093E+002
3	0	1.140009771200930E+003	1.3375899E+000	-2.7038031E+002
3	0	1.140509771188299E+003	1.3372047E+000	-2.7038031E+002
3	0	1.141009771175668E+003	1.3367542E+000	-2.7039093E+002
3	0	1.141509771163037E+003	1.3362651E+000	-2.7038742E+002
3	0	1.142009771150406E+003	1.3358557E+000	-2.7038031E+002
3	0	1.142509771137775E+003	1.3354830E+000	-2.7038742E+002
3	0	1.143009771125144E+003	1.3350989E+000	-2.7040506E+002
3	0	1.143509771112513E+003	1.3347056E+000	-2.7035205E+002
3	0	1.144009771099882E+003	1.3343256E+000	-2.7038031E+002
3	0	1.144509771087251E+003	1.3339212E+000	-2.7038385E+002
3	0	1.145009771074619E+003	1.3334445E+000	-2.7039447E+002
3	0	1.145509771061988E+003	1.3329467E+000	-2.7037677E+002
3	0	1.146009771049357E+003	1.3325329E+000	-2.7035913E+002
3	0	1.146509771036726E+003	1.3321623E+000	-2.7038385E+002
3	0	1.147009771024095E+003	1.3318051E+000	-2.7037677E+002
3	0	1.147509771011464E+003	1.3314590E+000	-2.7037326E+002
3	0	1.148009770998833E+003	1.3311251E+000	-2.7037677E+002
3	0	1.148509770986202E+003	1.3307785E+000	-2.7036618E+002
3	0	1.149009770973571E+003	1.3303652E+000	-2.7036972E+002
3	0	1.149509770960940E+003	1.3299060E+000	-2.7040506E+002
3	0	1.150009770948309E+003	1.3295414E+000	-2.7037326E+002
3	0	1.150509770935678E+003	1.3292224E+000	-2.7039093E+002
3	0	1.151009770923047E+003	1.3288841E+000	-2.7039093E+002
3	0	1.151509770910416E+003	1.3285544E+000	-2.7037326E+002
3	0	1.152009770897785E+003	1.3282197E+000	-2.7036972E+002
3	0	1.152509770885154E+003	1.3278645E+000	-2.7040506E+002
3	0	1.153009770872522E+003	1.3274429E+000	-2.7036267E+002
3	0	1.153509770859891E+003	1.3269792E+000	-2.7037326E+002
3	0	1.154009770847260E+003	1.3265955E+000	-2.7035913E+002
3	0	1.154509770834629E+003	1.3262513E+000	-2.7037326E+002
3	0	1.155009770821998E+003	1.3259027E+000	-2.7037677E+002
3	0	1.155010170821988E+003	1.3257023E+000	-2.7041568E+002