EC-Lab ASCII FILE
Nb header lines : 55                          

Open Circuit Voltage

Run on channel : 1 (SN 81504)
User : 
CE vs. WE compliance from -10 V to 10 V
Electrode connection : standard
Potential control : Ewe
Ewe ctrl range : min = -2.50 V, max = 2.50 V
Safety Limits :
	Do not start on E overload
Acquisition started on : 05/10/2026 02:27:32.112
Loaded Setting File :  C:\PEM-WE_measurements\2026\372_IV_IV IrOx, 5 min Pt, 30 min C, etched cathode\new station\Loopeis new\1,46 V different time gaps closed cell\Loopeis 1,46V_60s_3_PEIS from 6500Hz to 1000Hz.mps
Saved on :
	File : L_13_Loopeis 1,46V_60s_3_PEIS from 6500Hz to 1000Hz_16_OCV_C01.mpr
	Directory : C:\PEM-WE_measurements\2026\372_IV_IV IrOx, 5 min Pt, 30 min C, etched cathode\new station\Loopeis new\1,46 V different time gaps closed cell\
	Host : 192.168.0.2
Device : SP-150e (SN .005491)
Address : 192.168.0.91
EC-LAB for windows v11.71 (software)
Internet server v28.00 (firmware)
Command interpretor v14.01 (firmware)
Electrode material : 
Initial state : 
Electrolyte : 
Comments : 
Current amplifier : SP-150eB-20A
Electrode surface area : 0.001 cm²
Characteristic mass : 0.001 g
Equivalent Weight : 0.000 g/eq.
Density : 0.000 g/cm3
Volume (V) : 0.001 cm³
Record Analogic IN 1
Text export
   Mode : Standard
   Time format : Elapsed
Cycle Definition : Charge/Discharge alternance
External device configuration :
   device type : Temperature Probe
   device name : Other
   Analog IN 1 : 
      unit : T/Â°C
      max : 100.000 at 2.000 V
      min : 0.000 at 1.460 V
tR (h:m:s)          0:01:0.0000         
dER/dt (mV/h)       1.0                 
record              <Ewe>               
dER (mV)            10.00               
dtR (s)             0.5000              
E range min (V)     -2.500              
E range max (V)     2.500               

mode	error	time/s	<Ewe/V>	Analog IN 1/V	
3	0	7.869217936859786E+002	1.1858052E+000	-2.7039801E+002
3	0	7.874217936733476E+002	1.2590871E+000	-2.7034851E+002
3	0	7.879217936607165E+002	1.2629987E+000	-2.7038031E+002
3	0	7.884217936480854E+002	1.2652705E+000	-2.7039801E+002
3	0	7.889217936354544E+002	1.2667682E+000	-2.7039447E+002
3	0	7.894217936228233E+002	1.2678050E+000	-2.7037326E+002
3	0	7.899217936101923E+002	1.2685013E+000	-2.7038385E+002
3	0	7.904217935975612E+002	1.2689681E+000	-2.7036972E+002
3	0	7.909217935849301E+002	1.2693751E+000	-2.7038385E+002
3	0	7.914217935722991E+002	1.2696987E+000	-2.7038385E+002
3	0	7.919217935596680E+002	1.2699363E+000	-2.7035559E+002
3	0	7.924217935470369E+002	1.2701046E+000	-2.7038385E+002
3	0	7.929217935344059E+002	1.2702183E+000	-2.7039801E+002
3	0	7.934217935217748E+002	1.2702688E+000	-2.7038742E+002
3	0	7.939217935091438E+002	1.2702214E+000	-2.7040155E+002
3	0	7.944217934965127E+002	1.2701178E+000	-2.7038031E+002
3	0	7.949217934838816E+002	1.2700756E+000	-2.7039093E+002
3	0	7.954217934712506E+002	1.2700545E+000	-2.7037326E+002
3	0	7.959217934586195E+002	1.2700107E+000	-2.7038031E+002
3	0	7.964217934459884E+002	1.2699529E+000	-2.7037677E+002
3	0	7.969217934333574E+002	1.2699050E+000	-2.7037677E+002
3	0	7.974217934207263E+002	1.2698190E+000	-2.7037677E+002
3	0	7.979217934080953E+002	1.2696631E+000	-2.7035559E+002
3	0	7.984217933954642E+002	1.2694900E+000	-2.7038385E+002
3	0	7.989217933828331E+002	1.2694235E+000	-2.7036267E+002
3	0	7.994217933702021E+002	1.2693989E+000	-2.7039093E+002
3	0	7.999217933575710E+002	1.2693852E+000	-2.7038031E+002
3	0	8.004217933449399E+002	1.2693771E+000	-2.7038031E+002
3	0	8.009217933323089E+002	1.2693820E+000	-2.7038742E+002
3	0	8.014217933196778E+002	1.2693666E+000	-2.7038385E+002
3	0	8.019217933070468E+002	1.2692858E+000	-2.7039801E+002
3	0	8.024217932944157E+002	1.2691705E+000	-2.7038385E+002
3	0	8.029217932817846E+002	1.2691576E+000	-2.7038031E+002
3	0	8.034217932691536E+002	1.2691860E+000	-2.7036618E+002
3	0	8.039217932565225E+002	1.2692076E+000	-2.7038742E+002
3	0	8.044217932438914E+002	1.2692183E+000	-2.7035913E+002
3	0	8.049217932312604E+002	1.2692291E+000	-2.7038742E+002
3	0	8.054217932186293E+002	1.2692039E+000	-2.7037677E+002
3	0	8.059217932059983E+002	1.2691065E+000	-2.7036267E+002
3	0	8.064217931933672E+002	1.2689729E+000	-2.7038031E+002
3	0	8.069217931807361E+002	1.2689276E+000	-2.7036267E+002
3	0	8.074217931681051E+002	1.2689199E+000	-2.7038742E+002
3	0	8.079217931554740E+002	1.2689012E+000	-2.7037677E+002
3	0	8.084217931428429E+002	1.2688726E+000	-2.7037677E+002
3	0	8.089217931302119E+002	1.2688402E+000	-2.7039447E+002
3	0	8.094217931175808E+002	1.2687787E+000	-2.7036972E+002
3	0	8.099217931049498E+002	1.2686273E+000	-2.7037326E+002
3	0	8.104217930923187E+002	1.2684299E+000	-2.7037677E+002
3	0	8.109217930796876E+002	1.2683297E+000	-2.7036972E+002
3	0	8.114217930670566E+002	1.2682627E+000	-2.7038742E+002
3	0	8.119217930544255E+002	1.2681899E+000	-2.7038742E+002
3	0	8.124217930417944E+002	1.2681057E+000	-2.7037326E+002
3	0	8.129217930291634E+002	1.2680196E+000	-2.7039447E+002
3	0	8.134217930165323E+002	1.2679003E+000	-2.7037677E+002
3	0	8.139217930039013E+002	1.2677064E+000	-2.7038385E+002
3	0	8.144217929912702E+002	1.2674633E+000	-2.7037326E+002
3	0	8.149217929786391E+002	1.2673202E+000	-2.7039447E+002
3	0	8.154217929660081E+002	1.2672111E+000	-2.7038385E+002
3	0	8.159217929533770E+002	1.2670836E+000	-2.7039801E+002
3	0	8.164217929407459E+002	1.2669489E+000	-2.7038031E+002
3	0	8.169217929281149E+002	1.2668155E+000	-2.7038031E+002
3	0	8.174217929154838E+002	1.2666574E+000	-2.7039093E+002
3	0	8.179217929028528E+002	1.2664305E+000	-2.7038031E+002
3	0	8.184217928902217E+002	1.2661752E+000	-2.7036618E+002
3	0	8.189217928775906E+002	1.2660246E+000	-2.7038031E+002
3	0	8.194217928649596E+002	1.2659274E+000	-2.7037677E+002
3	0	8.199217928523285E+002	1.2658346E+000	-2.7036618E+002
3	0	8.204217928396974E+002	1.2657399E+000	-2.7037326E+002
3	0	8.209217928270664E+002	1.2656566E+000	-2.7039093E+002
3	0	8.214217928144353E+002	1.2655323E+000	-2.7040155E+002
3	0	8.219217928018043E+002	1.2653365E+000	-2.7038742E+002
3	0	8.224217927891732E+002	1.2651044E+000	-2.7036972E+002
3	0	8.229217927765421E+002	1.2649730E+000	-2.7041214E+002
3	0	8.234217927639111E+002	1.2648911E+000	-2.7036267E+002
3	0	8.239217927512800E+002	1.2647997E+000	-2.7038385E+002
3	0	8.244217927386489E+002	1.2646945E+000	-2.7038031E+002
3	0	8.249217927260179E+002	1.2645959E+000	-2.7037326E+002
3	0	8.254217927133868E+002	1.2644613E+000	-2.7039447E+002
3	0	8.259217927007558E+002	1.2642483E+000	-2.7038742E+002
3	0	8.264217926881247E+002	1.2639828E+000	-2.7038031E+002
3	0	8.269217926754936E+002	1.2638117E+000	-2.7036972E+002
3	0	8.274217926628626E+002	1.2636856E+000	-2.7037326E+002
3	0	8.279217926502315E+002	1.2635502E+000	-2.7037326E+002
3	0	8.284217926376004E+002	1.2633924E+000	-2.7038742E+002
3	0	8.289217926249694E+002	1.2632312E+000	-2.7037326E+002
3	0	8.294217926123383E+002	1.2630374E+000	-2.7034143E+002
3	0	8.299217925997073E+002	1.2627702E+000	-2.7039093E+002
3	0	8.304217925870762E+002	1.2624693E+000	-2.7036618E+002
3	0	8.309217925744451E+002	1.2622561E+000	-2.7039093E+002
3	0	8.314217925618141E+002	1.2620778E+000	-2.7037677E+002
3	0	8.319217925491830E+002	1.2619017E+000	-2.7037677E+002
3	0	8.324217925365519E+002	1.2617129E+000	-2.7034851E+002
3	0	8.329217925239209E+002	1.2615198E+000	-2.7034851E+002
3	0	8.334217925112898E+002	1.2612907E+000	-2.7038031E+002
3	0	8.339217924986588E+002	1.2609868E+000	-2.7038031E+002
3	0	8.344217924860277E+002	1.2606333E+000	-2.7035205E+002
3	0	8.349217924733966E+002	1.2603865E+000	-2.7037326E+002
3	0	8.354217924607656E+002	1.2601694E+000	-2.7037677E+002
3	0	8.359217924481345E+002	1.2599430E+000	-2.7035559E+002
3	0	8.364217924355034E+002	1.2597187E+000	-2.7036972E+002
3	0	8.369217924228724E+002	1.2594987E+000	-2.7034851E+002
3	0	8.374217924102413E+002	1.2592500E+000	-2.7038742E+002
3	0	8.379217923976103E+002	1.2589338E+000	-2.7035559E+002
3	0	8.384217923849792E+002	1.2585782E+000	-2.7036972E+002
3	0	8.389217923723481E+002	1.2583343E+000	-2.7036618E+002
3	0	8.394217923597171E+002	1.2581514E+000	-2.7040506E+002
3	0	8.399217923470860E+002	1.2579662E+000	-2.7036618E+002
3	0	8.404217923344549E+002	1.2577876E+000	-2.7038031E+002
3	0	8.409217923218239E+002	1.2576227E+000	-2.7035205E+002
3	0	8.414217923091928E+002	1.2574267E+000	-2.7038742E+002
3	0	8.419217922965618E+002	1.2571678E+000	-2.7037326E+002
3	0	8.424217922839307E+002	1.2568667E+000	-2.7039093E+002
3	0	8.429217922712996E+002	1.2566628E+000	-2.7038031E+002
3	0	8.434217922586686E+002	1.2565175E+000	-2.7039447E+002
3	0	8.439217922460375E+002	1.2563605E+000	-2.7038031E+002
3	0	8.444217922334065E+002	1.2561944E+000	-2.7036618E+002
3	0	8.449217922207754E+002	1.2560363E+000	-2.7039801E+002
3	0	8.454217922081443E+002	1.2558371E+000	-2.7040506E+002
3	0	8.459217921955133E+002	1.2555517E+000	-2.7040506E+002
3	0	8.464217921828822E+002	1.2552277E+000	-2.7038385E+002
3	0	8.464463921822608E+002	1.2550988E+000	-2.7040860E+002