EC-Lab ASCII FILE
Nb header lines : 55                          

Open Circuit Voltage

Run on channel : 1 (SN 81504)
User : 
CE vs. WE compliance from -10 V to 10 V
Electrode connection : standard
Potential control : Ewe
Ewe ctrl range : min = -2.50 V, max = 2.50 V
Safety Limits :
	Do not start on E overload
Acquisition started on : 05/10/2026 10:21:59.442
Loaded Setting File :  C:\PEM-WE_measurements\2026\372_IV_IV IrOx, 5 min Pt, 30 min C, etched cathode\new station\Loopeis new\1,46 V different time gaps closed cell\Loopeis 1,46V_180s_5_PEIS from 65Hz to 10Hz.mps
Saved on :
	File : L_30_Loopeis 1,46V_180s_5_PEIS from 65Hz to 10Hz_12_OCV_C01.mpr
	Directory : C:\PEM-WE_measurements\2026\372_IV_IV IrOx, 5 min Pt, 30 min C, etched cathode\new station\Loopeis new\1,46 V different time gaps closed cell\
	Host : 192.168.0.2
Device : SP-150e (SN .005491)
Address : 192.168.0.91
EC-LAB for windows v11.71 (software)
Internet server v28.00 (firmware)
Command interpretor v14.01 (firmware)
Electrode material : 
Initial state : 
Electrolyte : 
Comments : 
Current amplifier : SP-150eB-20A
Electrode surface area : 0.001 cm²
Characteristic mass : 0.001 g
Equivalent Weight : 0.000 g/eq.
Density : 0.000 g/cm3
Volume (V) : 0.001 cm³
Record Analogic IN 1
Text export
   Mode : Standard
   Time format : Elapsed
Cycle Definition : Charge/Discharge alternance
External device configuration :
   device type : Temperature Probe
   device name : Other
   Analog IN 1 : 
      unit : T/Â°C
      max : 100.000 at 2.000 V
      min : 0.000 at 1.460 V
tR (h:m:s)          0:03:0.0000         
dER/dt (mV/h)       1.0                 
record              <Ewe>               
dER (mV)            10.00               
dtR (s)             0.5000              
E range min (V)     -2.500              
E range max (V)     2.500               

mode	error	time/s	<Ewe/V>	Analog IN 1/V	
3	0	1.394706990903942E+003	1.2926558E+000	-2.7037326E+002
3	0	1.395206990891311E+003	1.2995270E+000	-2.7037677E+002
3	0	1.395706990878680E+003	1.2942196E+000	-2.7037677E+002
3	0	1.396206990866049E+003	1.2823657E+000	-2.7037326E+002
3	0	1.396706990853418E+003	1.2620585E+000	-2.7038385E+002
3	0	1.397206990840787E+003	1.2290969E+000	-2.7037677E+002
3	0	1.397706990828156E+003	1.1734228E+000	-2.7036972E+002
3	0	1.398206990815524E+003	1.0434920E+000	-2.7038031E+002
3	0	1.398706990802893E+003	6.5622383E-001	-2.7037677E+002
3	0	1.399206990790262E+003	4.5847321E-001	-2.7037677E+002
3	0	1.399706990777631E+003	4.0450722E-001	-2.7040506E+002
3	0	1.400206990765000E+003	3.9153823E-001	-2.7035913E+002
3	0	1.400706990752369E+003	3.8902578E-001	-2.7036618E+002
3	0	1.401206990739738E+003	3.8849866E-001	-2.7037326E+002
3	0	1.401706990727107E+003	3.8803983E-001	-2.7038031E+002
3	0	1.402206990714476E+003	3.8754922E-001	-2.7039801E+002
3	0	1.402706990701845E+003	3.8718489E-001	-2.7039093E+002
3	0	1.403206990689214E+003	3.8671154E-001	-2.7037677E+002
3	0	1.403706990676583E+003	3.8627622E-001	-2.7036972E+002
3	0	1.404206990663952E+003	3.8593900E-001	-2.7037677E+002
3	0	1.404706990651321E+003	3.8619229E-001	-2.7038031E+002
3	0	1.405206990638690E+003	3.8645828E-001	-2.7036618E+002
3	0	1.405706990626059E+003	3.8653651E-001	-2.7039093E+002
3	0	1.406206990613427E+003	3.8655370E-001	-2.7037326E+002
3	0	1.406706990600796E+003	3.8656878E-001	-2.7037677E+002
3	0	1.407206990588165E+003	3.8648534E-001	-2.7038031E+002
3	0	1.407706990575534E+003	3.8627160E-001	-2.7036618E+002
3	0	1.408206990562903E+003	3.8618138E-001	-2.7037677E+002
3	0	1.408706990550272E+003	3.8657182E-001	-2.7038385E+002
3	0	1.409206990537641E+003	3.8692829E-001	-2.7036618E+002
3	0	1.409706990525010E+003	3.8710091E-001	-2.7036618E+002
3	0	1.410206990512379E+003	3.8717532E-001	-2.7035559E+002
3	0	1.410706990499748E+003	3.8726828E-001	-2.7037326E+002
3	0	1.411206990487117E+003	3.8729781E-001	-2.7036972E+002
3	0	1.411706990474486E+003	3.8712278E-001	-2.7036267E+002
3	0	1.412206990461855E+003	3.8702223E-001	-2.7040155E+002
3	0	1.412706990449224E+003	3.8737237E-001	-2.7036972E+002
3	0	1.413206990436593E+003	3.8770735E-001	-2.7036267E+002
3	0	1.413706990423962E+003	3.8785732E-001	-2.7039093E+002
3	0	1.414206990411330E+003	3.8790384E-001	-2.7038031E+002
3	0	1.414706990398699E+003	3.8797984E-001	-2.7038031E+002
3	0	1.415206990386068E+003	3.8797665E-001	-2.7035913E+002
3	0	1.415706990373437E+003	3.8790876E-001	-2.7038031E+002
3	0	1.416206990360806E+003	3.8796151E-001	-2.7041919E+002
3	0	1.416706990348175E+003	3.8854095E-001	-2.7036267E+002
3	0	1.417206990335544E+003	3.8922572E-001	-2.7036267E+002
3	0	1.417706990322913E+003	3.8982606E-001	-2.7037326E+002
3	0	1.418206990310282E+003	3.9036635E-001	-2.7036267E+002
3	0	1.418706990297651E+003	3.9093903E-001	-2.7037326E+002
3	0	1.419206990285020E+003	3.9127177E-001	-2.7039447E+002
3	0	1.419706990272389E+003	3.9136600E-001	-2.7038385E+002
3	0	1.420206990259758E+003	3.9159578E-001	-2.7035205E+002
3	0	1.420706990247127E+003	3.9224091E-001	-2.7038031E+002
3	0	1.421206990234496E+003	3.9278656E-001	-2.7039447E+002
3	0	1.421706990221865E+003	3.9311415E-001	-2.7037677E+002
3	0	1.422206990209233E+003	3.9331710E-001	-2.7039801E+002
3	0	1.422706990196602E+003	3.9348239E-001	-2.7039093E+002
3	0	1.423206990183971E+003	3.9353049E-001	-2.7038031E+002
3	0	1.423706990171340E+003	3.9343601E-001	-2.7036618E+002
3	0	1.424206990158709E+003	3.9336437E-001	-2.7036618E+002
3	0	1.424706990146078E+003	3.9370960E-001	-2.7038385E+002
3	0	1.425206990133447E+003	3.9397895E-001	-2.7036972E+002
3	0	1.425706990120816E+003	3.9403456E-001	-2.7037677E+002
3	0	1.426206990108185E+003	3.9400408E-001	-2.7035913E+002
3	0	1.426706990095554E+003	3.9397216E-001	-2.7038385E+002
3	0	1.427206990082923E+003	3.9383182E-001	-2.7036972E+002
3	0	1.427706990070292E+003	3.9361337E-001	-2.7035913E+002
3	0	1.428206990057661E+003	3.9339805E-001	-2.7038031E+002
3	0	1.428706990045030E+003	3.9357838E-001	-2.7038031E+002
3	0	1.429206990032399E+003	3.9372352E-001	-2.7036972E+002
3	0	1.429706990019768E+003	3.9368501E-001	-2.7038385E+002
3	0	1.430206990007136E+003	3.9353389E-001	-2.7037326E+002
3	0	1.430706989994505E+003	3.9337867E-001	-2.7040860E+002
3	0	1.431206989981874E+003	3.9315575E-001	-2.7036618E+002
3	0	1.431706989969243E+003	3.9274767E-001	-2.7036267E+002
3	0	1.432206989956612E+003	3.9241225E-001	-2.7036972E+002
3	0	1.432706989943981E+003	3.9249140E-001	-2.7037326E+002
3	0	1.433206989931350E+003	3.9254051E-001	-2.7037326E+002
3	0	1.433706989918719E+003	3.9243016E-001	-2.7036267E+002
3	0	1.434206989906088E+003	3.9221427E-001	-2.7039801E+002
3	0	1.434706989893457E+003	3.9202410E-001	-2.7039801E+002
3	0	1.435206989880826E+003	3.9179188E-001	-2.7038742E+002
3	0	1.435706989868195E+003	3.9149106E-001	-2.7038742E+002
3	0	1.436206989855564E+003	3.9130440E-001	-2.7036267E+002
3	0	1.436706989842933E+003	3.9161587E-001	-2.7039447E+002
3	0	1.437206989830302E+003	3.9201117E-001	-2.7037326E+002
3	0	1.437706989817671E+003	3.9230478E-001	-2.7039801E+002
3	0	1.438206989805039E+003	3.9255497E-001	-2.7036618E+002
3	0	1.438706989792408E+003	3.9286771E-001	-2.7035559E+002
3	0	1.439206989779777E+003	3.9311156E-001	-2.7038385E+002
3	0	1.439706989767146E+003	3.9319798E-001	-2.7040506E+002
3	0	1.440206989754515E+003	3.9327139E-001	-2.7036618E+002
3	0	1.440706989741884E+003	3.9369181E-001	-2.7038385E+002
3	0	1.441206989729253E+003	3.9404356E-001	-2.7036972E+002
3	0	1.441706989716622E+003	3.9419898E-001	-2.7036618E+002
3	0	1.442206989703991E+003	3.9419839E-001	-2.7037326E+002
3	0	1.442706989691360E+003	3.9419809E-001	-2.7038385E+002
3	0	1.443206989678729E+003	3.9408445E-001	-2.7036972E+002
3	0	1.443706989666098E+003	3.9379910E-001	-2.7040506E+002
3	0	1.444206989653467E+003	3.9355740E-001	-2.7037677E+002
3	0	1.444706989640836E+003	3.9368665E-001	-2.7038385E+002
3	0	1.445206989628205E+003	3.9375970E-001	-2.7038385E+002
3	0	1.445706989615574E+003	3.9366877E-001	-2.7036267E+002
3	0	1.446206989602942E+003	3.9348304E-001	-2.7035559E+002
3	0	1.446706989590311E+003	3.9331213E-001	-2.7038742E+002
3	0	1.447206989577680E+003	3.9307868E-001	-2.7037326E+002
3	0	1.447706989565049E+003	3.9267740E-001	-2.7039801E+002
3	0	1.448206989552418E+003	3.9227155E-001	-2.7037326E+002
3	0	1.448706989539787E+003	3.9227670E-001	-2.7041214E+002
3	0	1.449206989527156E+003	3.9224470E-001	-2.7039447E+002
3	0	1.449706989514525E+003	3.9203101E-001	-2.7037677E+002
3	0	1.450206989501894E+003	3.9172998E-001	-2.7038385E+002
3	0	1.450706989489263E+003	3.9140317E-001	-2.7038385E+002
3	0	1.451206989476632E+003	3.9099428E-001	-2.7040155E+002
3	0	1.451706989464001E+003	3.9052296E-001	-2.7037677E+002
3	0	1.452206989451370E+003	3.9005682E-001	-2.7037677E+002
3	0	1.452706989438739E+003	3.8996950E-001	-2.7038031E+002
3	0	1.453206989426108E+003	3.8990349E-001	-2.7039447E+002
3	0	1.453706989413477E+003	3.8968956E-001	-2.7038742E+002
3	0	1.454206989400845E+003	3.8938117E-001	-2.7036618E+002
3	0	1.454706989388214E+003	3.8906473E-001	-2.7037677E+002
3	0	1.455206989375583E+003	3.8871610E-001	-2.7036972E+002
3	0	1.455706989362952E+003	3.8828352E-001	-2.7037326E+002
3	0	1.456206989350321E+003	3.8795587E-001	-2.7038742E+002
3	0	1.456706989337690E+003	3.8808659E-001	-2.7038031E+002
3	0	1.457206989325059E+003	3.8830009E-001	-2.7039093E+002
3	0	1.457706989312428E+003	3.8845873E-001	-2.7036267E+002
3	0	1.458206989299797E+003	3.8859779E-001	-2.7038031E+002
3	0	1.458706989287166E+003	3.8875252E-001	-2.7038031E+002
3	0	1.459206989274535E+003	3.8886908E-001	-2.7038031E+002
3	0	1.459706989261904E+003	3.8879827E-001	-2.7036267E+002
3	0	1.460206989249273E+003	3.8871148E-001	-2.7038031E+002
3	0	1.460706989236642E+003	3.8896587E-001	-2.7038742E+002
3	0	1.461206989224011E+003	3.8920087E-001	-2.7041214E+002
3	0	1.461706989211380E+003	3.8922998E-001	-2.7036972E+002
3	0	1.462206989198748E+003	3.8915157E-001	-2.7039801E+002
3	0	1.462706989186117E+003	3.8905507E-001	-2.7038742E+002
3	0	1.463206989173486E+003	3.8885951E-001	-2.7038031E+002
3	0	1.463706989160855E+003	3.8853589E-001	-2.7038742E+002
3	0	1.464206989148224E+003	3.8820064E-001	-2.7038385E+002
3	0	1.464706989135593E+003	3.8818884E-001	-2.7037677E+002
3	0	1.465206989122962E+003	3.8817042E-001	-2.7037677E+002
3	0	1.465706989110331E+003	3.8802257E-001	-2.7035559E+002
3	0	1.466206989097700E+003	3.8777077E-001	-2.7037326E+002
3	0	1.466706989085069E+003	3.8751686E-001	-2.7039447E+002
3	0	1.467206989072438E+003	3.8720351E-001	-2.7037677E+002
3	0	1.467706989059807E+003	3.8676858E-001	-2.7036972E+002
3	0	1.468206989047176E+003	3.8633215E-001	-2.7039093E+002
3	0	1.468706989034545E+003	3.8624513E-001	-2.7035913E+002
3	0	1.469206989021914E+003	3.8614959E-001	-2.7037326E+002
3	0	1.469706989009283E+003	3.8590512E-001	-2.7038031E+002
3	0	1.470206988996651E+003	3.8557920E-001	-2.7036618E+002
3	0	1.470706988984020E+003	3.8527063E-001	-2.7038031E+002
3	0	1.471206988971389E+003	3.8488144E-001	-2.7038742E+002
3	0	1.471706988958758E+003	3.8440323E-001	-2.7037677E+002
3	0	1.472206988946127E+003	3.8390705E-001	-2.7040155E+002
3	0	1.472706988933496E+003	3.8376725E-001	-2.7034851E+002
3	0	1.473206988920865E+003	3.8365355E-001	-2.7038385E+002
3	0	1.473706988908234E+003	3.8341630E-001	-2.7036618E+002
3	0	1.474206988895603E+003	3.8310623E-001	-2.7038031E+002
3	0	1.474706988882972E+003	3.8279861E-001	-2.7036267E+002
3	0	1.475206988870341E+003	3.8244748E-001	-2.7036972E+002
3	0	1.475706988857710E+003	3.8202670E-001	-2.7038742E+002
3	0	1.476206988845079E+003	3.8167289E-001	-2.7038742E+002
3	0	1.476706988832448E+003	3.8171467E-001	-2.7040155E+002
3	0	1.477206988819817E+003	3.8188624E-001	-2.7038031E+002
3	0	1.477706988807186E+003	3.8201433E-001	-2.7038031E+002
3	0	1.478206988794554E+003	3.8211358E-001	-2.7038031E+002
3	0	1.478706988781923E+003	3.8224629E-001	-2.7036618E+002
3	0	1.479206988769292E+003	3.8231778E-001	-2.7038742E+002
3	0	1.479706988756661E+003	3.8225773E-001	-2.7038031E+002
3	0	1.480206988744030E+003	3.8217601E-001	-2.7038742E+002
3	0	1.480706988731399E+003	3.8238317E-001	-2.7036618E+002
3	0	1.481206988718768E+003	3.8258585E-001	-2.7036618E+002
3	0	1.481706988706137E+003	3.8258541E-001	-2.7036618E+002
3	0	1.482206988693506E+003	3.8246900E-001	-2.7038385E+002
3	0	1.482706988680875E+003	3.8233286E-001	-2.7035205E+002
3	0	1.483206988668244E+003	3.8212794E-001	-2.7037326E+002
3	0	1.483706988655613E+003	3.8181412E-001	-2.7038742E+002
3	0	1.484206988642982E+003	3.8145044E-001	-2.7038385E+002
3	0	1.484706988630351E+003	3.8138127E-001	-2.7038031E+002
3	0	1.485206988617720E+003	3.8133755E-001	-2.7038031E+002
3	0	1.485706988605089E+003	3.8115835E-001	-2.7037326E+002
3	0	1.486206988592457E+003	3.8089481E-001	-2.7036972E+002
3	0	1.486706988579826E+003	3.8061720E-001	-2.7037326E+002
3	0	1.487206988567195E+003	3.8028750E-001	-2.7037326E+002
3	0	1.487706988554564E+003	3.7987000E-001	-2.7038031E+002
3	0	1.488206988541933E+003	3.7945279E-001	-2.7036972E+002
3	0	1.488706988529302E+003	3.7932289E-001	-2.7038742E+002
3	0	1.489206988516671E+003	3.7924674E-001	-2.7039447E+002
3	0	1.489706988504040E+003	3.7904763E-001	-2.7035913E+002
3	0	1.490206988491409E+003	3.7875983E-001	-2.7038031E+002
3	0	1.490706988478778E+003	3.7846774E-001	-2.7038385E+002
3	0	1.491206988466147E+003	3.7812442E-001	-2.7039093E+002
3	0	1.491706988453516E+003	3.7765548E-001	-2.7035559E+002
3	0	1.492206988440885E+003	3.7720513E-001	-2.7037326E+002
3	0	1.492706988428254E+003	3.7706354E-001	-2.7036267E+002
3	0	1.493206988415623E+003	3.7695259E-001	-2.7037677E+002
3	0	1.493706988402992E+003	3.7671643E-001	-2.7038742E+002
3	0	1.494206988390360E+003	3.7642887E-001	-2.7038031E+002
3	0	1.494706988377729E+003	3.7612462E-001	-2.7038031E+002
3	0	1.495206988365098E+003	3.7580293E-001	-2.7038385E+002
3	0	1.495706988352467E+003	3.7535927E-001	-2.7036267E+002
3	0	1.496206988339836E+003	3.7493837E-001	-2.7039093E+002
3	0	1.496706988327205E+003	3.7491620E-001	-2.7038385E+002
3	0	1.497206988314574E+003	3.7501857E-001	-2.7038742E+002
3	0	1.497706988301943E+003	3.7509662E-001	-2.7036972E+002
3	0	1.498206988289312E+003	3.7516576E-001	-2.7037326E+002
3	0	1.498706988276681E+003	3.7525892E-001	-2.7037677E+002
3	0	1.499206988264050E+003	3.7531391E-001	-2.7038385E+002
3	0	1.499706988251419E+003	3.7527800E-001	-2.7040506E+002
3	0	1.500206988238788E+003	3.7520409E-001	-2.7035913E+002
3	0	1.500706988226157E+003	3.7538874E-001	-2.7036618E+002
3	0	1.501206988213526E+003	3.7559590E-001	-2.7037677E+002
3	0	1.501706988200895E+003	3.7564284E-001	-2.7037326E+002
3	0	1.502206988188263E+003	3.7557861E-001	-2.7038031E+002
3	0	1.502706988175632E+003	3.7548766E-001	-2.7040155E+002
3	0	1.503206988163001E+003	3.7529173E-001	-2.7037677E+002
3	0	1.503706988150370E+003	3.7498614E-001	-2.7038385E+002
3	0	1.504206988137739E+003	3.7466624E-001	-2.7036618E+002
3	0	1.504706988125108E+003	3.7462604E-001	-2.7038031E+002
3	0	1.505206988112477E+003	3.7460375E-001	-2.7037677E+002
3	0	1.505706988099846E+003	3.7444422E-001	-2.7036972E+002
3	0	1.506206988087215E+003	3.7420616E-001	-2.7038385E+002
3	0	1.506706988074584E+003	3.7396321E-001	-2.7038742E+002
3	0	1.507206988061953E+003	3.7365261E-001	-2.7035913E+002
3	0	1.507706988049322E+003	3.7323043E-001	-2.7038742E+002
3	0	1.508206988036691E+003	3.7280619E-001	-2.7037326E+002
3	0	1.508706988024060E+003	3.7267005E-001	-2.7038031E+002
3	0	1.509206988011429E+003	3.7258342E-001	-2.7036618E+002
3	0	1.509706987998798E+003	3.7237120E-001	-2.7039093E+002
3	0	1.510206987986167E+003	3.7210041E-001	-2.7036267E+002
3	0	1.510706987973535E+003	3.7183335E-001	-2.7037677E+002
3	0	1.511206987960904E+003	3.7149578E-001	-2.7040860E+002
3	0	1.511706987948273E+003	3.7107062E-001	-2.7039447E+002
3	0	1.512206987935642E+003	3.7065983E-001	-2.7037326E+002
3	0	1.512706987923011E+003	3.7050816E-001	-2.7038742E+002
3	0	1.513206987910380E+003	3.7043372E-001	-2.7039093E+002
3	0	1.513706987897749E+003	3.7023556E-001	-2.7039801E+002
3	0	1.514206987885118E+003	3.6995900E-001	-2.7034143E+002
3	0	1.514706987872487E+003	3.6966327E-001	-2.7036267E+002
3	0	1.515206987859856E+003	3.6933392E-001	-2.7036267E+002
3	0	1.515706987847225E+003	3.6891520E-001	-2.7036618E+002
3	0	1.516206987834594E+003	3.6853725E-001	-2.7036972E+002
3	0	1.516706987821963E+003	3.6848342E-001	-2.7036618E+002
3	0	1.517206987809332E+003	3.6856446E-001	-2.7039093E+002
3	0	1.517706987796701E+003	3.6862284E-001	-2.7038385E+002
3	0	1.518206987784070E+003	3.6868107E-001	-2.7039093E+002
3	0	1.518706987771438E+003	3.6880124E-001	-2.7037677E+002
3	0	1.519206987758807E+003	3.6889112E-001	-2.7036618E+002
3	0	1.519706987746176E+003	3.6886147E-001	-2.7038742E+002
3	0	1.520206987733545E+003	3.6879060E-001	-2.7036267E+002
3	0	1.520706987720914E+003	3.6897144E-001	-2.7039093E+002
3	0	1.521206987708283E+003	3.6918494E-001	-2.7039093E+002
3	0	1.521706987695652E+003	3.6923197E-001	-2.7038031E+002
3	0	1.522206987683021E+003	3.6918327E-001	-2.7035913E+002
3	0	1.522706987670390E+003	3.6910483E-001	-2.7036267E+002
3	0	1.523206987657759E+003	3.6892840E-001	-2.7035559E+002
3	0	1.523706987645128E+003	3.6865833E-001	-2.7037326E+002
3	0	1.524206987632497E+003	3.6833495E-001	-2.7039447E+002
3	0	1.524706987619866E+003	3.6823443E-001	-2.7036972E+002
3	0	1.525206987607235E+003	3.6819893E-001	-2.7036267E+002
3	0	1.525706987594604E+003	3.6805800E-001	-2.7038742E+002
3	0	1.526206987581973E+003	3.6783600E-001	-2.7035913E+002
3	0	1.526706987569341E+003	3.6758918E-001	-2.7038385E+002
3	0	1.527206987556710E+003	3.6731073E-001	-2.7039801E+002
3	0	1.527706987544079E+003	3.6692703E-001	-2.7040155E+002
3	0	1.528206987531448E+003	3.6649001E-001	-2.7038742E+002
3	0	1.528706987518817E+003	3.6632288E-001	-2.7035559E+002
3	0	1.529206987506186E+003	3.6624005E-001	-2.7038031E+002
3	0	1.529706987493555E+003	3.6604947E-001	-2.7038742E+002
3	0	1.530206987480924E+003	3.6577833E-001	-2.7038031E+002
3	0	1.530706987468293E+003	3.6553222E-001	-2.7036618E+002
3	0	1.531206987455662E+003	3.6521053E-001	-2.7035913E+002
3	0	1.531706987443031E+003	3.6477870E-001	-2.7039093E+002
3	0	1.532206987430400E+003	3.6434421E-001	-2.7036972E+002
3	0	1.532706987417769E+003	3.6416349E-001	-2.7038031E+002
3	0	1.533206987405138E+003	3.6404294E-001	-2.7036972E+002
3	0	1.533706987392507E+003	3.6382565E-001	-2.7038031E+002
3	0	1.534206987379876E+003	3.6355075E-001	-2.7036267E+002
3	0	1.534706987367244E+003	3.6327818E-001	-2.7036267E+002
3	0	1.535206987354613E+003	3.6296701E-001	-2.7039093E+002
3	0	1.535706987341982E+003	3.6256453E-001	-2.7037326E+002
3	0	1.536206987329351E+003	3.6217412E-001	-2.7035205E+002
3	0	1.536706987316720E+003	3.6209720E-001	-2.7039447E+002
3	0	1.537206987304089E+003	3.6217847E-001	-2.7037677E+002
3	0	1.537706987291458E+003	3.6224812E-001	-2.7039093E+002
3	0	1.538206987278827E+003	3.6231482E-001	-2.7037677E+002
3	0	1.538706987266196E+003	3.6242253E-001	-2.7039447E+002
3	0	1.539206987253565E+003	3.6249462E-001	-2.7038031E+002
3	0	1.539706987240934E+003	3.6246967E-001	-2.7038031E+002
3	0	1.540206987228303E+003	3.6239877E-001	-2.7036972E+002
3	0	1.540706987215672E+003	3.6254305E-001	-2.7036972E+002
3	0	1.541206987203041E+003	3.6272579E-001	-2.7036618E+002
3	0	1.541706987190410E+003	3.6276960E-001	-2.7038385E+002
3	0	1.542206987177779E+003	3.6272514E-001	-2.7035205E+002
3	0	1.542706987165147E+003	3.6265853E-001	-2.7040506E+002
3	0	1.543206987152516E+003	3.6251503E-001	-2.7035559E+002
3	0	1.543706987139885E+003	3.6220691E-001	-2.7038385E+002
3	0	1.544206987127254E+003	3.6188215E-001	-2.7037326E+002
3	0	1.544706987114623E+003	3.6179316E-001	-2.7037326E+002
3	0	1.545206987101992E+003	3.6173642E-001	-2.7035559E+002
3	0	1.545706987089361E+003	3.6158440E-001	-2.7035913E+002
3	0	1.546206987076730E+003	3.6137393E-001	-2.7038742E+002
3	0	1.546706987064099E+003	3.6115482E-001	-2.7038385E+002
3	0	1.547206987051468E+003	3.6086950E-001	-2.7039447E+002
3	0	1.547706987038837E+003	3.6050448E-001	-2.7037326E+002
3	0	1.548206987026206E+003	3.6009541E-001	-2.7035559E+002
3	0	1.548706987013575E+003	3.5991055E-001	-2.7039447E+002
3	0	1.549206987000944E+003	3.5982278E-001	-2.7040860E+002
3	0	1.549706986988313E+003	3.5965356E-001	-2.7036972E+002
3	0	1.550206986975682E+003	3.5940301E-001	-2.7034851E+002
3	0	1.550706986963050E+003	3.5915631E-001	-2.7040155E+002
3	0	1.551206986950419E+003	3.5883906E-001	-2.7037677E+002
3	0	1.551706986937788E+003	3.5843956E-001	-2.7037677E+002
3	0	1.552206986925157E+003	3.5801172E-001	-2.7039801E+002
3	0	1.552706986912526E+003	3.5784218E-001	-2.7036267E+002
3	0	1.553206986899895E+003	3.5774320E-001	-2.7038031E+002
3	0	1.553706986887264E+003	3.5757062E-001	-2.7035205E+002
3	0	1.554206986874633E+003	3.5733205E-001	-2.7041568E+002
3	0	1.554706986862002E+003	3.5708800E-001	-2.7035205E+002
3	0	1.555206986849371E+003	3.5680857E-001	-2.7038031E+002
3	0	1.555706986836740E+003	3.5644159E-001	-2.7039093E+002
3	0	1.556206986824109E+003	3.5608494E-001	-2.7038031E+002
3	0	1.556706986811478E+003	3.5600510E-001	-2.7034851E+002
3	0	1.557206986798847E+003	3.5604283E-001	-2.7036618E+002
3	0	1.557706986786216E+003	3.5607815E-001	-2.7039093E+002
3	0	1.558206986773585E+003	3.5612327E-001	-2.7037326E+002
3	0	1.558706986760953E+003	3.5619691E-001	-2.7036618E+002
3	0	1.559206986748322E+003	3.5626930E-001	-2.7035559E+002
3	0	1.559706986735691E+003	3.5630772E-001	-2.7036972E+002
3	0	1.560206986723060E+003	3.5631683E-001	-2.7037677E+002
3	0	1.560706986710429E+003	3.5651639E-001	-2.7035913E+002
3	0	1.561206986697798E+003	3.5676515E-001	-2.7038385E+002
3	0	1.561706986685167E+003	3.5689509E-001	-2.7036618E+002
3	0	1.562206986672536E+003	3.5690600E-001	-2.7037677E+002
3	0	1.562706986659905E+003	3.5687596E-001	-2.7039801E+002
3	0	1.563206986647274E+003	3.5676116E-001	-2.7038031E+002
3	0	1.563706986634643E+003	3.5653463E-001	-2.7037677E+002
3	0	1.564206986622012E+003	3.5625240E-001	-2.7039093E+002
3	0	1.564706986609381E+003	3.5616869E-001	-2.7038385E+002
3	0	1.565206986596750E+003	3.5613492E-001	-2.7037326E+002
3	0	1.565706986584119E+003	3.5601234E-001	-2.7039801E+002
3	0	1.566206986571488E+003	3.5582346E-001	-2.7037677E+002
3	0	1.566706986558856E+003	3.5563993E-001	-2.7038742E+002
3	0	1.567206986546225E+003	3.5538635E-001	-2.7038031E+002
3	0	1.567706986533594E+003	3.5502353E-001	-2.7034497E+002
3	0	1.568206986520963E+003	3.5462931E-001	-2.7038031E+002
3	0	1.568706986508332E+003	3.5446715E-001	-2.7039801E+002
3	0	1.569206986495701E+003	3.5436606E-001	-2.7036972E+002
3	0	1.569706986483070E+003	3.5418263E-001	-2.7036972E+002
3	0	1.570206986470439E+003	3.5392722E-001	-2.7036267E+002
3	0	1.570706986457808E+003	3.5364348E-001	-2.7037326E+002
3	0	1.571206986445177E+003	3.5335302E-001	-2.7038031E+002
3	0	1.571706986432546E+003	3.5295409E-001	-2.7038385E+002
3	0	1.572206986419915E+003	3.5255674E-001	-2.7038385E+002
3	0	1.572706986407284E+003	3.5236371E-001	-2.7038031E+002
3	0	1.573206986394653E+003	3.5225621E-001	-2.7039447E+002
3	0	1.573706986382022E+003	3.5209820E-001	-2.7039093E+002
3	0	1.574206986369391E+003	3.5186204E-001	-2.7039801E+002
3	0	1.574231586368769E+003	3.5172418E-001	-2.7039801E+002