EC-Lab ASCII FILE
Nb header lines : 55                          

Open Circuit Voltage

Run on channel : 1 (SN 81504)
User : 
CE vs. WE compliance from -10 V to 10 V
Electrode connection : standard
Potential control : Ewe
Ewe ctrl range : min = -2.50 V, max = 2.50 V
Safety Limits :
	Do not start on E overload
Acquisition started on : 05/10/2026 03:03:02.549
Loaded Setting File :  C:\PEM-WE_measurements\2026\372_IV_IV IrOx, 5 min Pt, 30 min C, etched cathode\new station\Loopeis new\1,46 V different time gaps closed cell\Loopeis 1,46V_60s_5_PEIS from 65Hz to 10Hz.mps
Saved on :
	File : L_15_Loopeis 1,46V_60s_5_PEIS from 65Hz to 10Hz_08_OCV_C01.mpr
	Directory : C:\PEM-WE_measurements\2026\372_IV_IV IrOx, 5 min Pt, 30 min C, etched cathode\new station\Loopeis new\1,46 V different time gaps closed cell\
	Host : 192.168.0.2
Device : SP-150e (SN .005491)
Address : 192.168.0.91
EC-LAB for windows v11.71 (software)
Internet server v28.00 (firmware)
Command interpretor v14.01 (firmware)
Electrode material : 
Initial state : 
Electrolyte : 
Comments : 
Current amplifier : SP-150eB-20A
Electrode surface area : 0.001 cm²
Characteristic mass : 0.001 g
Equivalent Weight : 0.000 g/eq.
Density : 0.000 g/cm3
Volume (V) : 0.001 cm³
Record Analogic IN 1
Text export
   Mode : Standard
   Time format : Elapsed
Cycle Definition : Charge/Discharge alternance
External device configuration :
   device type : Temperature Probe
   device name : Other
   Analog IN 1 : 
      unit : T/Â°C
      max : 100.000 at 2.000 V
      min : 0.000 at 1.460 V
tR (h:m:s)          0:01:0.0000         
dER/dt (mV/h)       1.0                 
record              <Ewe>               
dER (mV)            10.00               
dtR (s)             0.5000              
E range min (V)     -2.500              
E range max (V)     2.500               

mode	error	time/s	<Ewe/V>	Analog IN 1/V	
3	0	8.395114201946853E+002	1.2450497E+000	-2.7038385E+002
3	0	8.400114201820543E+002	1.2552699E+000	-2.7036618E+002
3	0	8.405114201694232E+002	1.2595819E+000	-2.7037326E+002
3	0	8.410114201567922E+002	1.2621300E+000	-2.7038742E+002
3	0	8.415114201441611E+002	1.2638566E+000	-2.7038742E+002
3	0	8.420114201315300E+002	1.2650975E+000	-2.7035559E+002
3	0	8.425114201188990E+002	1.2659920E+000	-2.7037677E+002
3	0	8.430114201062679E+002	1.2666140E+000	-2.7035205E+002
3	0	8.435114200936368E+002	1.2670752E+000	-2.7037677E+002
3	0	8.440114200810058E+002	1.2674896E+000	-2.7036267E+002
3	0	8.445114200683747E+002	1.2678081E+000	-2.7038031E+002
3	0	8.450114200557437E+002	1.2680597E+000	-2.7039801E+002
3	0	8.455114200431126E+002	1.2682499E+000	-2.7036267E+002
3	0	8.460114200304815E+002	1.2684035E+000	-2.7038385E+002
3	0	8.465114200178505E+002	1.2684878E+000	-2.7039447E+002
3	0	8.470114200052194E+002	1.2684804E+000	-2.7035913E+002
3	0	8.475114199925883E+002	1.2684599E+000	-2.7036972E+002
3	0	8.480114199799573E+002	1.2685030E+000	-2.7037326E+002
3	0	8.485114199673262E+002	1.2685415E+000	-2.7037677E+002
3	0	8.490114199546952E+002	1.2685647E+000	-2.7040155E+002
3	0	8.495114199420641E+002	1.2685839E+000	-2.7036618E+002
3	0	8.500114199294330E+002	1.2685860E+000	-2.7037326E+002
3	0	8.505114199168020E+002	1.2685364E+000	-2.7037326E+002
3	0	8.510114199041709E+002	1.2684274E+000	-2.7036972E+002
3	0	8.515114198915398E+002	1.2683140E+000	-2.7037677E+002
3	0	8.520114198789088E+002	1.2682747E+000	-2.7036972E+002
3	0	8.525114198662777E+002	1.2682409E+000	-2.7040506E+002
3	0	8.530114198536467E+002	1.2681991E+000	-2.7038385E+002
3	0	8.535114198410156E+002	1.2681490E+000	-2.7037677E+002
3	0	8.540114198283845E+002	1.2681030E+000	-2.7039447E+002
3	0	8.545114198157535E+002	1.2680043E+000	-2.7037326E+002
3	0	8.550114198031224E+002	1.2678400E+000	-2.7040155E+002
3	0	8.555114197904913E+002	1.2676803E+000	-2.7039447E+002
3	0	8.560114197778603E+002	1.2675970E+000	-2.7035559E+002
3	0	8.565114197652292E+002	1.2675209E+000	-2.7038031E+002
3	0	8.570114197525982E+002	1.2674367E+000	-2.7039447E+002
3	0	8.575114197399671E+002	1.2673482E+000	-2.7036972E+002
3	0	8.580114197273360E+002	1.2672672E+000	-2.7035559E+002
3	0	8.585114197147050E+002	1.2671387E+000	-2.7036618E+002
3	0	8.590114197020739E+002	1.2669303E+000	-2.7036267E+002
3	0	8.595114196894428E+002	1.2667216E+000	-2.7039093E+002
3	0	8.600114196768118E+002	1.2665932E+000	-2.7037326E+002
3	0	8.605114196641807E+002	1.2664781E+000	-2.7036618E+002
3	0	8.610114196515497E+002	1.2663512E+000	-2.7036972E+002
3	0	8.615114196389186E+002	1.2662319E+000	-2.7036618E+002
3	0	8.620114196262875E+002	1.2660912E+000	-2.7038385E+002
3	0	8.625114196136565E+002	1.2659211E+000	-2.7037677E+002
3	0	8.630114196010254E+002	1.2656881E+000	-2.7035559E+002
3	0	8.635114195883943E+002	1.2654543E+000	-2.7039801E+002
3	0	8.640114195757633E+002	1.2653037E+000	-2.7039093E+002
3	0	8.645114195631322E+002	1.2651608E+000	-2.7036618E+002
3	0	8.650114195505012E+002	1.2650118E+000	-2.7038742E+002
3	0	8.655114195378701E+002	1.2648655E+000	-2.7038742E+002
3	0	8.660114195252390E+002	1.2647310E+000	-2.7038031E+002
3	0	8.665114195126080E+002	1.2645444E+000	-2.7036267E+002
3	0	8.670114194999769E+002	1.2642955E+000	-2.7037677E+002
3	0	8.675114194873458E+002	1.2640594E+000	-2.7038031E+002
3	0	8.680114194747148E+002	1.2639086E+000	-2.7039093E+002
3	0	8.685114194620837E+002	1.2637697E+000	-2.7037677E+002
3	0	8.690114194494527E+002	1.2636214E+000	-2.7037677E+002
3	0	8.695114194368216E+002	1.2634782E+000	-2.7038385E+002
3	0	8.700114194241905E+002	1.2633381E+000	-2.7039093E+002
3	0	8.705114194115595E+002	1.2631515E+000	-2.7038742E+002
3	0	8.710114193989284E+002	1.2628893E+000	-2.7035559E+002
3	0	8.715114193862973E+002	1.2626309E+000	-2.7039093E+002
3	0	8.720114193736663E+002	1.2624509E+000	-2.7038031E+002
3	0	8.725114193610352E+002	1.2622808E+000	-2.7037326E+002
3	0	8.730114193484042E+002	1.2621084E+000	-2.7037326E+002
3	0	8.735114193357731E+002	1.2619379E+000	-2.7036972E+002
3	0	8.740114193231420E+002	1.2617490E+000	-2.7038031E+002
3	0	8.745114193105110E+002	1.2615141E+000	-2.7038385E+002
3	0	8.750114192978799E+002	1.2612112E+000	-2.7038742E+002
3	0	8.755114192852488E+002	1.2609116E+000	-2.7040506E+002
3	0	8.760114192726178E+002	1.2607003E+000	-2.7036972E+002
3	0	8.765114192599867E+002	1.2604972E+000	-2.7038385E+002
3	0	8.770114192473557E+002	1.2602848E+000	-2.7038031E+002
3	0	8.775114192347246E+002	1.2600765E+000	-2.7038385E+002
3	0	8.780114192220935E+002	1.2598587E+000	-2.7036618E+002
3	0	8.785114192094625E+002	1.2595961E+000	-2.7038031E+002
3	0	8.790114191968314E+002	1.2592570E+000	-2.7035559E+002
3	0	8.795114191842003E+002	1.2589213E+000	-2.7039093E+002
3	0	8.800114191715693E+002	1.2586716E+000	-2.7040506E+002
3	0	8.805114191589382E+002	1.2584304E+000	-2.7039801E+002
3	0	8.810114191463072E+002	1.2581854E+000	-2.7038031E+002
3	0	8.815114191336761E+002	1.2579409E+000	-2.7037677E+002
3	0	8.820114191210450E+002	1.2577080E+000	-2.7035913E+002
3	0	8.825114191084140E+002	1.2574229E+000	-2.7036972E+002
3	0	8.830114190957829E+002	1.2570704E+000	-2.7036618E+002
3	0	8.835114190831519E+002	1.2567064E+000	-2.7038031E+002
3	0	8.840114190705208E+002	1.2564334E+000	-2.7039447E+002
3	0	8.845114190578897E+002	1.2561781E+000	-2.7035559E+002
3	0	8.850114190452587E+002	1.2559247E+000	-2.7039093E+002
3	0	8.855114190326276E+002	1.2556741E+000	-2.7037677E+002
3	0	8.860114190199965E+002	1.2554387E+000	-2.7038385E+002
3	0	8.865114190073655E+002	1.2551661E+000	-2.7037326E+002
3	0	8.870114189947344E+002	1.2548362E+000	-2.7038742E+002
3	0	8.875114189821034E+002	1.2545125E+000	-2.7036618E+002
3	0	8.880114189694723E+002	1.2542895E+000	-2.7037677E+002
3	0	8.885114189568412E+002	1.2540832E+000	-2.7037677E+002
3	0	8.890114189442102E+002	1.2538834E+000	-2.7036618E+002
3	0	8.895114189315791E+002	1.2536883E+000	-2.7037677E+002
3	0	8.900114189189480E+002	1.2534834E+000	-2.7037677E+002
3	0	8.905114189063170E+002	1.2532301E+000	-2.7037677E+002
3	0	8.910114188936859E+002	1.2529159E+000	-2.7037326E+002
3	0	8.915114188810549E+002	1.2525961E+000	-2.7035913E+002
3	0	8.920114188684238E+002	1.2523682E+000	-2.7039447E+002
3	0	8.925114188557927E+002	1.2521464E+000	-2.7037677E+002
3	0	8.930114188431617E+002	1.2519101E+000	-2.7038031E+002
3	0	8.935114188305306E+002	1.2516828E+000	-2.7038385E+002
3	0	8.940114188178995E+002	1.2514488E+000	-2.7037677E+002
3	0	8.945114188052685E+002	1.2511758E+000	-2.7036618E+002
3	0	8.950114187926374E+002	1.2508215E+000	-2.7040860E+002
3	0	8.955114187800064E+002	1.2504750E+000	-2.7035559E+002
3	0	8.960114187673753E+002	1.2502029E+000	-2.7039447E+002
3	0	8.965114187547442E+002	1.2499468E+000	-2.7037326E+002
3	0	8.970114187421132E+002	1.2496818E+000	-2.7037677E+002
3	0	8.975114187294821E+002	1.2494121E+000	-2.7038385E+002
3	0	8.980114187168510E+002	1.2491415E+000	-2.7039093E+002
3	0	8.985114187042200E+002	1.2488211E+000	-2.7039093E+002
3	0	8.990114186915889E+002	1.2484401E+000	-2.7038385E+002
3	0	8.990348186909978E+002	1.2482105E+000	-2.7039093E+002