EC-Lab ASCII FILE
Nb header lines : 55                          

Open Circuit Voltage

Run on channel : 1 (SN 81504)
User : 
CE vs. WE compliance from -10 V to 10 V
Electrode connection : standard
Potential control : Ewe
Ewe ctrl range : min = -2.50 V, max = 2.50 V
Safety Limits :
	Do not start on E overload
Acquisition started on : 05/10/2026 09:06:36.404
Loaded Setting File :  C:\PEM-WE_measurements\2026\372_IV_IV IrOx, 5 min Pt, 30 min C, etched cathode\new station\Loopeis new\1,46 V different time gaps closed cell\Loopeis 1,46V_180s_3_PEIS from 6500Hz to 1000Hz.mps
Saved on :
	File : L_28_Loopeis 1,46V_180s_3_PEIS from 6500Hz to 1000Hz_06_OCV_C01.mpr
	Directory : C:\PEM-WE_measurements\2026\372_IV_IV IrOx, 5 min Pt, 30 min C, etched cathode\new station\Loopeis new\1,46 V different time gaps closed cell\
	Host : 192.168.0.2
Device : SP-150e (SN .005491)
Address : 192.168.0.91
EC-LAB for windows v11.71 (software)
Internet server v28.00 (firmware)
Command interpretor v14.01 (firmware)
Electrode material : 
Initial state : 
Electrolyte : 
Comments : 
Current amplifier : SP-150eB-20A
Electrode surface area : 0.001 cm²
Characteristic mass : 0.001 g
Equivalent Weight : 0.000 g/eq.
Density : 0.000 g/cm3
Volume (V) : 0.001 cm³
Record Analogic IN 1
Text export
   Mode : Standard
   Time format : Elapsed
Cycle Definition : Charge/Discharge alternance
External device configuration :
   device type : Temperature Probe
   device name : Other
   Analog IN 1 : 
      unit : T/Â°C
      max : 100.000 at 2.000 V
      min : 0.000 at 1.460 V
tR (h:m:s)          0:03:0.0000         
dER/dt (mV/h)       1.0                 
record              <Ewe>               
dER (mV)            10.00               
dtR (s)             0.5000              
E range min (V)     -2.500              
E range max (V)     2.500               

mode	error	time/s	<Ewe/V>	Analog IN 1/V	
3	0	4.954715907553327E+002	1.2909807E+000	-2.7036267E+002
3	0	4.959715907427017E+002	1.2964089E+000	-2.7037326E+002
3	0	4.964715907300706E+002	1.2833247E+000	-2.7038031E+002
3	0	4.969715907174395E+002	1.2585667E+000	-2.7037326E+002
3	0	4.974715907048085E+002	1.2161767E+000	-2.7038742E+002
3	0	4.979715906921774E+002	1.1384631E+000	-2.7038031E+002
3	0	4.984715906795464E+002	8.7022835E-001	-2.7036267E+002
3	0	4.989715906669153E+002	4.8841491E-001	-2.7039093E+002
3	0	4.994715906542842E+002	3.7832654E-001	-2.7035559E+002
3	0	4.999715906416532E+002	3.5823604E-001	-2.7036972E+002
3	0	5.004715906290221E+002	3.5586905E-001	-2.7039447E+002
3	0	5.009715906163910E+002	3.5670808E-001	-2.7039801E+002
3	0	5.014715906037600E+002	3.5770145E-001	-2.7037326E+002
3	0	5.019715905911289E+002	3.5835841E-001	-2.7040155E+002
3	0	5.024715905784979E+002	3.5880366E-001	-2.7036618E+002
3	0	5.029715905658668E+002	3.5905442E-001	-2.7038031E+002
3	0	5.034715905532357E+002	3.5913083E-001	-2.7035913E+002
3	0	5.039715905406047E+002	3.5914803E-001	-2.7037326E+002
3	0	5.044715905279736E+002	3.5936636E-001	-2.7039093E+002
3	0	5.049715905153425E+002	3.5981938E-001	-2.7037677E+002
3	0	5.054715905027115E+002	3.6019686E-001	-2.7035913E+002
3	0	5.059715904900804E+002	3.6053765E-001	-2.7035913E+002
3	0	5.064715904774494E+002	3.6092776E-001	-2.7038385E+002
3	0	5.069715904648183E+002	3.6134344E-001	-2.7040155E+002
3	0	5.074715904521872E+002	3.6168450E-001	-2.7039093E+002
3	0	5.079715904395562E+002	3.6199531E-001	-2.7038385E+002
3	0	5.084715904269251E+002	3.6248022E-001	-2.7036972E+002
3	0	5.089715904142940E+002	3.6310029E-001	-2.7037326E+002
3	0	5.094715904016630E+002	3.6355340E-001	-2.7037677E+002
3	0	5.099715903890319E+002	3.6390153E-001	-2.7041919E+002
3	0	5.104715903764009E+002	3.6421129E-001	-2.7036618E+002
3	0	5.109715903637698E+002	3.6447245E-001	-2.7036972E+002
3	0	5.114715903511387E+002	3.6463201E-001	-2.7040860E+002
3	0	5.119715903385077E+002	3.6472002E-001	-2.7038385E+002
3	0	5.124715903258766E+002	3.6495289E-001	-2.7038031E+002
3	0	5.129715903132455E+002	3.6535612E-001	-2.7038742E+002
3	0	5.134715903006145E+002	3.6562312E-001	-2.7036972E+002
3	0	5.139715902879834E+002	3.6584973E-001	-2.7037677E+002
3	0	5.144715902753524E+002	3.6601517E-001	-2.7038031E+002
3	0	5.149715902627213E+002	3.6614838E-001	-2.7036972E+002
3	0	5.154715902500902E+002	3.6620665E-001	-2.7039093E+002
3	0	5.159715902374592E+002	3.6615652E-001	-2.7037677E+002
3	0	5.164715902248281E+002	3.6624679E-001	-2.7038742E+002
3	0	5.169715902121970E+002	3.6654484E-001	-2.7038742E+002
3	0	5.174715901995660E+002	3.6672547E-001	-2.7036618E+002
3	0	5.179715901869349E+002	3.6683485E-001	-2.7039447E+002
3	0	5.184715901743039E+002	3.6691347E-001	-2.7038385E+002
3	0	5.189715901616728E+002	3.6693096E-001	-2.7036618E+002
3	0	5.194715901490417E+002	3.6689025E-001	-2.7038031E+002
3	0	5.199715901364107E+002	3.6676583E-001	-2.7038742E+002
3	0	5.204715901237796E+002	3.6679813E-001	-2.7041214E+002
3	0	5.209715901111485E+002	3.6703241E-001	-2.7036618E+002
3	0	5.214715900985175E+002	3.6716449E-001	-2.7037326E+002
3	0	5.219715900858864E+002	3.6721256E-001	-2.7037677E+002
3	0	5.224715900732554E+002	3.6723813E-001	-2.7038385E+002
3	0	5.229715900606243E+002	3.6724478E-001	-2.7038742E+002
3	0	5.234715900479932E+002	3.6717880E-001	-2.7036267E+002
3	0	5.239715900353622E+002	3.6702013E-001	-2.7038742E+002
3	0	5.244715900227311E+002	3.6701947E-001	-2.7037677E+002
3	0	5.249715900101000E+002	3.6726299E-001	-2.7036972E+002
3	0	5.254715899974690E+002	3.6744770E-001	-2.7038031E+002
3	0	5.259715899848379E+002	3.6762556E-001	-2.7037677E+002
3	0	5.264715899722069E+002	3.6781016E-001	-2.7038031E+002
3	0	5.269715899595758E+002	3.6804914E-001	-2.7039447E+002
3	0	5.274715899469447E+002	3.6826423E-001	-2.7035913E+002
3	0	5.279715899343137E+002	3.6842224E-001	-2.7038385E+002
3	0	5.284715899216826E+002	3.6866558E-001	-2.7038742E+002
3	0	5.289715899090515E+002	3.6910984E-001	-2.7038742E+002
3	0	5.294715898964205E+002	3.6941183E-001	-2.7036618E+002
3	0	5.299715898837894E+002	3.6960292E-001	-2.7039093E+002
3	0	5.304715898711584E+002	3.6968741E-001	-2.7038742E+002
3	0	5.309715898585273E+002	3.6975819E-001	-2.7036267E+002
3	0	5.314715898458962E+002	3.6968637E-001	-2.7040155E+002
3	0	5.319715898332652E+002	3.6955386E-001	-2.7039093E+002
3	0	5.324715898206341E+002	3.6954015E-001	-2.7036267E+002
3	0	5.329715898080030E+002	3.6972401E-001	-2.7038742E+002
3	0	5.334715897953720E+002	3.6978379E-001	-2.7037677E+002
3	0	5.339715897827409E+002	3.6977348E-001	-2.7036267E+002
3	0	5.344715897701099E+002	3.6970332E-001	-2.7037677E+002
3	0	5.349715897574788E+002	3.6960596E-001	-2.7039093E+002
3	0	5.354715897448477E+002	3.6941716E-001	-2.7035205E+002
3	0	5.359715897322167E+002	3.6913928E-001	-2.7039093E+002
3	0	5.364715897195856E+002	3.6898026E-001	-2.7039093E+002
3	0	5.369715897069545E+002	3.6905080E-001	-2.7036618E+002
3	0	5.374715896943235E+002	3.6902827E-001	-2.7038031E+002
3	0	5.379715896816924E+002	3.6895710E-001	-2.7038742E+002
3	0	5.384715896690614E+002	3.6883283E-001	-2.7036267E+002
3	0	5.389715896564303E+002	3.6870071E-001	-2.7039447E+002
3	0	5.394715896437992E+002	3.6849675E-001	-2.7037326E+002
3	0	5.399715896311682E+002	3.6823311E-001	-2.7039093E+002
3	0	5.404715896185371E+002	3.6806718E-001	-2.7037677E+002
3	0	5.409715896059060E+002	3.6809579E-001	-2.7036972E+002
3	0	5.414715895932750E+002	3.6802396E-001	-2.7036618E+002
3	0	5.419715895806439E+002	3.6790794E-001	-2.7035559E+002
3	0	5.424715895680129E+002	3.6773968E-001	-2.7040506E+002
3	0	5.429715895553818E+002	3.6758822E-001	-2.7037677E+002
3	0	5.434715895427507E+002	3.6733040E-001	-2.7038031E+002
3	0	5.439715895301197E+002	3.6701128E-001	-2.7039093E+002
3	0	5.444715895174886E+002	3.6685821E-001	-2.7038742E+002
3	0	5.449715895048575E+002	3.6693397E-001	-2.7038385E+002
3	0	5.454715894922265E+002	3.6697692E-001	-2.7036972E+002
3	0	5.459715894795954E+002	3.6701599E-001	-2.7035913E+002
3	0	5.464715894669644E+002	3.6706817E-001	-2.7037677E+002
3	0	5.469715894543333E+002	3.6717570E-001	-2.7040155E+002
3	0	5.474715894417022E+002	3.6724585E-001	-2.7039093E+002
3	0	5.479715894290712E+002	3.6723337E-001	-2.7038385E+002
3	0	5.484715894164401E+002	3.6735183E-001	-2.7035913E+002
3	0	5.489715894038090E+002	3.6765736E-001	-2.7038742E+002
3	0	5.494715893911780E+002	3.6782941E-001	-2.7036972E+002
3	0	5.499715893785469E+002	3.6790177E-001	-2.7035559E+002
3	0	5.504715893659159E+002	3.6791095E-001	-2.7038385E+002
3	0	5.509715893532848E+002	3.6786950E-001	-2.7036618E+002
3	0	5.514715893406537E+002	3.6770174E-001	-2.7037677E+002
3	0	5.519715893280227E+002	3.6744571E-001	-2.7037677E+002
3	0	5.524715893153916E+002	3.6728790E-001	-2.7037326E+002
3	0	5.529715893027605E+002	3.6735567E-001	-2.7037677E+002
3	0	5.534715892901295E+002	3.6733684E-001	-2.7039447E+002
3	0	5.539715892774984E+002	3.6724243E-001	-2.7037326E+002
3	0	5.544715892648674E+002	3.6709934E-001	-2.7038385E+002
3	0	5.549715892522363E+002	3.6693981E-001	-2.7041568E+002
3	0	5.554715892396052E+002	3.6666453E-001	-2.7039093E+002
3	0	5.559715892269742E+002	3.6631808E-001	-2.7036972E+002
3	0	5.564715892143431E+002	3.6611086E-001	-2.7037677E+002
3	0	5.569715892017121E+002	3.6610365E-001	-2.7038031E+002
3	0	5.574715891890810E+002	3.6602128E-001	-2.7038742E+002
3	0	5.579715891764499E+002	3.6585563E-001	-2.7037326E+002
3	0	5.584715891638189E+002	3.6567786E-001	-2.7037677E+002
3	0	5.589715891511878E+002	3.6546206E-001	-2.7038742E+002
3	0	5.594715891385567E+002	3.6519012E-001	-2.7039093E+002
3	0	5.599715891259257E+002	3.6482838E-001	-2.7036267E+002
3	0	5.604715891132946E+002	3.6456957E-001	-2.7036972E+002
3	0	5.609715891006636E+002	3.6452812E-001	-2.7037326E+002
3	0	5.614715890880325E+002	3.6440954E-001	-2.7036618E+002
3	0	5.619715890754014E+002	3.6423278E-001	-2.7040155E+002
3	0	5.624715890627704E+002	3.6401603E-001	-2.7039447E+002
3	0	5.629715890501393E+002	3.6377230E-001	-2.7038031E+002
3	0	5.634715890375082E+002	3.6348251E-001	-2.7036618E+002
3	0	5.639715890248772E+002	3.6310482E-001	-2.7038031E+002
3	0	5.644715890122461E+002	3.6285731E-001	-2.7038031E+002
3	0	5.649715889996151E+002	3.6285400E-001	-2.7037677E+002
3	0	5.654715889869840E+002	3.6283168E-001	-2.7035913E+002
3	0	5.659715889743529E+002	3.6279872E-001	-2.7037677E+002
3	0	5.664715889617219E+002	3.6278480E-001	-2.7036972E+002
3	0	5.669715889490908E+002	3.6282206E-001	-2.7039801E+002
3	0	5.674715889364597E+002	3.6281726E-001	-2.7038385E+002
3	0	5.679715889238287E+002	3.6275548E-001	-2.7038031E+002
3	0	5.684715889111976E+002	3.6283600E-001	-2.7038031E+002
3	0	5.689715888985666E+002	3.6308649E-001	-2.7038031E+002
3	0	5.694715888859355E+002	3.6325622E-001	-2.7037677E+002
3	0	5.699715888733044E+002	3.6333147E-001	-2.7034143E+002
3	0	5.704715888606734E+002	3.6333424E-001	-2.7037326E+002
3	0	5.709715888480423E+002	3.6329985E-001	-2.7038742E+002
3	0	5.714715888354112E+002	3.6316302E-001	-2.7037326E+002
3	0	5.719715888227802E+002	3.6292356E-001	-2.7039801E+002
3	0	5.724715888101491E+002	3.6276177E-001	-2.7035205E+002
3	0	5.729715887975181E+002	3.6280632E-001	-2.7037326E+002
3	0	5.734715887848870E+002	3.6276853E-001	-2.7038385E+002
3	0	5.739715887722559E+002	3.6262873E-001	-2.7036267E+002
3	0	5.744715887596249E+002	3.6244848E-001	-2.7035559E+002
3	0	5.749715887469938E+002	3.6224616E-001	-2.7038031E+002
3	0	5.754715887343627E+002	3.6195621E-001	-2.7038031E+002
3	0	5.759715887217317E+002	3.6159351E-001	-2.7039093E+002
3	0	5.764715887091006E+002	3.6131617E-001	-2.7036267E+002
3	0	5.769715886964696E+002	3.6126956E-001	-2.7038742E+002
3	0	5.774715886838385E+002	3.6116087E-001	-2.7036267E+002
3	0	5.779715886712074E+002	3.6099416E-001	-2.7037326E+002
3	0	5.784715886585764E+002	3.6076939E-001	-2.7038031E+002
3	0	5.789715886459453E+002	3.6053041E-001	-2.7036267E+002
3	0	5.794715886333142E+002	3.6025247E-001	-2.7040155E+002
3	0	5.799715886206832E+002	3.5986862E-001	-2.7036267E+002
3	0	5.804715886080521E+002	3.5958868E-001	-2.7039801E+002
3	0	5.809715885954211E+002	3.5954359E-001	-2.7038742E+002
3	0	5.814715885827900E+002	3.5941449E-001	-2.7038031E+002
3	0	5.819715885701589E+002	3.5923478E-001	-2.7037326E+002
3	0	5.824715885575279E+002	3.5901615E-001	-2.7036618E+002
3	0	5.829715885448968E+002	3.5880440E-001	-2.7039447E+002
3	0	5.834715885322657E+002	3.5850748E-001	-2.7040506E+002
3	0	5.839715885196347E+002	3.5811025E-001	-2.7037326E+002
3	0	5.844715885070036E+002	3.5784006E-001	-2.7037326E+002
3	0	5.849715884943726E+002	3.5780033E-001	-2.7038031E+002
3	0	5.854715884817415E+002	3.5774449E-001	-2.7036972E+002
3	0	5.859715884691104E+002	3.5769400E-001	-2.7039093E+002
3	0	5.864715884564794E+002	3.5765061E-001	-2.7036972E+002
3	0	5.869715884438483E+002	3.5763201E-001	-2.7038742E+002
3	0	5.874715884312172E+002	3.5761598E-001	-2.7035559E+002
3	0	5.879715884185862E+002	3.5755974E-001	-2.7038385E+002
3	0	5.884715884059551E+002	3.5760021E-001	-2.7038385E+002
3	0	5.889715883933241E+002	3.5784683E-001	-2.7036618E+002
3	0	5.894715883806930E+002	3.5802105E-001	-2.7038031E+002
3	0	5.899715883680619E+002	3.5808820E-001	-2.7038742E+002
3	0	5.904715883554309E+002	3.5806358E-001	-2.7036972E+002
3	0	5.909715883427998E+002	3.5800767E-001	-2.7038031E+002
3	0	5.914715883301687E+002	3.5782161E-001	-2.7038385E+002
3	0	5.919715883175377E+002	3.5756144E-001	-2.7037677E+002
3	0	5.924715883049066E+002	3.5738388E-001	-2.7040860E+002
3	0	5.929715882922756E+002	3.5738286E-001	-2.7036972E+002
3	0	5.934715882796445E+002	3.5732490E-001	-2.7039801E+002
3	0	5.939715882670134E+002	3.5720634E-001	-2.7035205E+002
3	0	5.944715882543824E+002	3.5702378E-001	-2.7035559E+002
3	0	5.949715882417513E+002	3.5682610E-001	-2.7037326E+002
3	0	5.954715882291202E+002	3.5654780E-001	-2.7037326E+002
3	0	5.959715882164892E+002	3.5617599E-001	-2.7039447E+002
3	0	5.964715882038581E+002	3.5589489E-001	-2.7035559E+002
3	0	5.969715881912271E+002	3.5581675E-001	-2.7037677E+002
3	0	5.974715881785960E+002	3.5568947E-001	-2.7038742E+002
3	0	5.979715881659649E+002	3.5550138E-001	-2.7037677E+002
3	0	5.984715881533339E+002	3.5526264E-001	-2.7035913E+002
3	0	5.989715881407028E+002	3.5504389E-001	-2.7036618E+002
3	0	5.994715881280717E+002	3.5476300E-001	-2.7037677E+002
3	0	5.999715881154407E+002	3.5438746E-001	-2.7039093E+002
3	0	6.004715881028096E+002	3.5409796E-001	-2.7039801E+002
3	0	6.009715880901786E+002	3.5401949E-001	-2.7037677E+002
3	0	6.014715880775475E+002	3.5391557E-001	-2.7039093E+002
3	0	6.019715880649164E+002	3.5376707E-001	-2.7037326E+002
3	0	6.024715880522854E+002	3.5354221E-001	-2.7038031E+002
3	0	6.029715880396543E+002	3.5331601E-001	-2.7037677E+002
3	0	6.034715880270232E+002	3.5302693E-001	-2.7036972E+002
3	0	6.039715880143922E+002	3.5266241E-001	-2.7039447E+002
3	0	6.044715880017611E+002	3.5238361E-001	-2.7037677E+002
3	0	6.049715879891301E+002	3.5232079E-001	-2.7037326E+002
3	0	6.054715879764990E+002	3.5224983E-001	-2.7036267E+002
3	0	6.059715879638679E+002	3.5219318E-001	-2.7035205E+002
3	0	6.064715879512369E+002	3.5214320E-001	-2.7039447E+002
3	0	6.069715879386058E+002	3.5215214E-001	-2.7038385E+002
3	0	6.074715879259747E+002	3.5212743E-001	-2.7038742E+002
3	0	6.079715879133437E+002	3.5205078E-001	-2.7037677E+002
3	0	6.084715879007126E+002	3.5207132E-001	-2.7038742E+002
3	0	6.089715878880816E+002	3.5229549E-001	-2.7038031E+002
3	0	6.094715878754505E+002	3.5246548E-001	-2.7037677E+002
3	0	6.099715878628194E+002	3.5255325E-001	-2.7036267E+002
3	0	6.104715878501884E+002	3.5253915E-001	-2.7038385E+002
3	0	6.109715878375573E+002	3.5249349E-001	-2.7038031E+002
3	0	6.114715878249262E+002	3.5232964E-001	-2.7038031E+002
3	0	6.119715878122952E+002	3.5208377E-001	-2.7038385E+002
3	0	6.124715877996641E+002	3.5189366E-001	-2.7037677E+002
3	0	6.129715877870331E+002	3.5187328E-001	-2.7035205E+002
3	0	6.134715877744020E+002	3.5182291E-001	-2.7035913E+002
3	0	6.139715877617709E+002	3.5170504E-001	-2.7036618E+002
3	0	6.144715877491399E+002	3.5153353E-001	-2.7039093E+002
3	0	6.149715877365088E+002	3.5132992E-001	-2.7038385E+002
3	0	6.154715877238777E+002	3.5104945E-001	-2.7039093E+002
3	0	6.159715877112467E+002	3.5068494E-001	-2.7038031E+002
3	0	6.164715876986156E+002	3.5039043E-001	-2.7037326E+002
3	0	6.169715876859846E+002	3.5027990E-001	-2.7038742E+002
3	0	6.174715876733535E+002	3.5015395E-001	-2.7037677E+002
3	0	6.179715876607224E+002	3.4997970E-001	-2.7036972E+002
3	0	6.184715876480914E+002	3.4976432E-001	-2.7038031E+002
3	0	6.189715876354603E+002	3.4955776E-001	-2.7038742E+002
3	0	6.194715876228292E+002	3.4927651E-001	-2.7038031E+002
3	0	6.199715876101982E+002	3.4890470E-001	-2.7037677E+002
3	0	6.204715875975671E+002	3.4859186E-001	-2.7036618E+002
3	0	6.209715875849361E+002	3.4847516E-001	-2.7035913E+002
3	0	6.214715875723050E+002	3.4833878E-001	-2.7036267E+002
3	0	6.219715875596739E+002	3.4818918E-001	-2.7037326E+002
3	0	6.224715875470429E+002	3.4798470E-001	-2.7039093E+002
3	0	6.229715875344118E+002	3.4777299E-001	-2.7035913E+002
3	0	6.234715875217807E+002	3.4749824E-001	-2.7038742E+002
3	0	6.239715875091497E+002	3.4715068E-001	-2.7040506E+002
3	0	6.244715874965186E+002	3.4686205E-001	-2.7037677E+002
3	0	6.249715874838876E+002	3.4676421E-001	-2.7035913E+002
3	0	6.254715874712565E+002	3.4668097E-001	-2.7036267E+002
3	0	6.259715874586254E+002	3.4661326E-001	-2.7038031E+002
3	0	6.264715874459944E+002	3.4655493E-001	-2.7036972E+002
3	0	6.269715874333633E+002	3.4651232E-001	-2.7037326E+002
3	0	6.274715874207322E+002	3.4647274E-001	-2.7038742E+002
3	0	6.279715874081012E+002	3.4639686E-001	-2.7036972E+002
3	0	6.284715873954701E+002	3.4641188E-001	-2.7039447E+002
3	0	6.289715873828391E+002	3.4662092E-001	-2.7038031E+002
3	0	6.294715873702080E+002	3.4680566E-001	-2.7038385E+002
3	0	6.299715873575769E+002	3.4691682E-001	-2.7037677E+002
3	0	6.304715873449459E+002	3.4694520E-001	-2.7039093E+002
3	0	6.309715873323148E+002	3.4692556E-001	-2.7039093E+002
3	0	6.314715873196837E+002	3.4680516E-001	-2.7036618E+002
3	0	6.319715873070527E+002	3.4656534E-001	-2.7038385E+002
3	0	6.324715872944216E+002	3.4636137E-001	-2.7036972E+002
3	0	6.329715872817906E+002	3.4633538E-001	-2.7036972E+002
3	0	6.334715872691595E+002	3.4627974E-001	-2.7037326E+002
3	0	6.339715872565284E+002	3.4617886E-001	-2.7035205E+002
3	0	6.344715872438974E+002	3.4601247E-001	-2.7038385E+002
3	0	6.349715872312663E+002	3.4582865E-001	-2.7038031E+002
3	0	6.354715872186353E+002	3.4555236E-001	-2.7039447E+002
3	0	6.359715872060042E+002	3.4522459E-001	-2.7039093E+002
3	0	6.364715871933731E+002	3.4494916E-001	-2.7040860E+002
3	0	6.369715871807421E+002	3.4484908E-001	-2.7036267E+002
3	0	6.374715871681110E+002	3.4472594E-001	-2.7037677E+002
3	0	6.379715871554799E+002	3.4457967E-001	-2.7038031E+002
3	0	6.384715871428489E+002	3.4436554E-001	-2.7036972E+002
3	0	6.389715871302178E+002	3.4415194E-001	-2.7039093E+002
3	0	6.394715871175868E+002	3.4386566E-001	-2.7038031E+002
3	0	6.399715871049557E+002	3.4349978E-001	-2.7037326E+002
3	0	6.404715870923246E+002	3.4321535E-001	-2.7035913E+002
3	0	6.409715870796936E+002	3.4310442E-001	-2.7038385E+002
3	0	6.414715870670625E+002	3.4297422E-001	-2.7038031E+002
3	0	6.419715870544314E+002	3.4281704E-001	-2.7036267E+002
3	0	6.424715870418004E+002	3.4261695E-001	-2.7039447E+002
3	0	6.429715870291693E+002	3.4241489E-001	-2.7038031E+002
3	0	6.434715870165383E+002	3.4215137E-001	-2.7038742E+002
3	0	6.439715870039072E+002	3.4180695E-001	-2.7037677E+002
3	0	6.444715869912761E+002	3.4152439E-001	-2.7037677E+002
3	0	6.449715869786451E+002	3.4141210E-001	-2.7038385E+002
3	0	6.454715869660140E+002	3.4130678E-001	-2.7038031E+002
3	0	6.459715869533829E+002	3.4119725E-001	-2.7036972E+002
3	0	6.464715869407519E+002	3.4109694E-001	-2.7038742E+002
3	0	6.469715869281208E+002	3.4104493E-001	-2.7038031E+002
3	0	6.474715869154898E+002	3.4099334E-001	-2.7036972E+002
3	0	6.479715869028587E+002	3.4091669E-001	-2.7038385E+002
3	0	6.484715868902276E+002	3.4093332E-001	-2.7036618E+002
3	0	6.489715868775966E+002	3.4113738E-001	-2.7039093E+002
3	0	6.494715868649655E+002	3.4132946E-001	-2.7038031E+002
3	0	6.499715868523344E+002	3.4147230E-001	-2.7036972E+002
3	0	6.504715868397034E+002	3.4151050E-001	-2.7037326E+002
3	0	6.509715868270723E+002	3.4149909E-001	-2.7036267E+002
3	0	6.514715868144413E+002	3.4140018E-001	-2.7036972E+002
3	0	6.519715868018102E+002	3.4117538E-001	-2.7036618E+002
3	0	6.524715867891791E+002	3.4100303E-001	-2.7040506E+002
3	0	6.529715867765481E+002	3.4096476E-001	-2.7038385E+002
3	0	6.534715867639170E+002	3.4090301E-001	-2.7040506E+002
3	0	6.539715867512859E+002	3.4079599E-001	-2.7039093E+002
3	0	6.544715867386549E+002	3.4062085E-001	-2.7038385E+002
3	0	6.549715867260238E+002	3.4043595E-001	-2.7036267E+002
3	0	6.554715867133928E+002	3.4019321E-001	-2.7038385E+002
3	0	6.559715867007617E+002	3.3984116E-001	-2.7039801E+002
3	0	6.564715866881306E+002	3.3955762E-001	-2.7039447E+002
3	0	6.569715866754996E+002	3.3943895E-001	-2.7037326E+002
3	0	6.574715866628685E+002	3.3931437E-001	-2.7039093E+002
3	0	6.579715866502374E+002	3.3916444E-001	-2.7038031E+002
3	0	6.584715866376064E+002	3.3897749E-001	-2.7035913E+002
3	0	6.589715866249753E+002	3.3875030E-001	-2.7039447E+002
3	0	6.594715866123443E+002	3.3848548E-001	-2.7038742E+002
3	0	6.599715865997132E+002	3.3814064E-001	-2.7037677E+002
3	0	6.604715865870821E+002	3.3785695E-001	-2.7036618E+002
3	0	6.609715865744511E+002	3.3774385E-001	-2.7038385E+002
3	0	6.614715865618200E+002	3.3762908E-001	-2.7038031E+002
3	0	6.619715865491889E+002	3.3748332E-001	-2.7039093E+002
3	0	6.624715865365579E+002	3.3728752E-001	-2.7037326E+002
3	0	6.629715865239268E+002	3.3706218E-001	-2.7040155E+002
3	0	6.634715865112958E+002	3.3678061E-001	-2.7040155E+002
3	0	6.639715864986647E+002	3.3641690E-001	-2.7036267E+002
3	0	6.644715864860336E+002	3.3613056E-001	-2.7036267E+002
3	0	6.649715864734026E+002	3.3601049E-001	-2.7039801E+002
3	0	6.654715864607715E+002	3.3591586E-001	-2.7038742E+002
3	0	6.659715864481404E+002	3.3582589E-001	-2.7038742E+002
3	0	6.664715864355094E+002	3.3574218E-001	-2.7037677E+002
3	0	6.669715864228783E+002	3.3568221E-001	-2.7038742E+002
3	0	6.674715864102473E+002	3.3557016E-001	-2.7036972E+002
3	0	6.679715863976162E+002	3.3539319E-001	-2.7035913E+002
3	0	6.684715863849851E+002	3.3526009E-001	-2.7040506E+002
3	0	6.689715863723541E+002	3.3525941E-001	-2.7038031E+002
3	0	6.694715863597230E+002	3.3524740E-001	-2.7038031E+002
3	0	6.699715863470919E+002	3.3519959E-001	-2.7036618E+002
3	0	6.704715863344609E+002	3.3508506E-001	-2.7036618E+002
3	0	6.709715863218298E+002	3.3493584E-001	-2.7038031E+002
3	0	6.714715863091988E+002	3.3471888E-001	-2.7038742E+002
3	0	6.719715862965677E+002	3.3443356E-001	-2.7036972E+002
3	0	6.724715862839366E+002	3.3417150E-001	-2.7039447E+002
3	0	6.729715862713056E+002	3.3406094E-001	-2.7040155E+002
3	0	6.734715862586745E+002	3.3396277E-001	-2.7039447E+002
3	0	6.739715862460434E+002	3.3384800E-001	-2.7038031E+002
3	0	6.744715862334124E+002	3.3368966E-001	-2.7039801E+002
3	0	6.749715862207813E+002	3.3351249E-001	-2.7037326E+002
3	0	6.749719862207712E+002	3.3334553E-001	-2.7038385E+002