EC-Lab ASCII FILE
Nb header lines : 48                          

Open Circuit Voltage

Run on channel : 1 (SN 81504)
User : 
CE vs. WE compliance from -10 V to 10 V
Electrode connection : standard
Potential control : Ewe
Ewe ctrl range : min = -2.50 V, max = 2.50 V
Safety Limits :
	Do not start on E overload
Acquisition started on : 05/07/2026 14:16:32.051
Loaded Setting File :  C:\PEM-WE_measurements\2026\372_IV_IV IrOx, 5 min Pt, 30 min C, etched cathode\new station\Loopeis new\1,46 V different time gaps open cell\Loopeis 1,46V_30s_2_PEIS from 65kHz to 10kHz.mps
Saved on :
	File : L_02_Loopeis 1,46V_30s_2_PEIS from 65kHz to 10kHz_16_OCV_C01.mpr
	Directory : C:\PEM-WE_measurements\2026\372_IV_IV IrOx, 5 min Pt, 30 min C, etched cathode\new station\Loopeis new\1,46 V different time gaps open cell\
	Host : 192.168.0.2
Device : SP-150e (SN .005491)
Address : 192.168.0.91
EC-LAB for windows v11.71 (software)
Internet server v28.00 (firmware)
Command interpretor v14.01 (firmware)
Electrode material : 
Initial state : 
Electrolyte : 
Comments : 
Current amplifier : SP-150eB-20A
Electrode surface area : 0.001 cm²
Characteristic mass : 0.001 g
Equivalent Weight : 0.000 g/eq.
Density : 0.000 g/cm3
Volume (V) : 0.001 cm³
Record Analogic IN 1
Text export
   Mode : Standard
   Time format : Elapsed
Cycle Definition : Charge/Discharge alternance
tR (h:m:s)          0:00:30.0000        
dER/dt (mV/h)       1.0                 
record              <Ewe>               
dER (mV)            10.00               
dtR (s)             0.5000              
E range min (V)     -2.500              
E range max (V)     2.500               

mode	error	time/s	<Ewe/V>	Analog IN 1/V	
3	0	5.722353753315692E+002	1.0060624E+000	-3.4306191E-005
3	0	5.727353753189382E+002	1.1859344E+000	-3.4306191E-005
3	0	5.732353753063071E+002	1.0716219E+000	-7.2477276E-005
3	0	5.737353752936760E+002	6.6285127E-001	-1.5220648E-005
3	0	5.742353752810450E+002	3.5695937E-001	-9.1562819E-005
3	0	5.747353752684139E+002	3.1129858E-001	-7.2477276E-005
3	0	5.752353752557829E+002	3.0341065E-001	-2.0607607E-004
3	0	5.757353752431518E+002	2.9715055E-001	-3.4306191E-005
3	0	5.762353752305207E+002	2.9202211E-001	-5.3391734E-005
3	0	5.767353752178897E+002	2.8807425E-001	-9.1562819E-005
3	0	5.772353752052586E+002	2.8505749E-001	-1.1064836E-004
3	0	5.777353751926275E+002	2.8268367E-001	2.2950437E-005
3	0	5.782353751799965E+002	2.8078482E-001	-1.5220648E-005
3	0	5.787353751673654E+002	2.7922377E-001	-5.3391734E-005
3	0	5.792353751547344E+002	2.7790630E-001	-7.2477276E-005
3	0	5.797353751421033E+002	2.7674589E-001	-1.5220648E-005
3	0	5.802353751294722E+002	2.7570924E-001	-1.4881945E-004
3	0	5.807353751168412E+002	2.7479509E-001	1.3746369E-004
3	0	5.812353751042101E+002	2.7399832E-001	4.2035979E-005
3	0	5.817353750915790E+002	2.7324477E-001	-5.3391734E-005
3	0	5.822353750789480E+002	2.7254486E-001	-1.4881945E-004
3	0	5.827353750663169E+002	2.7189550E-001	-1.8699054E-004
3	0	5.832353750536859E+002	2.7125853E-001	2.2950437E-005
3	0	5.837353750410548E+002	2.7064469E-001	-1.5220648E-005
3	0	5.842353750284237E+002	2.7002501E-001	-1.2973390E-004
3	0	5.847353750157927E+002	2.6944393E-001	1.1837815E-004
3	0	5.852353750031616E+002	2.6891097E-001	-5.3391734E-005
3	0	5.857353749905305E+002	2.6836526E-001	2.2950437E-005
3	0	5.862353749778995E+002	2.6784390E-001	-1.4881945E-004
3	0	5.867353749652684E+002	2.6732790E-001	-9.1562819E-005
3	0	5.872353749526374E+002	2.6681489E-001	-3.4306191E-005
3	0	5.877353749400063E+002	2.6629293E-001	-1.1064836E-004
3	0	5.882353749273752E+002	2.6576781E-001	-1.2973390E-004
3	0	5.887353749147442E+002	2.6524726E-001	-1.6790499E-004
3	0	5.892353749021131E+002	2.6477140E-001	-2.6333271E-004
3	0	5.897353748894820E+002	2.6428813E-001	-7.2477276E-005
3	0	5.902353748768510E+002	2.6380992E-001	-5.3391734E-005
3	0	5.907353748642199E+002	2.6333767E-001	3.8648941E-006
3	0	5.912353748515889E+002	2.6286596E-001	3.8648941E-006
3	0	5.917353748389578E+002	2.6237831E-001	-3.4306191E-005
3	0	5.922353748263267E+002	2.6187441E-001	-7.2477276E-005
3	0	5.927353748136957E+002	2.6138574E-001	-5.3391734E-005
3	0	5.932353748010646E+002	2.6093093E-001	-9.1562819E-005
3	0	5.937353747884335E+002	2.6047206E-001	-3.4306191E-005
3	0	5.942353747758025E+002	2.6001281E-001	-7.2477276E-005
3	0	5.947353747631714E+002	2.5957233E-001	3.8648941E-006
3	0	5.952353747505404E+002	2.5912327E-001	3.8648941E-006
3	0	5.957353747379093E+002	2.5866413E-001	-1.5220648E-005
3	0	5.962353747252782E+002	2.5818717E-001	1.7563478E-004
3	0	5.967353747126472E+002	2.5772250E-001	2.2950437E-005
3	0	5.972353747000161E+002	2.5728840E-001	-7.2477276E-005
3	0	5.977353746873850E+002	2.5684914E-001	-7.2477276E-005
3	0	5.982353746747540E+002	2.5642326E-001	2.2950437E-005
3	0	5.987353746621229E+002	2.5599787E-001	-9.1562819E-005
3	0	5.992353746494919E+002	2.5556657E-001	-7.2477276E-005
3	0	5.997353746368608E+002	2.5513628E-001	-1.4881945E-004
3	0	6.002353746242297E+002	2.5469375E-001	-3.4306191E-005
3	0	6.007353746115987E+002	2.5426179E-001	-9.1562819E-005
3	0	6.012353745989676E+002	2.5385875E-001	1.3746369E-004
3	0	6.017353745863365E+002	2.5345999E-001	4.2035979E-005
3	0	6.017693745854776E+002	2.5322986E-001	-7.2477276E-005