EC-Lab ASCII FILE
Nb header lines : 55                          

Open Circuit Voltage

Run on channel : 1 (SN 81504)
User : 
CE vs. WE compliance from -10 V to 10 V
Electrode connection : standard
Potential control : Ewe
Ewe ctrl range : min = -2.50 V, max = 2.50 V
Safety Limits :
	Do not start on E overload
Acquisition started on : 05/08/2026 00:05:30.308
Loaded Setting File :  C:\PEM-WE_measurements\2026\372_IV_IV IrOx, 5 min Pt, 30 min C, etched cathode\new station\Loopeis new\1,46 V different time gaps open cell\Loopeis 1,46V_180s_3_PEIS from 6500Hz to 1000Hz.mps
Saved on :
	File : L_28_Loopeis 1,46V_180s_3_PEIS from 6500Hz to 1000Hz_08_OCV_C01.mpr
	Directory : C:\PEM-WE_measurements\2026\372_IV_IV IrOx, 5 min Pt, 30 min C, etched cathode\new station\Loopeis new\1,46 V different time gaps open cell\
	Host : 192.168.0.2
Device : SP-150e (SN .005491)
Address : 192.168.0.91
EC-LAB for windows v11.71 (software)
Internet server v28.00 (firmware)
Command interpretor v14.01 (firmware)
Electrode material : 
Initial state : 
Electrolyte : 
Comments : 
Current amplifier : SP-150eB-20A
Electrode surface area : 0.001 cm²
Characteristic mass : 0.001 g
Equivalent Weight : 0.000 g/eq.
Density : 0.000 g/cm3
Volume (V) : 0.001 cm³
Record Analogic IN 1
Text export
   Mode : Standard
   Time format : Elapsed
Cycle Definition : Charge/Discharge alternance
External device configuration :
   device type : Temperature Probe
   device name : Other
   Analog IN 1 : 
      unit : T/Â°C
      max : 100.000 at 2.000 V
      min : 0.000 at 1.460 V
tR (h:m:s)          0:03:0.0000         
dER/dt (mV/h)       1.0                 
record              <Ewe>               
dER (mV)            10.00               
dtR (s)             0.5000              
E range min (V)     -2.500              
E range max (V)     2.500               

mode	error	time/s	<Ewe/V>	Analog IN 1/V	
3	0	7.204243883449089E+002	9.4170207E-001	-2.7038385E+002
3	0	7.209243883322779E+002	1.1265062E+000	-2.7034851E+002
3	0	7.214243883196468E+002	7.4241889E-001	-2.7039093E+002
3	0	7.219243883070158E+002	3.8605192E-001	-2.7037677E+002
3	0	7.224243882943847E+002	3.2127661E-001	-2.7038385E+002
3	0	7.229243882817536E+002	3.1204224E-001	-2.7037677E+002
3	0	7.234243882691226E+002	3.0552775E-001	-2.7037326E+002
3	0	7.239243882564915E+002	3.0012733E-001	-2.7039801E+002
3	0	7.244243882438604E+002	2.9589757E-001	-2.7035205E+002
3	0	7.249243882312294E+002	2.9258913E-001	-2.7038031E+002
3	0	7.254243882185983E+002	2.8993967E-001	-2.7039447E+002
3	0	7.259243882059673E+002	2.8778720E-001	-2.7038031E+002
3	0	7.264243881933362E+002	2.8599137E-001	-2.7036972E+002
3	0	7.269243881807051E+002	2.8446335E-001	-2.7037677E+002
3	0	7.274243881680741E+002	2.8311595E-001	-2.7038742E+002
3	0	7.279243881554430E+002	2.8192440E-001	-2.7035913E+002
3	0	7.284243881428119E+002	2.8087974E-001	-2.7036618E+002
3	0	7.289243881301809E+002	2.7993280E-001	-2.7038385E+002
3	0	7.294243881175498E+002	2.7906775E-001	-2.7039093E+002
3	0	7.299243881049188E+002	2.7826247E-001	-2.7039093E+002
3	0	7.304243880922877E+002	2.7750397E-001	-2.7037326E+002
3	0	7.309243880796566E+002	2.7677596E-001	-2.7035913E+002
3	0	7.314243880670256E+002	2.7606171E-001	-2.7039801E+002
3	0	7.319243880543945E+002	2.7536866E-001	-2.7034851E+002
3	0	7.324243880417635E+002	2.7473706E-001	-2.7039093E+002
3	0	7.329243880291324E+002	2.7413076E-001	-2.7035913E+002
3	0	7.334243880165013E+002	2.7353951E-001	-2.7036972E+002
3	0	7.339243880038703E+002	2.7295679E-001	-2.7038031E+002
3	0	7.344243879912392E+002	2.7239752E-001	-2.7034851E+002
3	0	7.349243879786081E+002	2.7183786E-001	-2.7040506E+002
3	0	7.354243879659771E+002	2.7125099E-001	-2.7036972E+002
3	0	7.359243879533460E+002	2.7068290E-001	-2.7038385E+002
3	0	7.364243879407150E+002	2.7015397E-001	-2.7037326E+002
3	0	7.369243879280839E+002	2.6963761E-001	-2.7038031E+002
3	0	7.374243879154528E+002	2.6912650E-001	-2.7037677E+002
3	0	7.379243879028218E+002	2.6861969E-001	-2.7036267E+002
3	0	7.384243878901907E+002	2.6812941E-001	-2.7040155E+002
3	0	7.389243878775596E+002	2.6763010E-001	-2.7038742E+002
3	0	7.394243878649286E+002	2.6711631E-001	-2.7035559E+002
3	0	7.399243878522975E+002	2.6660556E-001	-2.7039447E+002
3	0	7.404243878396665E+002	2.6613429E-001	-2.7038742E+002
3	0	7.409243878270354E+002	2.6566204E-001	-2.7035559E+002
3	0	7.414243878144043E+002	2.6519459E-001	-2.7037677E+002
3	0	7.419243878017733E+002	2.6473466E-001	-2.7035559E+002
3	0	7.424243877891422E+002	2.6428244E-001	-2.7037677E+002
3	0	7.429243877765111E+002	2.6382011E-001	-2.7034143E+002
3	0	7.434243877638801E+002	2.6333991E-001	-2.7038031E+002
3	0	7.439243877512490E+002	2.6286077E-001	-2.7039093E+002
3	0	7.444243877386180E+002	2.6242998E-001	-2.7040506E+002
3	0	7.449243877259869E+002	2.6199254E-001	-2.7037326E+002
3	0	7.454243877133558E+002	2.6155671E-001	-2.7038385E+002
3	0	7.459243877007248E+002	2.6113078E-001	-2.7038742E+002
3	0	7.464243876880937E+002	2.6071069E-001	-2.7036618E+002
3	0	7.469243876754626E+002	2.6027694E-001	-2.7038385E+002
3	0	7.474243876628316E+002	2.5983065E-001	-2.7039093E+002
3	0	7.479243876502005E+002	2.5939411E-001	-2.7035205E+002
3	0	7.484243876375695E+002	2.5899425E-001	-2.7040506E+002
3	0	7.489243876249384E+002	2.5858852E-001	-2.7037326E+002
3	0	7.494243876123073E+002	2.5819090E-001	-2.7037677E+002
3	0	7.499243875996763E+002	2.5779676E-001	-2.7038031E+002
3	0	7.504243875870452E+002	2.5740641E-001	-2.7036267E+002
3	0	7.509243875744141E+002	2.5700179E-001	-2.7038385E+002
3	0	7.514243875617831E+002	2.5658712E-001	-2.7034851E+002
3	0	7.519243875491520E+002	2.5617316E-001	-2.7035559E+002
3	0	7.524243875365210E+002	2.5580621E-001	-2.7039093E+002
3	0	7.529243875238899E+002	2.5544140E-001	-2.7036972E+002
3	0	7.534243875112588E+002	2.5507203E-001	-2.7038742E+002
3	0	7.539243874986278E+002	2.5471234E-001	-2.7038385E+002
3	0	7.544243874859967E+002	2.5435841E-001	-2.7037326E+002
3	0	7.549243874733656E+002	2.5399002E-001	-2.7036972E+002
3	0	7.554243874607346E+002	2.5360534E-001	-2.7038031E+002
3	0	7.559243874481035E+002	2.5322005E-001	-2.7038031E+002
3	0	7.564243874354725E+002	2.5288764E-001	-2.7038385E+002
3	0	7.569243874228414E+002	2.5254425E-001	-2.7039801E+002
3	0	7.574243874102103E+002	2.5221172E-001	-2.7040155E+002
3	0	7.579243873975793E+002	2.5187784E-001	-2.7038385E+002
3	0	7.584243873849482E+002	2.5154832E-001	-2.7038031E+002
3	0	7.589243873723171E+002	2.5120538E-001	-2.7038031E+002
3	0	7.594243873596861E+002	2.5084749E-001	-2.7041214E+002
3	0	7.599243873470550E+002	2.5049698E-001	-2.7035559E+002
3	0	7.604243873344240E+002	2.5018665E-001	-2.7037677E+002
3	0	7.609243873217929E+002	2.4987701E-001	-2.7041568E+002
3	0	7.614243873091618E+002	2.4957025E-001	-2.7036618E+002
3	0	7.619243872965308E+002	2.4927218E-001	-2.7036972E+002
3	0	7.624243872838997E+002	2.4896961E-001	-2.7038742E+002
3	0	7.629243872712686E+002	2.4866146E-001	-2.7040860E+002
3	0	7.634243872586376E+002	2.4832515E-001	-2.7037677E+002
3	0	7.639243872460065E+002	2.4800113E-001	-2.7037677E+002
3	0	7.644243872333755E+002	2.4771613E-001	-2.7037326E+002
3	0	7.649243872207444E+002	2.4742833E-001	-2.7037326E+002
3	0	7.654243872081133E+002	2.4713907E-001	-2.7039447E+002
3	0	7.659243871954823E+002	2.4685460E-001	-2.7038031E+002
3	0	7.664243871828512E+002	2.4658187E-001	-2.7036972E+002
3	0	7.669243871702201E+002	2.4629134E-001	-2.7039801E+002
3	0	7.674243871575891E+002	2.4598710E-001	-2.7035913E+002
3	0	7.679243871449580E+002	2.4568745E-001	-2.7037326E+002
3	0	7.684243871323270E+002	2.4543363E-001	-2.7036972E+002
3	0	7.689243871196959E+002	2.4517472E-001	-2.7036267E+002
3	0	7.694243871070648E+002	2.4491483E-001	-2.7038031E+002
3	0	7.699243870944338E+002	2.4465826E-001	-2.7039447E+002
3	0	7.704243870818027E+002	2.4440563E-001	-2.7036972E+002
3	0	7.709243870691716E+002	2.4413632E-001	-2.7037326E+002
3	0	7.714243870565406E+002	2.4385291E-001	-2.7037677E+002
3	0	7.719243870439095E+002	2.4357206E-001	-2.7037677E+002
3	0	7.724243870312785E+002	2.4333724E-001	-2.7035913E+002
3	0	7.729243870186474E+002	2.4310163E-001	-2.7037677E+002
3	0	7.734243870060163E+002	2.4286573E-001	-2.7036972E+002
3	0	7.739243869933853E+002	2.4263287E-001	-2.7038031E+002
3	0	7.744243869807542E+002	2.4239618E-001	-2.7039447E+002
3	0	7.749243869681231E+002	2.4214891E-001	-2.7040155E+002
3	0	7.754243869554921E+002	2.4189283E-001	-2.7037326E+002
3	0	7.759243869428610E+002	2.4163036E-001	-2.7038031E+002
3	0	7.764243869302300E+002	2.4141242E-001	-2.7038031E+002
3	0	7.769243869175989E+002	2.4119073E-001	-2.7037326E+002
3	0	7.774243869049678E+002	2.4097088E-001	-2.7036618E+002
3	0	7.779243868923368E+002	2.4076043E-001	-2.7037677E+002
3	0	7.784243868797057E+002	2.4054764E-001	-2.7036972E+002
3	0	7.789243868670746E+002	2.4032545E-001	-2.7038031E+002
3	0	7.794243868544436E+002	2.4008411E-001	-2.7037677E+002
3	0	7.799243868418125E+002	2.3984371E-001	-2.7036267E+002
3	0	7.804243868291815E+002	2.3964836E-001	-2.7039447E+002
3	0	7.809243868165504E+002	2.3945162E-001	-2.7039093E+002
3	0	7.814243868039193E+002	2.3924808E-001	-2.7037326E+002
3	0	7.819243867912883E+002	2.3905618E-001	-2.7037326E+002
3	0	7.824243867786572E+002	2.3886226E-001	-2.7037677E+002
3	0	7.829243867660261E+002	2.3865059E-001	-2.7040155E+002
3	0	7.834243867533951E+002	2.3841967E-001	-2.7037677E+002
3	0	7.839243867407640E+002	2.3819679E-001	-2.7038742E+002
3	0	7.844243867281330E+002	2.3801151E-001	-2.7035913E+002
3	0	7.849243867155019E+002	2.3782682E-001	-2.7038385E+002
3	0	7.854243867028708E+002	2.3763785E-001	-2.7036618E+002
3	0	7.859243866902398E+002	2.3744854E-001	-2.7038742E+002
3	0	7.864243866776087E+002	2.3725897E-001	-2.7040860E+002
3	0	7.869243866649776E+002	2.3706476E-001	-2.7035913E+002
3	0	7.874243866523466E+002	2.3685233E-001	-2.7037326E+002
3	0	7.879243866397155E+002	2.3664056E-001	-2.7038031E+002
3	0	7.884243866270845E+002	2.3647365E-001	-2.7040155E+002
3	0	7.889243866144534E+002	2.3629992E-001	-2.7038742E+002
3	0	7.894243866018223E+002	2.3612745E-001	-2.7036972E+002
3	0	7.899243865891913E+002	2.3596342E-001	-2.7038742E+002
3	0	7.904243865765602E+002	2.3578532E-001	-2.7039093E+002
3	0	7.909243865639291E+002	2.3558728E-001	-2.7036972E+002
3	0	7.914243865512981E+002	2.3540922E-001	-2.7038385E+002
3	0	7.919243865386670E+002	2.3523834E-001	-2.7040506E+002
3	0	7.924243865260360E+002	2.3509888E-001	-2.7039093E+002
3	0	7.929243865134049E+002	2.3496188E-001	-2.7037677E+002
3	0	7.934243865007738E+002	2.3481244E-001	-2.7038031E+002
3	0	7.939243864881428E+002	2.3465602E-001	-2.7037326E+002
3	0	7.944243864755117E+002	2.3449366E-001	-2.7035559E+002
3	0	7.949243864628806E+002	2.3432408E-001	-2.7041568E+002
3	0	7.954243864502496E+002	2.3413420E-001	-2.7038385E+002
3	0	7.959243864376185E+002	2.3394525E-001	-2.7039801E+002
3	0	7.964243864249875E+002	2.3379621E-001	-2.7038385E+002
3	0	7.969243864123564E+002	2.3366152E-001	-2.7038031E+002
3	0	7.974243863997253E+002	2.3351952E-001	-2.7036618E+002
3	0	7.979243863870943E+002	2.3337211E-001	-2.7037677E+002
3	0	7.984243863744632E+002	2.3323160E-001	-2.7034143E+002
3	0	7.989243863618321E+002	2.3307760E-001	-2.7037677E+002
3	0	7.994243863492011E+002	2.3290157E-001	-2.7037326E+002
3	0	7.999243863365700E+002	2.3272680E-001	-2.7038031E+002
3	0	8.004243863239390E+002	2.3259234E-001	-2.7038385E+002
3	0	8.009243863113079E+002	2.3246434E-001	-2.7038385E+002
3	0	8.014243862986768E+002	2.3233566E-001	-2.7036972E+002
3	0	8.019243862860458E+002	2.3219979E-001	-2.7038031E+002
3	0	8.024243862734147E+002	2.3206528E-001	-2.7038031E+002
3	0	8.029243862607836E+002	2.3191786E-001	-2.7038385E+002
3	0	8.034243862481526E+002	2.3175099E-001	-2.7036267E+002
3	0	8.039243862355215E+002	2.3157984E-001	-2.7038031E+002
3	0	8.044243862228905E+002	2.3145810E-001	-2.7038031E+002
3	0	8.049243862102594E+002	2.3133856E-001	-2.7038742E+002
3	0	8.054243861976283E+002	2.3121659E-001	-2.7038031E+002
3	0	8.059243861849973E+002	2.3108453E-001	-2.7036618E+002
3	0	8.064243861723662E+002	2.3095694E-001	-2.7038742E+002
3	0	8.069243861597352E+002	2.3081031E-001	-2.7039447E+002
3	0	8.074243861471041E+002	2.3064232E-001	-2.7036618E+002
3	0	8.079243861344730E+002	2.3048517E-001	-2.7036267E+002
3	0	8.084243861218420E+002	2.3036969E-001	-2.7035913E+002
3	0	8.089243861092109E+002	2.3026168E-001	-2.7038031E+002
3	0	8.094243860965798E+002	2.3015277E-001	-2.7037326E+002
3	0	8.099243860839488E+002	2.3003255E-001	-2.7038031E+002
3	0	8.104243860713177E+002	2.2991832E-001	-2.7038385E+002
3	0	8.109243860586867E+002	2.2978672E-001	-2.7038742E+002
3	0	8.114243860460556E+002	2.2963910E-001	-2.7039093E+002
3	0	8.119243860334245E+002	2.2948958E-001	-2.7036618E+002
3	0	8.124243860207935E+002	2.2938871E-001	-2.7039447E+002
3	0	8.129243860081624E+002	2.2928940E-001	-2.7036972E+002
3	0	8.134243859955313E+002	2.2919144E-001	-2.7036972E+002
3	0	8.139243859829003E+002	2.2907892E-001	-2.7039801E+002
3	0	8.144243859702692E+002	2.2897640E-001	-2.7037677E+002
3	0	8.149243859576382E+002	2.2885756E-001	-2.7038031E+002
3	0	8.154243859450071E+002	2.2871578E-001	-2.7035205E+002
3	0	8.159243859323760E+002	2.2857049E-001	-2.7036618E+002
3	0	8.164243859197450E+002	2.2847684E-001	-2.7038031E+002
3	0	8.169243859071139E+002	2.2838926E-001	-2.7038742E+002
3	0	8.174243858944828E+002	2.2829086E-001	-2.7035559E+002
3	0	8.179243858818518E+002	2.2819433E-001	-2.7037677E+002
3	0	8.184243858692207E+002	2.2809398E-001	-2.7039093E+002
3	0	8.189243858565897E+002	2.2798006E-001	-2.7037326E+002
3	0	8.194243858439586E+002	2.2784308E-001	-2.7039801E+002
3	0	8.199243858313275E+002	2.2770233E-001	-2.7039093E+002
3	0	8.204243858186965E+002	2.2760738E-001	-2.7039093E+002
3	0	8.209243858060654E+002	2.2752362E-001	-2.7039093E+002
3	0	8.214243857934343E+002	2.2743675E-001	-2.7038385E+002
3	0	8.219243857808033E+002	2.2734469E-001	-2.7038385E+002
3	0	8.224243857681722E+002	2.2724596E-001	-2.7036972E+002
3	0	8.229243857555412E+002	2.2713807E-001	-2.7041568E+002
3	0	8.234243857429101E+002	2.2700797E-001	-2.7035559E+002
3	0	8.239243857302790E+002	2.2687370E-001	-2.7036618E+002
3	0	8.244243857176480E+002	2.2678493E-001	-2.7038385E+002
3	0	8.249243857050169E+002	2.2670260E-001	-2.7035559E+002
3	0	8.254243856923858E+002	2.2661036E-001	-2.7037326E+002
3	0	8.259243856797548E+002	2.2651637E-001	-2.7036618E+002
3	0	8.264243856671237E+002	2.2642416E-001	-2.7038031E+002
3	0	8.269243856544927E+002	2.2631326E-001	-2.7038031E+002
3	0	8.274243856418616E+002	2.2618511E-001	-2.7039093E+002
3	0	8.279243856292305E+002	2.2605607E-001	-2.7037677E+002
3	0	8.284243856165995E+002	2.2597042E-001	-2.7038742E+002
3	0	8.289243856039684E+002	2.2589824E-001	-2.7037677E+002
3	0	8.294243855913373E+002	2.2581629E-001	-2.7038031E+002
3	0	8.299243855787063E+002	2.2573236E-001	-2.7038385E+002
3	0	8.304243855660752E+002	2.2565272E-001	-2.7039801E+002
3	0	8.309243855534442E+002	2.2555777E-001	-2.7038031E+002
3	0	8.314243855408131E+002	2.2543758E-001	-2.7039801E+002
3	0	8.319243855281820E+002	2.2531481E-001	-2.7036972E+002
3	0	8.324243855155510E+002	2.2523314E-001	-2.7038031E+002
3	0	8.329243855029199E+002	2.2515547E-001	-2.7037326E+002
3	0	8.334243854902888E+002	2.2508109E-001	-2.7036618E+002
3	0	8.339243854776578E+002	2.2500184E-001	-2.7038385E+002
3	0	8.344243854650267E+002	2.2492984E-001	-2.7035559E+002
3	0	8.349243854523957E+002	2.2483861E-001	-2.7038742E+002
3	0	8.354243854397646E+002	2.2472340E-001	-2.7035559E+002
3	0	8.359243854271335E+002	2.2460270E-001	-2.7037326E+002
3	0	8.364243854145025E+002	2.2452866E-001	-2.7036267E+002
3	0	8.369243854018714E+002	2.2446431E-001	-2.7039447E+002
3	0	8.374243853892403E+002	2.2439876E-001	-2.7038742E+002
3	0	8.379243853766093E+002	2.2432403E-001	-2.7040155E+002
3	0	8.384243853639782E+002	2.2424203E-001	-2.7039801E+002
3	0	8.389243853513472E+002	2.2415656E-001	-2.7038742E+002
3	0	8.394243853387161E+002	2.2403885E-001	-2.7038385E+002
3	0	8.399243853260850E+002	2.2392134E-001	-2.7039801E+002
3	0	8.404243853134540E+002	2.2384830E-001	-2.7037326E+002
3	0	8.409243853008229E+002	2.2379158E-001	-2.7038742E+002
3	0	8.414243852881918E+002	2.2372466E-001	-2.7035913E+002
3	0	8.419243852755608E+002	2.2365567E-001	-2.7037326E+002
3	0	8.424243852629297E+002	2.2358388E-001	-2.7039447E+002
3	0	8.429243852502987E+002	2.2349511E-001	-2.7038031E+002
3	0	8.434243852376676E+002	2.2337618E-001	-2.7039447E+002
3	0	8.439243852250365E+002	2.2326082E-001	-2.7038385E+002
3	0	8.444243852124055E+002	2.2318998E-001	-2.7037677E+002
3	0	8.449243851997744E+002	2.2312404E-001	-2.7036267E+002
3	0	8.454243851871433E+002	2.2305414E-001	-2.7035559E+002
3	0	8.459243851745123E+002	2.2298065E-001	-2.7039447E+002
3	0	8.464243851618812E+002	2.2290435E-001	-2.7040155E+002
3	0	8.469243851492502E+002	2.2281393E-001	-2.7035913E+002
3	0	8.474243851366191E+002	2.2270158E-001	-2.7037677E+002
3	0	8.479243851239880E+002	2.2258802E-001	-2.7035559E+002
3	0	8.484243851113570E+002	2.2252220E-001	-2.7036618E+002
3	0	8.489243850987259E+002	2.2247297E-001	-2.7038385E+002
3	0	8.494243850860948E+002	2.2240558E-001	-2.7037677E+002
3	0	8.499243850734638E+002	2.2233705E-001	-2.7039093E+002
3	0	8.504243850608327E+002	2.2226846E-001	-2.7037326E+002
3	0	8.509243850482017E+002	2.2219327E-001	-2.7039801E+002
3	0	8.514243850355706E+002	2.2208852E-001	-2.7038031E+002
3	0	8.519243850229395E+002	2.2197765E-001	-2.7036618E+002
3	0	8.524243850103085E+002	2.2191815E-001	-2.7035205E+002
3	0	8.529243849976774E+002	2.2186576E-001	-2.7037326E+002
3	0	8.534243849850463E+002	2.2180407E-001	-2.7037326E+002
3	0	8.539243849724153E+002	2.2174364E-001	-2.7039093E+002
3	0	8.544243849597842E+002	2.2168073E-001	-2.7038385E+002
3	0	8.549243849471532E+002	2.2160108E-001	-2.7040506E+002
3	0	8.554243849345221E+002	2.2149852E-001	-2.7039093E+002
3	0	8.559243849218910E+002	2.2139239E-001	-2.7039093E+002
3	0	8.564243849092600E+002	2.2133800E-001	-2.7037326E+002
3	0	8.569243848966289E+002	2.2129293E-001	-2.7038385E+002
3	0	8.574243848839978E+002	2.2123832E-001	-2.7037326E+002
3	0	8.579243848713668E+002	2.2117846E-001	-2.7035913E+002
3	0	8.584243848587357E+002	2.2111383E-001	-2.7038031E+002
3	0	8.589243848461047E+002	2.2103338E-001	-2.7037326E+002
3	0	8.594243848334736E+002	2.2093081E-001	-2.7040155E+002
3	0	8.599243848208425E+002	2.2083019E-001	-2.7040860E+002
3	0	8.604243848082115E+002	2.2077435E-001	-2.7039447E+002
3	0	8.609243847955804E+002	2.2072372E-001	-2.7039447E+002
3	0	8.614243847829493E+002	2.2067147E-001	-2.7036267E+002
3	0	8.619243847703183E+002	2.2061390E-001	-2.7035205E+002
3	0	8.624243847576872E+002	2.2055531E-001	-2.7034851E+002
3	0	8.629243847450562E+002	2.2048225E-001	-2.7038385E+002
3	0	8.634243847324251E+002	2.2038333E-001	-2.7039447E+002
3	0	8.639243847197940E+002	2.2028109E-001	-2.7038031E+002
3	0	8.644243847071630E+002	2.2022352E-001	-2.7036972E+002
3	0	8.649243846945319E+002	2.2017996E-001	-2.7036972E+002
3	0	8.654243846819008E+002	2.2012205E-001	-2.7037677E+002
3	0	8.659243846692698E+002	2.2005922E-001	-2.7039447E+002
3	0	8.664243846566387E+002	2.2000450E-001	-2.7038742E+002
3	0	8.669243846440077E+002	2.1992372E-001	-2.7036618E+002
3	0	8.674243846313766E+002	2.1981633E-001	-2.7038385E+002
3	0	8.679243846187455E+002	2.1971801E-001	-2.7038385E+002
3	0	8.684243846061145E+002	2.1965887E-001	-2.7038385E+002
3	0	8.689243845934834E+002	2.1961595E-001	-2.7035913E+002
3	0	8.694243845808523E+002	2.1956681E-001	-2.7040155E+002
3	0	8.699243845682213E+002	2.1951595E-001	-2.7038385E+002
3	0	8.704243845555902E+002	2.1945965E-001	-2.7038031E+002
3	0	8.709243845429592E+002	2.1939360E-001	-2.7039447E+002
3	0	8.714243845303281E+002	2.1930185E-001	-2.7037326E+002
3	0	8.719243845176970E+002	2.1920767E-001	-2.7040155E+002
3	0	8.724243845050660E+002	2.1916167E-001	-2.7035205E+002
3	0	8.729243844924349E+002	2.1912137E-001	-2.7038385E+002
3	0	8.734243844798038E+002	2.1907647E-001	-2.7040506E+002
3	0	8.739243844671728E+002	2.1901917E-001	-2.7038385E+002
3	0	8.744243844545417E+002	2.1896927E-001	-2.7039093E+002
3	0	8.749243844419107E+002	2.1890283E-001	-2.7038031E+002
3	0	8.754243844292796E+002	2.1881717E-001	-2.7038742E+002
3	0	8.759243844166485E+002	2.1872336E-001	-2.7037326E+002
3	0	8.764243844040175E+002	2.1867847E-001	-2.7035559E+002
3	0	8.769243843913864E+002	2.1864019E-001	-2.7038385E+002
3	0	8.774243843787553E+002	2.1860054E-001	-2.7039801E+002
3	0	8.779243843661243E+002	2.1855387E-001	-2.7036267E+002
3	0	8.784243843534932E+002	2.1850477E-001	-2.7038385E+002
3	0	8.789243843408622E+002	2.1844526E-001	-2.7037326E+002
3	0	8.794243843282311E+002	2.1835525E-001	-2.7038031E+002
3	0	8.799243843156000E+002	2.1826251E-001	-2.7040506E+002
3	0	8.804243843029690E+002	2.1821707E-001	-2.7037677E+002
3	0	8.809243842903379E+002	2.1818127E-001	-2.7036267E+002
3	0	8.814243842777068E+002	2.1813922E-001	-2.7039447E+002
3	0	8.819243842650758E+002	2.1809581E-001	-2.7039801E+002
3	0	8.824243842524447E+002	2.1804750E-001	-2.7037326E+002
3	0	8.829243842398137E+002	2.1798386E-001	-2.7039093E+002
3	0	8.834243842271826E+002	2.1789837E-001	-2.7035913E+002
3	0	8.839243842145515E+002	2.1780711E-001	-2.7036267E+002
3	0	8.844243842019205E+002	2.1775922E-001	-2.7036618E+002
3	0	8.849243841892894E+002	2.1772256E-001	-2.7036618E+002
3	0	8.854243841766584E+002	2.1767178E-001	-2.7039447E+002
3	0	8.859243841640273E+002	2.1762252E-001	-2.7038031E+002
3	0	8.864243841513962E+002	2.1757065E-001	-2.7038385E+002
3	0	8.869243841387652E+002	2.1750902E-001	-2.7036972E+002
3	0	8.874243841261341E+002	2.1741812E-001	-2.7037326E+002
3	0	8.879243841135030E+002	2.1732867E-001	-2.7037677E+002
3	0	8.884243841008720E+002	2.1728201E-001	-2.7037677E+002
3	0	8.889243840882409E+002	2.1725719E-001	-2.7035913E+002
3	0	8.894243840756099E+002	2.1722008E-001	-2.7036267E+002
3	0	8.899243840629788E+002	2.1717633E-001	-2.7036972E+002
3	0	8.904243840503477E+002	2.1713193E-001	-2.7039447E+002
3	0	8.909243840377167E+002	2.1706818E-001	-2.7037677E+002
3	0	8.914243840250856E+002	2.1698236E-001	-2.7038385E+002
3	0	8.919243840124545E+002	2.1689636E-001	-2.7040155E+002
3	0	8.924243839998235E+002	2.1685392E-001	-2.7037677E+002
3	0	8.929243839871924E+002	2.1682291E-001	-2.7041214E+002
3	0	8.934243839745614E+002	2.1677819E-001	-2.7039093E+002
3	0	8.939243839619303E+002	2.1673526E-001	-2.7037326E+002
3	0	8.944243839492992E+002	2.1669449E-001	-2.7037677E+002
3	0	8.949243839366682E+002	2.1664090E-001	-2.7040155E+002
3	0	8.954243839240371E+002	2.1656518E-001	-2.7037677E+002
3	0	8.959243839114060E+002	2.1647780E-001	-2.7039447E+002
3	0	8.964243838987750E+002	2.1644208E-001	-2.7037677E+002
3	0	8.969243838861439E+002	2.1641220E-001	-2.7037326E+002
3	0	8.974243838735129E+002	2.1637011E-001	-2.7039801E+002
3	0	8.979243838608818E+002	2.1633063E-001	-2.7039447E+002
3	0	8.984243838482507E+002	2.1629068E-001	-2.7038742E+002
3	0	8.989243838356197E+002	2.1623543E-001	-2.7036267E+002
3	0	8.994243838229886E+002	2.1615839E-001	-2.7037677E+002
3	0	8.999243838103575E+002	2.1607640E-001	-2.7038385E+002
3	0	8.999477838097664E+002	2.1605107E-001	-2.7040155E+002