EC-Lab ASCII FILE
Nb header lines : 55                          

Open Circuit Voltage

Run on channel : 1 (SN 81504)
User : 
CE vs. WE compliance from -10 V to 10 V
Electrode connection : standard
Potential control : Ewe
Ewe ctrl range : min = -2.50 V, max = 2.50 V
Safety Limits :
	Do not start on E overload
Acquisition started on : 05/10/2026 09:06:36.404
Loaded Setting File :  C:\PEM-WE_measurements\2026\372_IV_IV IrOx, 5 min Pt, 30 min C, etched cathode\new station\Loopeis new\1,46 V different time gaps closed cell\Loopeis 1,46V_180s_3_PEIS from 6500Hz to 1000Hz.mps
Saved on :
	File : L_28_Loopeis 1,46V_180s_3_PEIS from 6500Hz to 1000Hz_16_OCV_C01.mpr
	Directory : C:\PEM-WE_measurements\2026\372_IV_IV IrOx, 5 min Pt, 30 min C, etched cathode\new station\Loopeis new\1,46 V different time gaps closed cell\
	Host : 192.168.0.2
Device : SP-150e (SN .005491)
Address : 192.168.0.91
EC-LAB for windows v11.71 (software)
Internet server v28.00 (firmware)
Command interpretor v14.01 (firmware)
Electrode material : 
Initial state : 
Electrolyte : 
Comments : 
Current amplifier : SP-150eB-20A
Electrode surface area : 0.001 cm²
Characteristic mass : 0.001 g
Equivalent Weight : 0.000 g/eq.
Density : 0.000 g/cm3
Volume (V) : 0.001 cm³
Record Analogic IN 1
Text export
   Mode : Standard
   Time format : Elapsed
Cycle Definition : Charge/Discharge alternance
External device configuration :
   device type : Temperature Probe
   device name : Other
   Analog IN 1 : 
      unit : T/Â°C
      max : 100.000 at 2.000 V
      min : 0.000 at 1.460 V
tR (h:m:s)          0:03:0.0000         
dER/dt (mV/h)       1.0                 
record              <Ewe>               
dER (mV)            10.00               
dtR (s)             0.5000              
E range min (V)     -2.500              
E range max (V)     2.500               

mode	error	time/s	<Ewe/V>	Analog IN 1/V	
3	0	1.624829772366429E+003	1.1070580E+000	-2.7035913E+002
3	0	1.625329772353798E+003	1.2547081E+000	-2.7036972E+002
3	0	1.625829772341167E+003	1.2429819E+000	-2.7036618E+002
3	0	1.626329772328536E+003	1.2175467E+000	-2.7038031E+002
3	0	1.626829772315905E+003	1.1719170E+000	-2.7038031E+002
3	0	1.627329772303274E+003	1.0858316E+000	-2.7037677E+002
3	0	1.627829772290643E+003	7.9219794E-001	-2.7035913E+002
3	0	1.628329772278012E+003	4.4718575E-001	-2.7037326E+002
3	0	1.628829772265381E+003	3.4418234E-001	-2.7038031E+002
3	0	1.629329772252750E+003	3.2589945E-001	-2.7039801E+002
3	0	1.629829772240118E+003	3.2473060E-001	-2.7035913E+002
3	0	1.630329772227487E+003	3.2662463E-001	-2.7039093E+002
3	0	1.630829772214856E+003	3.2862228E-001	-2.7035559E+002
3	0	1.631329772202225E+003	3.3014137E-001	-2.7038031E+002
3	0	1.631829772189594E+003	3.3131829E-001	-2.7038385E+002
3	0	1.632329772176963E+003	3.3242306E-001	-2.7038742E+002
3	0	1.632829772164332E+003	3.3321640E-001	-2.7038031E+002
3	0	1.633329772151701E+003	3.3384806E-001	-2.7038031E+002
3	0	1.633829772139070E+003	3.3444518E-001	-2.7038031E+002
3	0	1.634329772126439E+003	3.3504784E-001	-2.7038385E+002
3	0	1.634829772113808E+003	3.3551764E-001	-2.7039093E+002
3	0	1.635329772101177E+003	3.3587381E-001	-2.7036267E+002
3	0	1.635829772088546E+003	3.3631051E-001	-2.7037677E+002
3	0	1.636329772075915E+003	3.3699074E-001	-2.7037326E+002
3	0	1.636829772063284E+003	3.3752620E-001	-2.7037677E+002
3	0	1.637329772050653E+003	3.3794752E-001	-2.7038031E+002
3	0	1.637829772038021E+003	3.3833247E-001	-2.7038742E+002
3	0	1.638329772025390E+003	3.3867338E-001	-2.7036267E+002
3	0	1.638829772012759E+003	3.3895528E-001	-2.7036618E+002
3	0	1.639329772000128E+003	3.3909246E-001	-2.7039093E+002
3	0	1.639829771987497E+003	3.3931220E-001	-2.7038031E+002
3	0	1.640329771974866E+003	3.3979794E-001	-2.7038031E+002
3	0	1.640829771962235E+003	3.4017873E-001	-2.7039093E+002
3	0	1.641329771949604E+003	3.4044960E-001	-2.7041214E+002
3	0	1.641829771936973E+003	3.4071741E-001	-2.7039801E+002
3	0	1.642329771924342E+003	3.4093705E-001	-2.7035559E+002
3	0	1.642829771911711E+003	3.4105602E-001	-2.7037326E+002
3	0	1.643329771899080E+003	3.4109700E-001	-2.7039801E+002
3	0	1.643829771886449E+003	3.4122401E-001	-2.7037677E+002
3	0	1.644329771873818E+003	3.4160271E-001	-2.7038031E+002
3	0	1.644829771861187E+003	3.4190440E-001	-2.7039093E+002
3	0	1.645329771848556E+003	3.4209204E-001	-2.7035559E+002
3	0	1.645829771835924E+003	3.4226301E-001	-2.7040506E+002
3	0	1.646329771823293E+003	3.4240082E-001	-2.7037677E+002
3	0	1.646829771810662E+003	3.4244889E-001	-2.7037677E+002
3	0	1.647329771798031E+003	3.4238175E-001	-2.7038031E+002
3	0	1.647829771785400E+003	3.4243178E-001	-2.7035913E+002
3	0	1.648329771772769E+003	3.4273160E-001	-2.7035913E+002
3	0	1.648829771760138E+003	3.4293675E-001	-2.7038385E+002
3	0	1.649329771747507E+003	3.4303558E-001	-2.7039447E+002
3	0	1.649829771734876E+003	3.4312153E-001	-2.7038385E+002
3	0	1.650329771722245E+003	3.4318069E-001	-2.7037677E+002
3	0	1.650829771709614E+003	3.4316191E-001	-2.7036618E+002
3	0	1.651329771696983E+003	3.4307724E-001	-2.7036618E+002
3	0	1.651829771684352E+003	3.4311986E-001	-2.7034497E+002
3	0	1.652329771671721E+003	3.4351227E-001	-2.7035559E+002
3	0	1.652829771659090E+003	3.4388778E-001	-2.7038031E+002
3	0	1.653329771646459E+003	3.4423342E-001	-2.7036972E+002
3	0	1.653829771633827E+003	3.4459102E-001	-2.7038742E+002
3	0	1.654329771621196E+003	3.4494472E-001	-2.7038385E+002
3	0	1.654829771608565E+003	3.4523308E-001	-2.7035205E+002
3	0	1.655329771595934E+003	3.4541878E-001	-2.7036267E+002
3	0	1.655829771583303E+003	3.4563434E-001	-2.7036618E+002
3	0	1.656329771570672E+003	3.4608218E-001	-2.7035913E+002
3	0	1.656829771558041E+003	3.4640402E-001	-2.7037677E+002
3	0	1.657329771545410E+003	3.4659904E-001	-2.7036267E+002
3	0	1.657829771532779E+003	3.4672880E-001	-2.7038031E+002
3	0	1.658329771520148E+003	3.4681746E-001	-2.7037677E+002
3	0	1.658829771507517E+003	3.4681278E-001	-2.7038031E+002
3	0	1.659329771494886E+003	3.4669787E-001	-2.7036972E+002
3	0	1.659829771482255E+003	3.4663782E-001	-2.7037677E+002
3	0	1.660329771469624E+003	3.4683213E-001	-2.7036972E+002
3	0	1.660829771456993E+003	3.4694347E-001	-2.7038742E+002
3	0	1.661329771444362E+003	3.4695056E-001	-2.7037326E+002
3	0	1.661829771431730E+003	3.4692934E-001	-2.7038742E+002
3	0	1.662329771419099E+003	3.4687838E-001	-2.7035913E+002
3	0	1.662829771406468E+003	3.4677580E-001	-2.7037326E+002
3	0	1.663329771393837E+003	3.4655312E-001	-2.7038385E+002
3	0	1.663829771381206E+003	3.4639636E-001	-2.7038385E+002
3	0	1.664329771368575E+003	3.4649870E-001	-2.7036972E+002
3	0	1.664829771355944E+003	3.4652781E-001	-2.7037326E+002
3	0	1.665329771343313E+003	3.4647158E-001	-2.7038742E+002
3	0	1.665829771330682E+003	3.4634691E-001	-2.7039093E+002
3	0	1.666329771318051E+003	3.4625077E-001	-2.7040506E+002
3	0	1.666829771305420E+003	3.4606794E-001	-2.7040155E+002
3	0	1.667329771292789E+003	3.4581769E-001	-2.7038385E+002
3	0	1.667829771280158E+003	3.4561548E-001	-2.7035913E+002
3	0	1.668329771267527E+003	3.4569812E-001	-2.7039093E+002
3	0	1.668829771254896E+003	3.4571409E-001	-2.7037677E+002
3	0	1.669329771242265E+003	3.4564340E-001	-2.7038385E+002
3	0	1.669829771229633E+003	3.4552586E-001	-2.7038385E+002
3	0	1.670329771217002E+003	3.4540153E-001	-2.7038742E+002
3	0	1.670829771204371E+003	3.4520978E-001	-2.7037677E+002
3	0	1.671329771191740E+003	3.4495804E-001	-2.7039093E+002
3	0	1.671829771179109E+003	3.4481022E-001	-2.7038031E+002
3	0	1.672329771166478E+003	3.4498593E-001	-2.7038742E+002
3	0	1.672829771153847E+003	3.4515524E-001	-2.7036618E+002
3	0	1.673329771141216E+003	3.4530720E-001	-2.7034851E+002
3	0	1.673829771128585E+003	3.4545442E-001	-2.7037677E+002
3	0	1.674329771115954E+003	3.4562325E-001	-2.7035913E+002
3	0	1.674829771103323E+003	3.4573829E-001	-2.7036972E+002
3	0	1.675329771090692E+003	3.4573710E-001	-2.7039801E+002
3	0	1.675829771078061E+003	3.4582484E-001	-2.7038742E+002
3	0	1.676329771065430E+003	3.4612116E-001	-2.7038031E+002
3	0	1.676829771052799E+003	3.4630531E-001	-2.7041919E+002
3	0	1.677329771040168E+003	3.4637088E-001	-2.7036972E+002
3	0	1.677829771027536E+003	3.4637827E-001	-2.7038031E+002
3	0	1.678329771014905E+003	3.4632736E-001	-2.7036972E+002
3	0	1.678829771002274E+003	3.4620011E-001	-2.7036618E+002
3	0	1.679329770989643E+003	3.4600276E-001	-2.7040155E+002
3	0	1.679829770977012E+003	3.4585622E-001	-2.7036618E+002
3	0	1.680329770964381E+003	3.4594527E-001	-2.7036972E+002
3	0	1.680829770951750E+003	3.4595656E-001	-2.7039801E+002
3	0	1.681329770939119E+003	3.4587723E-001	-2.7038742E+002
3	0	1.681829770926488E+003	3.4572911E-001	-2.7041214E+002
3	0	1.682329770913857E+003	3.4554297E-001	-2.7037326E+002
3	0	1.682829770901226E+003	3.4530234E-001	-2.7037326E+002
3	0	1.683329770888595E+003	3.4495565E-001	-2.7038385E+002
3	0	1.683829770875964E+003	3.4469509E-001	-2.7037677E+002
3	0	1.684329770863333E+003	3.4467578E-001	-2.7036972E+002
3	0	1.684829770850702E+003	3.4458351E-001	-2.7037326E+002
3	0	1.685329770838071E+003	3.4443945E-001	-2.7038031E+002
3	0	1.685829770825439E+003	3.4423622E-001	-2.7034851E+002
3	0	1.686329770812808E+003	3.4406888E-001	-2.7034497E+002
3	0	1.686829770800177E+003	3.4383681E-001	-2.7038031E+002
3	0	1.687329770787546E+003	3.4347999E-001	-2.7036972E+002
3	0	1.687829770774915E+003	3.4321731E-001	-2.7039093E+002
3	0	1.688329770762284E+003	3.4319404E-001	-2.7036972E+002
3	0	1.688829770749653E+003	3.4311754E-001	-2.7039093E+002
3	0	1.689329770737022E+003	3.4298050E-001	-2.7037677E+002
3	0	1.689829770724391E+003	3.4276366E-001	-2.7039447E+002
3	0	1.690329770711760E+003	3.4254485E-001	-2.7037677E+002
3	0	1.690829770699129E+003	3.4228674E-001	-2.7038742E+002
3	0	1.691329770686498E+003	3.4196958E-001	-2.7036972E+002
3	0	1.691829770673867E+003	3.4175351E-001	-2.7040155E+002
3	0	1.692329770661236E+003	3.4181938E-001	-2.7038742E+002
3	0	1.692829770648605E+003	3.4189948E-001	-2.7037677E+002
3	0	1.693329770635974E+003	3.4197384E-001	-2.7037326E+002
3	0	1.693829770623342E+003	3.4206030E-001	-2.7036267E+002
3	0	1.694329770610711E+003	3.4217760E-001	-2.7039093E+002
3	0	1.694829770598080E+003	3.4226120E-001	-2.7038031E+002
3	0	1.695329770585449E+003	3.4226990E-001	-2.7035559E+002
3	0	1.695829770572818E+003	3.4229586E-001	-2.7039801E+002
3	0	1.696329770560187E+003	3.4252352E-001	-2.7036267E+002
3	0	1.696829770547556E+003	3.4266403E-001	-2.7034497E+002
3	0	1.697329770534925E+003	3.4271356E-001	-2.7038031E+002
3	0	1.697829770522294E+003	3.4267920E-001	-2.7038742E+002
3	0	1.698329770509663E+003	3.4260577E-001	-2.7036972E+002
3	0	1.698829770497032E+003	3.4245300E-001	-2.7036618E+002
3	0	1.699329770484401E+003	3.4218851E-001	-2.7038031E+002
3	0	1.699829770471770E+003	3.4197614E-001	-2.7038031E+002
3	0	1.700329770459139E+003	3.4200674E-001	-2.7036267E+002
3	0	1.700829770446508E+003	3.4196061E-001	-2.7036972E+002
3	0	1.701329770433877E+003	3.4182301E-001	-2.7036972E+002
3	0	1.701829770421245E+003	3.4162706E-001	-2.7036267E+002
3	0	1.702329770408614E+003	3.4143129E-001	-2.7040506E+002
3	0	1.702829770395983E+003	3.4115827E-001	-2.7039093E+002
3	0	1.703329770383352E+003	3.4080595E-001	-2.7036972E+002
3	0	1.703829770370721E+003	3.4050050E-001	-2.7038031E+002
3	0	1.704329770358090E+003	3.4044918E-001	-2.7037677E+002
3	0	1.704829770345459E+003	3.4036216E-001	-2.7036972E+002
3	0	1.705329770332828E+003	3.4020337E-001	-2.7037677E+002
3	0	1.705829770320197E+003	3.3998489E-001	-2.7037326E+002
3	0	1.706329770307566E+003	3.3977067E-001	-2.7040506E+002
3	0	1.706829770294935E+003	3.3948189E-001	-2.7035559E+002
3	0	1.707329770282304E+003	3.3911130E-001	-2.7037677E+002
3	0	1.707829770269673E+003	3.3880597E-001	-2.7037677E+002
3	0	1.708329770257042E+003	3.3872169E-001	-2.7039093E+002
3	0	1.708829770244411E+003	3.3861014E-001	-2.7034143E+002
3	0	1.709329770231780E+003	3.3843327E-001	-2.7036972E+002
3	0	1.709829770219148E+003	3.3823034E-001	-2.7039447E+002
3	0	1.710329770206517E+003	3.3799407E-001	-2.7038031E+002
3	0	1.710829770193886E+003	3.3773214E-001	-2.7038031E+002
3	0	1.711329770181255E+003	3.3738095E-001	-2.7036972E+002
3	0	1.711829770168624E+003	3.3711246E-001	-2.7036972E+002
3	0	1.712329770155993E+003	3.3714145E-001	-2.7036267E+002
3	0	1.712829770143362E+003	3.3718529E-001	-2.7038742E+002
3	0	1.713329770130731E+003	3.3722603E-001	-2.7039801E+002
3	0	1.713829770118100E+003	3.3728373E-001	-2.7036972E+002
3	0	1.714329770105469E+003	3.3738697E-001	-2.7041214E+002
3	0	1.714829770092838E+003	3.3745569E-001	-2.7036267E+002
3	0	1.715329770080207E+003	3.3742756E-001	-2.7036618E+002
3	0	1.715829770067576E+003	3.3742633E-001	-2.7040155E+002
3	0	1.716329770054945E+003	3.3763900E-001	-2.7040155E+002
3	0	1.716829770042314E+003	3.3777529E-001	-2.7035205E+002
3	0	1.717329770029683E+003	3.3782071E-001	-2.7040155E+002
3	0	1.717829770017051E+003	3.3778676E-001	-2.7037326E+002
3	0	1.718329770004420E+003	3.3770299E-001	-2.7037677E+002
3	0	1.718829769991789E+003	3.3753800E-001	-2.7038031E+002
3	0	1.719329769979158E+003	3.3726752E-001	-2.7038031E+002
3	0	1.719829769966527E+003	3.3701596E-001	-2.7036972E+002
3	0	1.720329769953896E+003	3.3698463E-001	-2.7037326E+002
3	0	1.720829769941265E+003	3.3690801E-001	-2.7037326E+002
3	0	1.721329769928634E+003	3.3675703E-001	-2.7039447E+002
3	0	1.721829769916003E+003	3.3656812E-001	-2.7037677E+002
3	0	1.722329769903372E+003	3.3638915E-001	-2.7037677E+002
3	0	1.722829769890741E+003	3.3613309E-001	-2.7037326E+002
3	0	1.723329769878110E+003	3.3577877E-001	-2.7036267E+002
3	0	1.723829769865479E+003	3.3545926E-001	-2.7038031E+002
3	0	1.724329769852848E+003	3.3538193E-001	-2.7037326E+002
3	0	1.724829769840217E+003	3.3529538E-001	-2.7037677E+002
3	0	1.725329769827586E+003	3.3516562E-001	-2.7039093E+002
3	0	1.725829769814954E+003	3.3497807E-001	-2.7037677E+002
3	0	1.726329769802323E+003	3.3475563E-001	-2.7038742E+002
3	0	1.726829769789692E+003	3.3447012E-001	-2.7038031E+002
3	0	1.727329769777061E+003	3.3409369E-001	-2.7039447E+002
3	0	1.727829769764430E+003	3.3375958E-001	-2.7037677E+002
3	0	1.728329769751799E+003	3.3367598E-001	-2.7037677E+002
3	0	1.728829769739168E+003	3.3356261E-001	-2.7037677E+002
3	0	1.729329769726537E+003	3.3339003E-001	-2.7040155E+002
3	0	1.729829769713906E+003	3.3317235E-001	-2.7036618E+002
3	0	1.730329769701275E+003	3.3294013E-001	-2.7034851E+002
3	0	1.730829769688644E+003	3.3263874E-001	-2.7036267E+002
3	0	1.731329769676013E+003	3.3226398E-001	-2.7038031E+002
3	0	1.731829769663382E+003	3.3196142E-001	-2.7038385E+002
3	0	1.732329769650751E+003	3.3192790E-001	-2.7035913E+002
3	0	1.732829769638120E+003	3.3193198E-001	-2.7035205E+002
3	0	1.733329769625489E+003	3.3194581E-001	-2.7037326E+002
3	0	1.733829769612857E+003	3.3198270E-001	-2.7038031E+002
3	0	1.734329769600226E+003	3.3203584E-001	-2.7038385E+002
3	0	1.734829769587595E+003	3.3206010E-001	-2.7038031E+002
3	0	1.735329769574964E+003	3.3200905E-001	-2.7039447E+002
3	0	1.735829769562333E+003	3.3199039E-001	-2.7038742E+002
3	0	1.736329769549702E+003	3.3218107E-001	-2.7037326E+002
3	0	1.736829769537071E+003	3.3231226E-001	-2.7039093E+002
3	0	1.737329769524440E+003	3.3237034E-001	-2.7038385E+002
3	0	1.737829769511809E+003	3.3234137E-001	-2.7039447E+002
3	0	1.738329769499178E+003	3.3225507E-001	-2.7037677E+002
3	0	1.738829769486547E+003	3.3209226E-001	-2.7038742E+002
3	0	1.739329769473916E+003	3.3183429E-001	-2.7038031E+002
3	0	1.739829769461285E+003	3.3158717E-001	-2.7037677E+002
3	0	1.740329769448654E+003	3.3154944E-001	-2.7038742E+002
3	0	1.740829769436023E+003	3.3148560E-001	-2.7036618E+002
3	0	1.741329769423392E+003	3.3136073E-001	-2.7038031E+002
3	0	1.741829769410760E+003	3.3117250E-001	-2.7036972E+002
3	0	1.742329769398129E+003	3.3098060E-001	-2.7037326E+002
3	0	1.742829769385498E+003	3.3071417E-001	-2.7035205E+002
3	0	1.743329769372867E+003	3.3036143E-001	-2.7038742E+002
3	0	1.743829769360236E+003	3.3003512E-001	-2.7039801E+002
3	0	1.744329769347605E+003	3.2993561E-001	-2.7040155E+002
3	0	1.744829769334974E+003	3.2981530E-001	-2.7039447E+002
3	0	1.745329769322343E+003	3.2964623E-001	-2.7039093E+002
3	0	1.745829769309712E+003	3.2944366E-001	-2.7037677E+002
3	0	1.746329769297081E+003	3.2923415E-001	-2.7034851E+002
3	0	1.746829769284450E+003	3.2897174E-001	-2.7036618E+002
3	0	1.747329769271819E+003	3.2861429E-001	-2.7037677E+002
3	0	1.747829769259188E+003	3.2829520E-001	-2.7038031E+002
3	0	1.748329769246557E+003	3.2819244E-001	-2.7035913E+002
3	0	1.748829769233926E+003	3.2807767E-001	-2.7036972E+002
3	0	1.749329769221295E+003	3.2791325E-001	-2.7036972E+002
3	0	1.749829769208663E+003	3.2769281E-001	-2.7038742E+002
3	0	1.750329769196032E+003	3.2746625E-001	-2.7039093E+002
3	0	1.750829769183401E+003	3.2717222E-001	-2.7038031E+002
3	0	1.751329769170770E+003	3.2681412E-001	-2.7040506E+002
3	0	1.751829769158139E+003	3.2649225E-001	-2.7038385E+002
3	0	1.752329769145508E+003	3.2642183E-001	-2.7036267E+002
3	0	1.752829769132877E+003	3.2641673E-001	-2.7037326E+002
3	0	1.753329769120246E+003	3.2642797E-001	-2.7038385E+002
3	0	1.753829769107615E+003	3.2645452E-001	-2.7037326E+002
3	0	1.754329769094984E+003	3.2650396E-001	-2.7038031E+002
3	0	1.754829769082353E+003	3.2653269E-001	-2.7038031E+002
3	0	1.755329769069722E+003	3.2648057E-001	-2.7036267E+002
3	0	1.755829769057091E+003	3.2646039E-001	-2.7040155E+002
3	0	1.756329769044460E+003	3.2664075E-001	-2.7035913E+002
3	0	1.756829769031829E+003	3.2679000E-001	-2.7038031E+002
3	0	1.757329769019198E+003	3.2685652E-001	-2.7038385E+002
3	0	1.757829769006566E+003	3.2683566E-001	-2.7038742E+002
3	0	1.758329768993935E+003	3.2677215E-001	-2.7039447E+002
3	0	1.758829768981304E+003	3.2665190E-001	-2.7038031E+002
3	0	1.759329768968673E+003	3.2638401E-001	-2.7036618E+002
3	0	1.759829768956042E+003	3.2612932E-001	-2.7038742E+002
3	0	1.760329768943411E+003	3.2606158E-001	-2.7037326E+002
3	0	1.760829768930780E+003	3.2597810E-001	-2.7036972E+002
3	0	1.761329768918149E+003	3.2584608E-001	-2.7037326E+002
3	0	1.761829768905518E+003	3.2565311E-001	-2.7038385E+002
3	0	1.762329768892887E+003	3.2542279E-001	-2.7039093E+002
3	0	1.762829768880256E+003	3.2517096E-001	-2.7041214E+002
3	0	1.763329768867625E+003	3.2482392E-001	-2.7036972E+002
3	0	1.763829768854994E+003	3.2448676E-001	-2.7039447E+002
3	0	1.764329768842363E+003	3.2436979E-001	-2.7039801E+002
3	0	1.764829768829732E+003	3.2425597E-001	-2.7038385E+002
3	0	1.765329768817101E+003	3.2408690E-001	-2.7037677E+002
3	0	1.765829768804470E+003	3.2386491E-001	-2.7038031E+002
3	0	1.766329768791838E+003	3.2363644E-001	-2.7036267E+002
3	0	1.766829768779207E+003	3.2335195E-001	-2.7040155E+002
3	0	1.767329768766576E+003	3.2298580E-001	-2.7034851E+002
3	0	1.767829768753945E+003	3.2265532E-001	-2.7041568E+002
3	0	1.768329768741314E+003	3.2252902E-001	-2.7037677E+002
3	0	1.768829768728683E+003	3.2241002E-001	-2.7037677E+002
3	0	1.769329768716052E+003	3.2226530E-001	-2.7033789E+002
3	0	1.769829768703421E+003	3.2209438E-001	-2.7038742E+002
3	0	1.770329768690790E+003	3.2188910E-001	-2.7037677E+002
3	0	1.770829768678159E+003	3.2161677E-001	-2.7037326E+002
3	0	1.771329768665528E+003	3.2126942E-001	-2.7036972E+002
3	0	1.771829768652897E+003	3.2094124E-001	-2.7039093E+002
3	0	1.772329768640266E+003	3.2084215E-001	-2.7039801E+002
3	0	1.772829768627635E+003	3.2080841E-001	-2.7039447E+002
3	0	1.773329768615004E+003	3.2079300E-001	-2.7039093E+002
3	0	1.773829768602373E+003	3.2079092E-001	-2.7038031E+002
3	0	1.774329768589741E+003	3.2083434E-001	-2.7039447E+002
3	0	1.774829768577110E+003	3.2086039E-001	-2.7038031E+002
3	0	1.775329768564479E+003	3.2083648E-001	-2.7037326E+002
3	0	1.775829768551848E+003	3.2084140E-001	-2.7039447E+002
3	0	1.776329768539217E+003	3.2101694E-001	-2.7039447E+002
3	0	1.776829768526586E+003	3.2117495E-001	-2.7038031E+002
3	0	1.777329768513955E+003	3.2126680E-001	-2.7040506E+002
3	0	1.777829768501324E+003	3.2126537E-001	-2.7039093E+002
3	0	1.778329768488693E+003	3.2120866E-001	-2.7036267E+002
3	0	1.778829768476062E+003	3.2106596E-001	-2.7036618E+002
3	0	1.779329768463431E+003	3.2079771E-001	-2.7038385E+002
3	0	1.779829768450800E+003	3.2053468E-001	-2.7036267E+002
3	0	1.780329768438169E+003	3.2044250E-001	-2.7039447E+002
3	0	1.780829768425538E+003	3.2036740E-001	-2.7039093E+002
3	0	1.781329768412907E+003	3.2025260E-001	-2.7038742E+002
3	0	1.781829768400276E+003	3.2008526E-001	-2.7037677E+002
3	0	1.782329768387644E+003	3.1991071E-001	-2.7037677E+002
3	0	1.782829768375013E+003	3.1966415E-001	-2.7039447E+002
3	0	1.783329768362382E+003	3.1932396E-001	-2.7038031E+002
3	0	1.783829768349751E+003	3.1899324E-001	-2.7038031E+002
3	0	1.784329768337120E+003	3.1887096E-001	-2.7036267E+002
3	0	1.784829768324489E+003	3.1875011E-001	-2.7038385E+002
3	0	1.785329768311858E+003	3.1860757E-001	-2.7038742E+002
3	0	1.785829768299227E+003	3.1839997E-001	-2.7036618E+002
3	0	1.786329768286596E+003	3.1819448E-001	-2.7038742E+002
3	0	1.786829768273965E+003	3.1792858E-001	-2.7038742E+002
3	0	1.787329768261334E+003	3.1759223E-001	-2.7039801E+002
3	0	1.787829768248703E+003	3.1727105E-001	-2.7036618E+002
3	0	1.788329768236072E+003	3.1712869E-001	-2.7039801E+002
3	0	1.788829768223441E+003	3.1701395E-001	-2.7035559E+002
3	0	1.789329768210810E+003	3.1688124E-001	-2.7038031E+002
3	0	1.789829768198179E+003	3.1670085E-001	-2.7035205E+002
3	0	1.790329768185547E+003	3.1648436E-001	-2.7037677E+002
3	0	1.790829768172916E+003	3.1621954E-001	-2.7037677E+002
3	0	1.791329768160285E+003	3.1589177E-001	-2.7036972E+002
3	0	1.791829768147654E+003	3.1557783E-001	-2.7036972E+002
3	0	1.792329768135023E+003	3.1546283E-001	-2.7039093E+002
3	0	1.792829768122392E+003	3.1541675E-001	-2.7038031E+002
3	0	1.793329768109761E+003	3.1540018E-001	-2.7038385E+002
3	0	1.793829768097130E+003	3.1538147E-001	-2.7038385E+002
3	0	1.794329768084499E+003	3.1542161E-001	-2.7039801E+002
3	0	1.794829768071868E+003	3.1544393E-001	-2.7039093E+002
3	0	1.795329768059237E+003	3.1542563E-001	-2.7035913E+002
3	0	1.795829768046606E+003	3.1541848E-001	-2.7036618E+002
3	0	1.796329768033975E+003	3.1559038E-001	-2.7040155E+002
3	0	1.796829768021344E+003	3.1575301E-001	-2.7038385E+002
3	0	1.797329768008713E+003	3.1586131E-001	-2.7037677E+002
3	0	1.797829767996082E+003	3.1586817E-001	-2.7037677E+002
3	0	1.798329767983450E+003	3.1582668E-001	-2.7037677E+002
3	0	1.798829767970819E+003	3.1571686E-001	-2.7035205E+002
3	0	1.799329767958188E+003	3.1550825E-001	-2.7037677E+002
3	0	1.799829767945557E+003	3.1527406E-001	-2.7037677E+002
3	0	1.800329767932926E+003	3.1519455E-001	-2.7037326E+002
3	0	1.800829767920295E+003	3.1511909E-001	-2.7039447E+002
3	0	1.801329767907664E+003	3.1501448E-001	-2.7038742E+002
3	0	1.801829767895033E+003	3.1485033E-001	-2.7038385E+002
3	0	1.802329767882402E+003	3.1465292E-001	-2.7038385E+002
3	0	1.802829767869771E+003	3.1439611E-001	-2.7038031E+002
3	0	1.803329767857140E+003	3.1408280E-001	-2.7036972E+002
3	0	1.803829767844509E+003	3.1378227E-001	-2.7039801E+002
3	0	1.804329767831878E+003	3.1364813E-001	-2.7040506E+002
3	0	1.804354367831256E+003	3.1358340E-001	-2.7038031E+002