EC-Lab ASCII FILE
Nb header lines : 55                          

Open Circuit Voltage

Run on channel : 1 (SN 81504)
User : 
CE vs. WE compliance from -10 V to 10 V
Electrode connection : standard
Potential control : Ewe
Ewe ctrl range : min = -2.50 V, max = 2.50 V
Safety Limits :
	Do not start on E overload
Acquisition started on : 05/07/2026 14:54:34.266
Loaded Setting File :  C:\PEM-WE_measurements\2026\372_IV_IV IrOx, 5 min Pt, 30 min C, etched cathode\new station\Loopeis new\1,46 V different time gaps open cell\Loopeis 1,46V_30s_5_PEIS from 65Hz to 10Hz.mps
Saved on :
	File : L_05_Loopeis 1,46V_30s_5_PEIS from 65Hz to 10Hz_16_OCV_C01.mpr
	Directory : C:\PEM-WE_measurements\2026\372_IV_IV IrOx, 5 min Pt, 30 min C, etched cathode\new station\Loopeis new\1,46 V different time gaps open cell\
	Host : 192.168.0.2
Device : SP-150e (SN .005491)
Address : 192.168.0.91
EC-LAB for windows v11.71 (software)
Internet server v28.00 (firmware)
Command interpretor v14.01 (firmware)
Electrode material : 
Initial state : 
Electrolyte : 
Comments : 
Current amplifier : SP-150eB-20A
Electrode surface area : 0.001 cm²
Characteristic mass : 0.001 g
Equivalent Weight : 0.000 g/eq.
Density : 0.000 g/cm3
Volume (V) : 0.001 cm³
Record Analogic IN 1
Text export
   Mode : Standard
   Time format : Elapsed
Cycle Definition : Charge/Discharge alternance
External device configuration :
   device type : Temperature Probe
   device name : Other
   Analog IN 1 : 
      unit : T/Â°C
      max : 100.000 at 2.000 V
      min : 0.000 at 1.460 V
tR (h:m:s)          0:00:30.0000        
dER/dt (mV/h)       1.0                 
record              <Ewe>               
dER (mV)            10.00               
dtR (s)             0.5000              
E range min (V)     -2.500              
E range max (V)     2.500               

mode	error	time/s	<Ewe/V>	Analog IN 1/V	
3	0	1.025764820309923E+003	1.2754101E+000	-2.7038385E+002
3	0	1.026264820297292E+003	1.2714987E+000	-2.7038385E+002
3	0	1.026764820284661E+003	1.2356688E+000	-2.7039801E+002
3	0	1.027264820272030E+003	1.1609068E+000	-2.7038385E+002
3	0	1.027764820259399E+003	9.0824294E-001	-2.7039447E+002
3	0	1.028264820246768E+003	4.6457765E-001	-2.7036618E+002
3	0	1.028764820234137E+003	3.5709655E-001	-2.7037677E+002
3	0	1.029264820221506E+003	3.4209281E-001	-2.7039447E+002
3	0	1.029764820208875E+003	3.3316246E-001	-2.7038385E+002
3	0	1.030264820196244E+003	3.2624146E-001	-2.7038742E+002
3	0	1.030764820183613E+003	3.2108310E-001	-2.7039447E+002
3	0	1.031264820170982E+003	3.1720626E-001	-2.7038385E+002
3	0	1.031764820158351E+003	3.1420174E-001	-2.7036618E+002
3	0	1.032264820145720E+003	3.1178838E-001	-2.7038742E+002
3	0	1.032764820133089E+003	3.0980554E-001	-2.7035559E+002
3	0	1.033264820120457E+003	3.0812013E-001	-2.7039447E+002
3	0	1.033764820107826E+003	3.0663589E-001	-2.7037677E+002
3	0	1.034264820095195E+003	3.0533069E-001	-2.7038385E+002
3	0	1.034764820082564E+003	3.0419600E-001	-2.7037326E+002
3	0	1.035264820069933E+003	3.0317533E-001	-2.7038742E+002
3	0	1.035764820057302E+003	3.0223775E-001	-2.7035559E+002
3	0	1.036264820044671E+003	3.0136389E-001	-2.7039801E+002
3	0	1.036764820032040E+003	3.0054662E-001	-2.7039801E+002
3	0	1.037264820019409E+003	2.9977357E-001	-2.7036972E+002
3	0	1.037764820006778E+003	2.9900447E-001	-2.7037677E+002
3	0	1.038264819994147E+003	2.9825705E-001	-2.7039093E+002
3	0	1.038764819981516E+003	2.9756227E-001	-2.7036972E+002
3	0	1.039264819968885E+003	2.9691586E-001	-2.7036618E+002
3	0	1.039764819956254E+003	2.9627711E-001	-2.7038031E+002
3	0	1.040264819943623E+003	2.9565781E-001	-2.7037326E+002
3	0	1.040764819930992E+003	2.9505292E-001	-2.7038031E+002
3	0	1.041264819918360E+003	2.9445460E-001	-2.7037326E+002
3	0	1.041764819905729E+003	2.9383737E-001	-2.7038385E+002
3	0	1.042264819893098E+003	2.9321426E-001	-2.7038742E+002
3	0	1.042764819880467E+003	2.9262835E-001	-2.7038031E+002
3	0	1.043264819867836E+003	2.9206896E-001	-2.7039447E+002
3	0	1.043764819855205E+003	2.9151896E-001	-2.7036972E+002
3	0	1.044264819842574E+003	2.9096958E-001	-2.7038742E+002
3	0	1.044764819829943E+003	2.9043737E-001	-2.7038031E+002
3	0	1.045264819817312E+003	2.8990677E-001	-2.7038031E+002
3	0	1.045764819804681E+003	2.8934622E-001	-2.7038385E+002
3	0	1.046264819792050E+003	2.8877729E-001	-2.7036618E+002
3	0	1.046764819779419E+003	2.8824642E-001	-2.7036267E+002
3	0	1.047264819766788E+003	2.8773633E-001	-2.7040506E+002
3	0	1.047764819754157E+003	2.8722990E-001	-2.7039447E+002
3	0	1.048264819741526E+003	2.8672796E-001	-2.7038742E+002
3	0	1.048764819728895E+003	2.8622451E-001	-2.7038031E+002
3	0	1.049264819716263E+003	2.8572127E-001	-2.7037677E+002
3	0	1.049764819703632E+003	2.8520000E-001	-2.7038385E+002
3	0	1.050264819691001E+003	2.8467318E-001	-2.7035913E+002
3	0	1.050764819678370E+003	2.8418487E-001	-2.7038742E+002
3	0	1.051264819665739E+003	2.8371310E-001	-2.7036972E+002
3	0	1.051764819653108E+003	2.8323647E-001	-2.7038031E+002
3	0	1.052264819640477E+003	2.8276196E-001	-2.7041214E+002
3	0	1.052764819627846E+003	2.8229031E-001	-2.7039093E+002
3	0	1.053264819615215E+003	2.8182542E-001	-2.7037677E+002
3	0	1.053764819602584E+003	2.8133368E-001	-2.7037326E+002
3	0	1.054264819589953E+003	2.8084227E-001	-2.7035913E+002
3	0	1.054764819577322E+003	2.8039116E-001	-2.7038742E+002
3	0	1.055264819564691E+003	2.7996060E-001	-2.7037677E+002
3	0	1.055289419564069E+003	2.7972499E-001	-2.7038385E+002