EC-Lab ASCII FILE
Nb header lines : 48                          

Open Circuit Voltage

Run on channel : 1 (SN 81504)
User : 
CE vs. WE compliance from -10 V to 10 V
Electrode connection : standard
Potential control : Ewe
Ewe ctrl range : min = -2.50 V, max = 2.50 V
Safety Limits :
	Do not start on E overload
Acquisition started on : 05/07/2026 14:16:32.051
Loaded Setting File :  C:\PEM-WE_measurements\2026\372_IV_IV IrOx, 5 min Pt, 30 min C, etched cathode\new station\Loopeis new\1,46 V different time gaps open cell\Loopeis 1,46V_30s_2_PEIS from 65kHz to 10kHz.mps
Saved on :
	File : L_02_Loopeis 1,46V_30s_2_PEIS from 65kHz to 10kHz_08_OCV_C01.mpr
	Directory : C:\PEM-WE_measurements\2026\372_IV_IV IrOx, 5 min Pt, 30 min C, etched cathode\new station\Loopeis new\1,46 V different time gaps open cell\
	Host : 192.168.0.2
Device : SP-150e (SN .005491)
Address : 192.168.0.91
EC-LAB for windows v11.71 (software)
Internet server v28.00 (firmware)
Command interpretor v14.01 (firmware)
Electrode material : 
Initial state : 
Electrolyte : 
Comments : 
Current amplifier : SP-150eB-20A
Electrode surface area : 0.001 cm²
Characteristic mass : 0.001 g
Equivalent Weight : 0.000 g/eq.
Density : 0.000 g/cm3
Volume (V) : 0.001 cm³
Record Analogic IN 1
Text export
   Mode : Standard
   Time format : Elapsed
Cycle Definition : Charge/Discharge alternance
tR (h:m:s)          0:00:30.0000        
dER/dt (mV/h)       1.0                 
record              <Ewe>               
dER (mV)            10.00               
dtR (s)             0.5000              
E range min (V)     -2.500              
E range max (V)     2.500               

mode	error	time/s	<Ewe/V>	Analog IN 1/V	
3	0	2.712371997523587E+002	9.9620003E-001	-9.1562819E-005
3	0	2.717371997397277E+002	1.1731731E+000	-9.1562819E-005
3	0	2.722371997270966E+002	1.0235069E+000	2.2950437E-005
3	0	2.727371997144655E+002	5.6440783E-001	-5.3391734E-005
3	0	2.732371997018345E+002	3.3522865E-001	6.1121522E-005
3	0	2.737371996892034E+002	3.0596009E-001	-5.3391734E-005
3	0	2.742371996765723E+002	2.9911414E-001	-3.4306191E-005
3	0	2.747371996639413E+002	2.9336089E-001	-1.1064836E-004
3	0	2.752371996513102E+002	2.8869528E-001	-1.5220648E-005
3	0	2.757371996386792E+002	2.8511029E-001	6.1121522E-005
3	0	2.762371996260481E+002	2.8232846E-001	-1.5220648E-005
3	0	2.767371996134170E+002	2.8014249E-001	-1.6790499E-004
3	0	2.772371996007860E+002	2.7839109E-001	-7.2477276E-005
3	0	2.777371995881549E+002	2.7696657E-001	-7.2477276E-005
3	0	2.782371995755238E+002	2.7574587E-001	-1.1064836E-004
3	0	2.787371995628928E+002	2.7469605E-001	-1.1064836E-004
3	0	2.792371995502617E+002	2.7376613E-001	-1.4881945E-004
3	0	2.797371995376307E+002	2.7292454E-001	6.1121522E-005
3	0	2.802371995249996E+002	2.7214652E-001	-9.1562819E-005
3	0	2.807371995123685E+002	2.7139169E-001	-9.1562819E-005
3	0	2.812371994997375E+002	2.7069929E-001	3.8648941E-006
3	0	2.817371994871064E+002	2.7007049E-001	-1.1064836E-004
3	0	2.822371994744753E+002	2.6947311E-001	8.0207064E-005
3	0	2.827371994618443E+002	2.6889434E-001	6.1121522E-005
3	0	2.832371994492132E+002	2.6833475E-001	2.2950437E-005
3	0	2.837371994365822E+002	2.6779255E-001	-1.5220648E-005
3	0	2.842371994239511E+002	2.6724508E-001	-7.2477276E-005
3	0	2.847371994113200E+002	2.6668936E-001	-1.5220648E-005
3	0	2.852371993986890E+002	2.6614487E-001	-1.2973390E-004
3	0	2.857371993860579E+002	2.6565218E-001	2.2950437E-005
3	0	2.862371993734268E+002	2.6515064E-001	-1.5220648E-005
3	0	2.867371993607958E+002	2.6465410E-001	-1.2973390E-004
3	0	2.872371993481647E+002	2.6417017E-001	3.8648941E-006
3	0	2.877371993355337E+002	2.6368883E-001	-7.2477276E-005
3	0	2.882371993229026E+002	2.6319951E-001	-9.1562819E-005
3	0	2.887371993102715E+002	2.6268813E-001	-3.4306191E-005
3	0	2.892371992976405E+002	2.6218134E-001	-3.4306191E-005
3	0	2.897371992850094E+002	2.6171550E-001	-2.2516162E-004
3	0	2.902371992723783E+002	2.6125121E-001	-7.2477276E-005
3	0	2.907371992597473E+002	2.6078510E-001	-7.2477276E-005
3	0	2.912371992471162E+002	2.6032609E-001	-5.3391734E-005
3	0	2.917371992344852E+002	2.5986657E-001	-1.1064836E-004
3	0	2.922371992218541E+002	2.5940284E-001	-1.2973390E-004
3	0	2.927371992092230E+002	2.5891706E-001	-1.5220648E-005
3	0	2.932371991965920E+002	2.5843641E-001	-1.5220648E-005
3	0	2.937371991839609E+002	2.5799465E-001	-1.5220648E-005
3	0	2.942371991713298E+002	2.5755110E-001	-1.2973390E-004
3	0	2.947371991586988E+002	2.5710225E-001	3.8648941E-006
3	0	2.952371991460677E+002	2.5666481E-001	-1.1064836E-004
3	0	2.957371991334367E+002	2.5623292E-001	-5.3391734E-005
3	0	2.962371991208056E+002	2.5579140E-001	-9.1562819E-005
3	0	2.967371991081745E+002	2.5532687E-001	-3.4306191E-005
3	0	2.972371990955435E+002	2.5487539E-001	-9.1562819E-005
3	0	2.977371990829124E+002	2.5446570E-001	-7.2477276E-005
3	0	2.982371990702813E+002	2.5404650E-001	-5.3391734E-005
3	0	2.987371990576503E+002	2.5363046E-001	-1.2973390E-004
3	0	2.992371990450192E+002	2.5321522E-001	4.2035979E-005
3	0	2.997371990323882E+002	2.5281417E-001	3.8648941E-006
3	0	3.002371990197571E+002	2.5239184E-001	-1.8699054E-004
3	0	3.007371990071260E+002	2.5196627E-001	-1.4881945E-004
3	0	3.007727990062267E+002	2.5173697E-001	-1.4881945E-004