EC-Lab ASCII FILE
Nb header lines : 55                          

Open Circuit Voltage

Run on channel : 1 (SN 81504)
User : 
CE vs. WE compliance from -10 V to 10 V
Electrode connection : standard
Potential control : Ewe
Ewe ctrl range : min = -2.50 V, max = 2.50 V
Safety Limits :
	Do not start on E overload
Acquisition started on : 05/07/2026 21:17:54.184
Loaded Setting File :  C:\PEM-WE_measurements\2026\372_IV_IV IrOx, 5 min Pt, 30 min C, etched cathode\new station\Loopeis new\1,46 V different time gaps open cell\Loopeis 1,46V_120s_3_PEIS from 6500Hz to 1000Hz.mps
Saved on :
	File : L_23_Loopeis 1,46V_120s_3_PEIS from 6500Hz to 1000Hz_10_OCV_C01.mpr
	Directory : C:\PEM-WE_measurements\2026\372_IV_IV IrOx, 5 min Pt, 30 min C, etched cathode\new station\Loopeis new\1,46 V different time gaps open cell\
	Host : 192.168.0.2
Device : SP-150e (SN .005491)
Address : 192.168.0.91
EC-LAB for windows v11.71 (software)
Internet server v28.00 (firmware)
Command interpretor v14.01 (firmware)
Electrode material : 
Initial state : 
Electrolyte : 
Comments : 
Current amplifier : SP-150eB-20A
Electrode surface area : 0.001 cm²
Characteristic mass : 0.001 g
Equivalent Weight : 0.000 g/eq.
Density : 0.000 g/cm3
Volume (V) : 0.001 cm³
Record Analogic IN 1
Text export
   Mode : Standard
   Time format : Elapsed
Cycle Definition : Charge/Discharge alternance
External device configuration :
   device type : Temperature Probe
   device name : Other
   Analog IN 1 : 
      unit : T/Â°C
      max : 100.000 at 2.000 V
      min : 0.000 at 1.460 V
tR (h:m:s)          0:02:0.0000         
dER/dt (mV/h)       1.0                 
record              <Ewe>               
dER (mV)            10.00               
dtR (s)             0.5000              
E range min (V)     -2.500              
E range max (V)     2.500               

mode	error	time/s	<Ewe/V>	Analog IN 1/V	
3	0	7.054503887233295E+002	1.2293776E+000	-2.7037326E+002
3	0	7.059503887106985E+002	1.1874826E+000	-2.7036972E+002
3	0	7.064503886980674E+002	8.8709319E-001	-2.7037677E+002
3	0	7.069503886854363E+002	4.5032087E-001	-2.7036618E+002
3	0	7.074503886728053E+002	3.4770462E-001	-2.7037326E+002
3	0	7.079503886601742E+002	3.3368161E-001	-2.7039093E+002
3	0	7.084503886475432E+002	3.2568172E-001	-2.7036972E+002
3	0	7.089503886349121E+002	3.1931439E-001	-2.7037677E+002
3	0	7.094503886222810E+002	3.1445146E-001	-2.7042627E+002
3	0	7.099503886096500E+002	3.1072560E-001	-2.7040155E+002
3	0	7.104503885970189E+002	3.0780071E-001	-2.7039093E+002
3	0	7.109503885843878E+002	3.0542934E-001	-2.7038385E+002
3	0	7.114503885717568E+002	3.0346864E-001	-2.7037677E+002
3	0	7.119503885591257E+002	3.0180421E-001	-2.7038385E+002
3	0	7.124503885464947E+002	3.0033660E-001	-2.7036618E+002
3	0	7.129503885338636E+002	2.9903665E-001	-2.7038385E+002
3	0	7.134503885212325E+002	2.9792145E-001	-2.7037677E+002
3	0	7.139503885086015E+002	2.9690158E-001	-2.7039093E+002
3	0	7.144503884959704E+002	2.9596999E-001	-2.7037677E+002
3	0	7.149503884833393E+002	2.9510123E-001	-2.7036972E+002
3	0	7.154503884707083E+002	2.9428729E-001	-2.7036618E+002
3	0	7.159503884580772E+002	2.9350758E-001	-2.7037326E+002
3	0	7.164503884454462E+002	2.9273278E-001	-2.7036972E+002
3	0	7.169503884328151E+002	2.9198551E-001	-2.7037677E+002
3	0	7.174503884201840E+002	2.9130372E-001	-2.7038031E+002
3	0	7.179503884075530E+002	2.9065466E-001	-2.7037677E+002
3	0	7.184503883949219E+002	2.9002529E-001	-2.7036972E+002
3	0	7.189503883822908E+002	2.8941068E-001	-2.7035559E+002
3	0	7.194503883696598E+002	2.8880504E-001	-2.7038385E+002
3	0	7.199503883570287E+002	2.8820106E-001	-2.7039447E+002
3	0	7.204503883443977E+002	2.8758234E-001	-2.7037326E+002
3	0	7.209503883317666E+002	2.8696799E-001	-2.7037677E+002
3	0	7.214503883191355E+002	2.8639993E-001	-2.7037326E+002
3	0	7.219503883065045E+002	2.8585830E-001	-2.7035559E+002
3	0	7.224503882938734E+002	2.8531560E-001	-2.7036972E+002
3	0	7.229503882812423E+002	2.8478125E-001	-2.7037677E+002
3	0	7.234503882686113E+002	2.8425446E-001	-2.7039093E+002
3	0	7.239503882559802E+002	2.8370622E-001	-2.7037677E+002
3	0	7.244503882433492E+002	2.8314939E-001	-2.7038385E+002
3	0	7.249503882307181E+002	2.8260243E-001	-2.7038742E+002
3	0	7.254503882180870E+002	2.8210172E-001	-2.7036972E+002
3	0	7.259503882054560E+002	2.8160900E-001	-2.7037677E+002
3	0	7.264503881928249E+002	2.8111491E-001	-2.7036267E+002
3	0	7.269503881801938E+002	2.8062955E-001	-2.7039447E+002
3	0	7.274503881675628E+002	2.8014660E-001	-2.7041214E+002
3	0	7.279503881549317E+002	2.7965578E-001	-2.7035913E+002
3	0	7.284503881423007E+002	2.7914593E-001	-2.7037677E+002
3	0	7.289503881296696E+002	2.7864069E-001	-2.7038385E+002
3	0	7.294503881170385E+002	2.7817848E-001	-2.7038031E+002
3	0	7.299503881044075E+002	2.7772370E-001	-2.7038742E+002
3	0	7.304503880917764E+002	2.7727297E-001	-2.7037677E+002
3	0	7.309503880791453E+002	2.7682108E-001	-2.7038385E+002
3	0	7.314503880665143E+002	2.7637547E-001	-2.7038385E+002
3	0	7.319503880538832E+002	2.7591813E-001	-2.7039447E+002
3	0	7.324503880412522E+002	2.7544278E-001	-2.7036618E+002
3	0	7.329503880286211E+002	2.7497232E-001	-2.7037326E+002
3	0	7.334503880159900E+002	2.7455661E-001	-2.7038385E+002
3	0	7.339503880033590E+002	2.7414230E-001	-2.7038385E+002
3	0	7.344503879907279E+002	2.7372441E-001	-2.7035205E+002
3	0	7.349503879780968E+002	2.7331242E-001	-2.7039447E+002
3	0	7.354503879654658E+002	2.7289498E-001	-2.7037326E+002
3	0	7.359503879528347E+002	2.7248043E-001	-2.7039447E+002
3	0	7.364503879402037E+002	2.7204207E-001	-2.7037677E+002
3	0	7.369503879275726E+002	2.7160427E-001	-2.7036972E+002
3	0	7.374503879149415E+002	2.7120161E-001	-2.7037326E+002
3	0	7.379503879023105E+002	2.7081949E-001	-2.7038031E+002
3	0	7.384503878896794E+002	2.7043793E-001	-2.7036267E+002
3	0	7.389503878770483E+002	2.7004951E-001	-2.7038031E+002
3	0	7.394503878644173E+002	2.6967779E-001	-2.7036618E+002
3	0	7.399503878517862E+002	2.6929045E-001	-2.7038031E+002
3	0	7.404503878391552E+002	2.6888213E-001	-2.7038385E+002
3	0	7.409503878265241E+002	2.6848170E-001	-2.7037677E+002
3	0	7.414503878138930E+002	2.6812649E-001	-2.7037326E+002
3	0	7.419503878012620E+002	2.6777941E-001	-2.7036267E+002
3	0	7.424503877886309E+002	2.6742318E-001	-2.7039093E+002
3	0	7.429503877759998E+002	2.6707140E-001	-2.7038742E+002
3	0	7.434503877633688E+002	2.6672736E-001	-2.7038742E+002
3	0	7.439503877507377E+002	2.6636663E-001	-2.7036972E+002
3	0	7.444503877381067E+002	2.6599520E-001	-2.7038742E+002
3	0	7.449503877254756E+002	2.6562145E-001	-2.7035559E+002
3	0	7.454503877128445E+002	2.6529479E-001	-2.7038742E+002
3	0	7.459503877002135E+002	2.6497516E-001	-2.7037677E+002
3	0	7.464503876875824E+002	2.6465490E-001	-2.7038031E+002
3	0	7.469503876749513E+002	2.6433754E-001	-2.7039447E+002
3	0	7.474503876623203E+002	2.6402047E-001	-2.7036618E+002
3	0	7.479503876496892E+002	2.6369423E-001	-2.7036267E+002
3	0	7.484503876370582E+002	2.6334924E-001	-2.7041214E+002
3	0	7.489503876244271E+002	2.6300696E-001	-2.7039801E+002
3	0	7.494503876117960E+002	2.6270470E-001	-2.7036267E+002
3	0	7.499503875991650E+002	2.6241419E-001	-2.7035913E+002
3	0	7.504503875865339E+002	2.6212406E-001	-2.7037677E+002
3	0	7.509503875739028E+002	2.6183397E-001	-2.7038031E+002
3	0	7.514503875612718E+002	2.6153913E-001	-2.7039801E+002
3	0	7.519503875486407E+002	2.6124170E-001	-2.7038385E+002
3	0	7.524503875360097E+002	2.6092178E-001	-2.7036972E+002
3	0	7.529503875233786E+002	2.6060125E-001	-2.7036972E+002
3	0	7.534503875107475E+002	2.6033193E-001	-2.7037326E+002
3	0	7.539503874981165E+002	2.6006582E-001	-2.7036972E+002
3	0	7.544503874854854E+002	2.5980198E-001	-2.7037326E+002
3	0	7.549503874728543E+002	2.5953695E-001	-2.7038742E+002
3	0	7.554503874602233E+002	2.5926518E-001	-2.7036267E+002
3	0	7.559503874475922E+002	2.5898847E-001	-2.7038385E+002
3	0	7.564503874349612E+002	2.5868875E-001	-2.7037677E+002
3	0	7.569503874223301E+002	2.5839120E-001	-2.7037326E+002
3	0	7.574503874096990E+002	2.5813735E-001	-2.7038031E+002
3	0	7.579503873970680E+002	2.5789812E-001	-2.7036267E+002
3	0	7.584503873844369E+002	2.5765219E-001	-2.7038031E+002
3	0	7.589503873718058E+002	2.5740615E-001	-2.7039801E+002
3	0	7.594503873591748E+002	2.5716260E-001	-2.7038385E+002
3	0	7.599503873465437E+002	2.5690150E-001	-2.7038031E+002
3	0	7.604503873339127E+002	2.5662437E-001	-2.7037677E+002
3	0	7.609503873212816E+002	2.5635225E-001	-2.7040155E+002
3	0	7.614503873086505E+002	2.5612968E-001	-2.7037677E+002
3	0	7.619503872960195E+002	2.5590679E-001	-2.7038385E+002
3	0	7.624503872833884E+002	2.5568283E-001	-2.7038031E+002
3	0	7.629503872707573E+002	2.5546125E-001	-2.7036972E+002
3	0	7.634503872581263E+002	2.5523958E-001	-2.7039447E+002
3	0	7.639503872454952E+002	2.5501165E-001	-2.7037326E+002
3	0	7.644503872328642E+002	2.5475988E-001	-2.7038031E+002
3	0	7.649503872202331E+002	2.5450927E-001	-2.7038742E+002
3	0	7.654503872076020E+002	2.5431037E-001	-2.7037326E+002
3	0	7.659503871949710E+002	2.5411022E-001	-2.7039801E+002
3	0	7.664503871823399E+002	2.5389984E-001	-2.7038742E+002
3	0	7.669503871697088E+002	2.5370160E-001	-2.7036618E+002
3	0	7.674503871570778E+002	2.5349438E-001	-2.7037677E+002
3	0	7.679503871444467E+002	2.5327873E-001	-2.7036618E+002
3	0	7.684503871318157E+002	2.5304672E-001	-2.7036618E+002
3	0	7.689503871191846E+002	2.5281319E-001	-2.7036972E+002
3	0	7.694503871065535E+002	2.5262371E-001	-2.7038031E+002
3	0	7.699503870939225E+002	2.5244325E-001	-2.7038742E+002
3	0	7.704503870812914E+002	2.5226104E-001	-2.7037677E+002
3	0	7.709503870686603E+002	2.5206804E-001	-2.7036618E+002
3	0	7.714503870560293E+002	2.5188515E-001	-2.7039447E+002
3	0	7.719503870433982E+002	2.5168878E-001	-2.7038742E+002
3	0	7.724503870307672E+002	2.5147054E-001	-2.7033789E+002
3	0	7.729503870181361E+002	2.5125280E-001	-2.7039093E+002
3	0	7.734503870055050E+002	2.5107962E-001	-2.7038742E+002
3	0	7.739503869928740E+002	2.5091007E-001	-2.7037677E+002
3	0	7.744503869802429E+002	2.5073916E-001	-2.7038742E+002
3	0	7.749503869676118E+002	2.5056779E-001	-2.7037326E+002
3	0	7.754503869549808E+002	2.5039858E-001	-2.7036972E+002
3	0	7.759503869423497E+002	2.5021136E-001	-2.7038742E+002
3	0	7.764503869297187E+002	2.5000164E-001	-2.7039447E+002
3	0	7.769503869170876E+002	2.4980132E-001	-2.7037677E+002
3	0	7.774503869044565E+002	2.4963671E-001	-2.7038742E+002
3	0	7.779503868918255E+002	2.4948165E-001	-2.7039447E+002
3	0	7.784503868791944E+002	2.4931912E-001	-2.7037326E+002
3	0	7.789503868665633E+002	2.4915837E-001	-2.7038031E+002
3	0	7.794503868539323E+002	2.4899752E-001	-2.7037326E+002
3	0	7.799503868413012E+002	2.4882489E-001	-2.7037677E+002
3	0	7.804503868286702E+002	2.4863254E-001	-2.7037677E+002
3	0	7.809503868160391E+002	2.4843633E-001	-2.7036972E+002
3	0	7.814503868034080E+002	2.4828787E-001	-2.7036618E+002
3	0	7.819503867907770E+002	2.4815091E-001	-2.7037677E+002
3	0	7.824503867781459E+002	2.4800865E-001	-2.7037677E+002
3	0	7.829503867655149E+002	2.4786732E-001	-2.7038385E+002
3	0	7.834503867528838E+002	2.4772578E-001	-2.7038385E+002
3	0	7.839503867402527E+002	2.4756363E-001	-2.7036267E+002
3	0	7.844503867276217E+002	2.4737902E-001	-2.7040155E+002
3	0	7.849503867149906E+002	2.4719828E-001	-2.7039093E+002
3	0	7.854503867023595E+002	2.4705730E-001	-2.7035559E+002
3	0	7.859503866897285E+002	2.4692719E-001	-2.7037326E+002
3	0	7.864503866770974E+002	2.4679618E-001	-2.7037677E+002
3	0	7.869503866644664E+002	2.4665822E-001	-2.7037326E+002
3	0	7.874503866518353E+002	2.4652851E-001	-2.7038031E+002
3	0	7.879503866392042E+002	2.4637760E-001	-2.7038031E+002
3	0	7.884503866265732E+002	2.4620907E-001	-2.7036972E+002
3	0	7.889503866139421E+002	2.4603759E-001	-2.7038742E+002
3	0	7.894503866013110E+002	2.4591425E-001	-2.7036972E+002
3	0	7.899503865886800E+002	2.4579272E-001	-2.7036618E+002
3	0	7.904503865760489E+002	2.4566782E-001	-2.7038385E+002
3	0	7.909503865634179E+002	2.4554230E-001	-2.7040506E+002
3	0	7.914503865507868E+002	2.4542308E-001	-2.7038385E+002
3	0	7.919503865381557E+002	2.4528570E-001	-2.7037326E+002
3	0	7.924503865255247E+002	2.4512784E-001	-2.7039801E+002
3	0	7.929503865128936E+002	2.4496584E-001	-2.7037326E+002
3	0	7.934503865002625E+002	2.4484672E-001	-2.7037677E+002
3	0	7.939503864876315E+002	2.4473348E-001	-2.7040155E+002
3	0	7.944503864750004E+002	2.4461830E-001	-2.7036618E+002
3	0	7.949503864623694E+002	2.4450587E-001	-2.7036267E+002
3	0	7.954503864497383E+002	2.4438919E-001	-2.7036972E+002
3	0	7.959503864371072E+002	2.4424899E-001	-2.7038385E+002
3	0	7.964503864244762E+002	2.4408653E-001	-2.7037677E+002
3	0	7.969503864118451E+002	2.4392948E-001	-2.7038742E+002
3	0	7.974503863992140E+002	2.4380679E-001	-2.7037677E+002
3	0	7.979503863865830E+002	2.4369508E-001	-2.7037677E+002
3	0	7.984503863739519E+002	2.4357875E-001	-2.7036267E+002
3	0	7.989503863613209E+002	2.4345560E-001	-2.7038031E+002
3	0	7.994503863486898E+002	2.4334402E-001	-2.7037677E+002
3	0	7.999503863360587E+002	2.4321693E-001	-2.7037677E+002
3	0	8.004503863234277E+002	2.4307123E-001	-2.7036972E+002
3	0	8.009503863107966E+002	2.4292691E-001	-2.7038031E+002
3	0	8.014503862981655E+002	2.4282430E-001	-2.7038385E+002
3	0	8.019503862855345E+002	2.4272308E-001	-2.7039093E+002
3	0	8.024503862729034E+002	2.4262416E-001	-2.7039447E+002
3	0	8.029503862602724E+002	2.4251530E-001	-2.7037677E+002
3	0	8.034503862476413E+002	2.4240504E-001	-2.7038031E+002
3	0	8.039503862350102E+002	2.4228428E-001	-2.7038031E+002
3	0	8.044503862223792E+002	2.4214832E-001	-2.7036972E+002
3	0	8.049503862097481E+002	2.4201249E-001	-2.7039447E+002
3	0	8.054503861971170E+002	2.4191669E-001	-2.7037677E+002
3	0	8.059503861844860E+002	2.4182941E-001	-2.7037677E+002
3	0	8.064503861718549E+002	2.4173607E-001	-2.7035559E+002
3	0	8.069503861592239E+002	2.4163759E-001	-2.7037677E+002
3	0	8.074503861465928E+002	2.4153617E-001	-2.7036618E+002
3	0	8.079503861339617E+002	2.4143174E-001	-2.7038031E+002
3	0	8.084503861213307E+002	2.4129428E-001	-2.7038031E+002
3	0	8.089503861086996E+002	2.4116278E-001	-2.7034851E+002
3	0	8.094503860960685E+002	2.4107260E-001	-2.7037677E+002
3	0	8.099503860834375E+002	2.4098958E-001	-2.7036267E+002
3	0	8.104503860708064E+002	2.4090031E-001	-2.7037326E+002
3	0	8.109503860581754E+002	2.4080692E-001	-2.7035559E+002
3	0	8.114503860455443E+002	2.4072027E-001	-2.7036972E+002
3	0	8.119503860329132E+002	2.4061893E-001	-2.7037677E+002
3	0	8.124503860202822E+002	2.4049154E-001	-2.7037326E+002
3	0	8.129503860076511E+002	2.4036033E-001	-2.7037677E+002
3	0	8.134503859950200E+002	2.4028158E-001	-2.7034497E+002
3	0	8.139503859823890E+002	2.4020426E-001	-2.7039093E+002
3	0	8.144503859697579E+002	2.4012652E-001	-2.7038742E+002
3	0	8.149503859571269E+002	2.4004015E-001	-2.7036972E+002
3	0	8.154503859444958E+002	2.3995841E-001	-2.7036972E+002
3	0	8.159503859318647E+002	2.3985502E-001	-2.7036267E+002
3	0	8.164503859192337E+002	2.3973361E-001	-2.7038385E+002
3	0	8.169503859066026E+002	2.3961024E-001	-2.7036972E+002
3	0	8.174503858939715E+002	2.3952802E-001	-2.7036618E+002
3	0	8.179503858813405E+002	2.3945363E-001	-2.7036267E+002
3	0	8.184503858687094E+002	2.3937088E-001	-2.7037326E+002
3	0	8.189503858560784E+002	2.3928951E-001	-2.7036972E+002
3	0	8.194503858434473E+002	2.3921153E-001	-2.7040506E+002
3	0	8.199503858308162E+002	2.3911220E-001	-2.7038742E+002
3	0	8.204503858181852E+002	2.3899239E-001	-2.7035913E+002
3	0	8.209503858055541E+002	2.3887846E-001	-2.7036267E+002
3	0	8.214503857929230E+002	2.3880427E-001	-2.7038385E+002
3	0	8.219503857802920E+002	2.3873384E-001	-2.7038385E+002
3	0	8.224503857676609E+002	2.3866378E-001	-2.7037326E+002
3	0	8.229503857550299E+002	2.3858626E-001	-2.7036972E+002
3	0	8.234503857423988E+002	2.3851056E-001	-2.7037677E+002
3	0	8.239503857297677E+002	2.3842143E-001	-2.7040155E+002
3	0	8.244503857171367E+002	2.3830999E-001	-2.7038742E+002
3	0	8.249503857045056E+002	2.3819581E-001	-2.7038742E+002
3	0	8.249507857044955E+002	2.3823163E-001	-2.7039093E+002