EC-Lab ASCII FILE
Nb header lines : 55                          

Open Circuit Voltage

Run on channel : 1 (SN 81504)
User : 
CE vs. WE compliance from -10 V to 10 V
Electrode connection : standard
Potential control : Ewe
Ewe ctrl range : min = -2.50 V, max = 2.50 V
Safety Limits :
	Do not start on E overload
Acquisition started on : 05/10/2026 00:12:25.049
Loaded Setting File :  C:\PEM-WE_measurements\2026\372_IV_IV IrOx, 5 min Pt, 30 min C, etched cathode\new station\Loopeis new\1,46 V different time gaps closed cell\Loopeis 1,46V_30s_5_PEIS from 65Hz to 10Hz.mps
Saved on :
	File : L_05_Loopeis 1,46V_30s_5_PEIS from 65Hz to 10Hz_06_OCV_C01.mpr
	Directory : C:\PEM-WE_measurements\2026\372_IV_IV IrOx, 5 min Pt, 30 min C, etched cathode\new station\Loopeis new\1,46 V different time gaps closed cell\
	Host : 192.168.0.2
Device : SP-150e (SN .005491)
Address : 192.168.0.91
EC-LAB for windows v11.71 (software)
Internet server v28.00 (firmware)
Command interpretor v14.01 (firmware)
Electrode material : 
Initial state : 
Electrolyte : 
Comments : 
Current amplifier : SP-150eB-20A
Electrode surface area : 0.001 cm²
Characteristic mass : 0.001 g
Equivalent Weight : 0.000 g/eq.
Density : 0.000 g/cm3
Volume (V) : 0.001 cm³
Record Analogic IN 1
Text export
   Mode : Standard
   Time format : Elapsed
Cycle Definition : Charge/Discharge alternance
External device configuration :
   device type : Temperature Probe
   device name : Other
   Analog IN 1 : 
      unit : T/Â°C
      max : 100.000 at 2.000 V
      min : 0.000 at 1.460 V
tR (h:m:s)          0:00:30.0000        
dER/dt (mV/h)       1.0                 
record              <Ewe>               
dER (mV)            10.00               
dtR (s)             0.5000              
E range min (V)     -2.500              
E range max (V)     2.500               

mode	error	time/s	<Ewe/V>	Analog IN 1/V	
3	0	1.957605983476969E+002	1.4202114E+000	-2.7038031E+002
3	0	1.962605983350659E+002	1.4123333E+000	-2.7039093E+002
3	0	1.967605983224348E+002	1.4069664E+000	-2.7035913E+002
3	0	1.972605983098038E+002	1.4030594E+000	-2.7039801E+002
3	0	1.977605982971727E+002	1.3999381E+000	-2.7038385E+002
3	0	1.982605982845416E+002	1.3972753E+000	-2.7037326E+002
3	0	1.987605982719106E+002	1.3949348E+000	-2.7035559E+002
3	0	1.992605982592795E+002	1.3929542E+000	-2.7038385E+002
3	0	1.997605982466484E+002	1.3912156E+000	-2.7040155E+002
3	0	2.002605982340174E+002	1.3896551E+000	-2.7039801E+002
3	0	2.007605982213863E+002	1.3882416E+000	-2.7039093E+002
3	0	2.012605982087553E+002	1.3869448E+000	-2.7037677E+002
3	0	2.017605981961242E+002	1.3857074E+000	-2.7038385E+002
3	0	2.022605981834931E+002	1.3844990E+000	-2.7038031E+002
3	0	2.027605981708621E+002	1.3833227E+000	-2.7038031E+002
3	0	2.032605981582310E+002	1.3822924E+000	-2.7037326E+002
3	0	2.037605981455999E+002	1.3813455E+000	-2.7038031E+002
3	0	2.042605981329689E+002	1.3804423E+000	-2.7036618E+002
3	0	2.047605981203378E+002	1.3795903E+000	-2.7039093E+002
3	0	2.052605981077068E+002	1.3787729E+000	-2.7036972E+002
3	0	2.057605980950757E+002	1.3779656E+000	-2.7036972E+002
3	0	2.062605980824446E+002	1.3771122E+000	-2.7038031E+002
3	0	2.067605980698136E+002	1.3762636E+000	-2.7037677E+002
3	0	2.072605980571825E+002	1.3755214E+000	-2.7039801E+002
3	0	2.077605980445514E+002	1.3748308E+000	-2.7034143E+002
3	0	2.082605980319204E+002	1.3741440E+000	-2.7036972E+002
3	0	2.087605980192893E+002	1.3734802E+000	-2.7039801E+002
3	0	2.092605980066583E+002	1.3728268E+000	-2.7038742E+002
3	0	2.097605979940272E+002	1.3721673E+000	-2.7037326E+002
3	0	2.102605979813961E+002	1.3714395E+000	-2.7037677E+002
3	0	2.107605979687651E+002	1.3707035E+000	-2.7038742E+002
3	0	2.112605979561340E+002	1.3700684E+000	-2.7037326E+002
3	0	2.117605979435029E+002	1.3694642E+000	-2.7039801E+002
3	0	2.122605979308719E+002	1.3688558E+000	-2.7036267E+002
3	0	2.127605979182408E+002	1.3682737E+000	-2.7036972E+002
3	0	2.132605979056098E+002	1.3676902E+000	-2.7036972E+002
3	0	2.137605978929787E+002	1.3670903E+000	-2.7038742E+002
3	0	2.142605978803476E+002	1.3664325E+000	-2.7036972E+002
3	0	2.147605978677166E+002	1.3657579E+000	-2.7039447E+002
3	0	2.152605978550855E+002	1.3651830E+000	-2.7036267E+002
3	0	2.157605978424544E+002	1.3646297E+000	-2.7036972E+002
3	0	2.162605978298234E+002	1.3640757E+000	-2.7038385E+002
3	0	2.167605978171923E+002	1.3635309E+000	-2.7035913E+002
3	0	2.172605978045613E+002	1.3629912E+000	-2.7036267E+002
3	0	2.177605977919302E+002	1.3624276E+000	-2.7038031E+002
3	0	2.182605977792991E+002	1.3618004E+000	-2.7040506E+002
3	0	2.187605977666681E+002	1.3611494E+000	-2.7036972E+002
3	0	2.192605977540370E+002	1.3605893E+000	-2.7037326E+002
3	0	2.197605977414059E+002	1.3600569E+000	-2.7037326E+002
3	0	2.202605977287749E+002	1.3595138E+000	-2.7039093E+002
3	0	2.207605977161438E+002	1.3589793E+000	-2.7036618E+002
3	0	2.212605977035128E+002	1.3584493E+000	-2.7039093E+002
3	0	2.217605976908817E+002	1.3578908E+000	-2.7036618E+002
3	0	2.222605976782506E+002	1.3572696E+000	-2.7036972E+002
3	0	2.227605976656196E+002	1.3566271E+000	-2.7034851E+002
3	0	2.232605976529885E+002	1.3560686E+000	-2.7037326E+002
3	0	2.237605976403574E+002	1.3555351E+000	-2.7036618E+002
3	0	2.242605976277264E+002	1.3549979E+000	-2.7037326E+002
3	0	2.247605976150953E+002	1.3544558E+000	-2.7036267E+002
3	0	2.252605976024643E+002	1.3539162E+000	-2.7038742E+002
3	0	2.252609976024542E+002	1.3536410E+000	-2.7038031E+002