EC-Lab ASCII FILE
Nb header lines : 55                          

Open Circuit Voltage

Run on channel : 1 (SN 81504)
User : 
CE vs. WE compliance from -10 V to 10 V
Electrode connection : standard
Potential control : Ewe
Ewe ctrl range : min = -2.50 V, max = 2.50 V
Safety Limits :
	Do not start on E overload
Acquisition started on : 05/08/2026 01:25:27.042
Loaded Setting File :  C:\PEM-WE_measurements\2026\372_IV_IV IrOx, 5 min Pt, 30 min C, etched cathode\new station\Loopeis new\1,46 V different time gaps open cell\Loopeis 1,46V_180s_5_PEIS from 65Hz to 10Hz.mps
Saved on :
	File : L_30_Loopeis 1,46V_180s_5_PEIS from 65Hz to 10Hz_20_OCV_C01.mpr
	Directory : C:\PEM-WE_measurements\2026\372_IV_IV IrOx, 5 min Pt, 30 min C, etched cathode\new station\Loopeis new\1,46 V different time gaps open cell\
	Host : 192.168.0.2
Device : SP-150e (SN .005491)
Address : 192.168.0.91
EC-LAB for windows v11.71 (software)
Internet server v28.00 (firmware)
Command interpretor v14.01 (firmware)
Electrode material : 
Initial state : 
Electrolyte : 
Comments : 
Current amplifier : SP-150eB-20A
Electrode surface area : 0.001 cm²
Characteristic mass : 0.001 g
Equivalent Weight : 0.000 g/eq.
Density : 0.000 g/cm3
Volume (V) : 0.001 cm³
Record Analogic IN 1
Text export
   Mode : Standard
   Time format : Elapsed
Cycle Definition : Charge/Discharge alternance
External device configuration :
   device type : Temperature Probe
   device name : Other
   Analog IN 1 : 
      unit : T/Â°C
      max : 100.000 at 2.000 V
      min : 0.000 at 1.460 V
tR (h:m:s)          0:03:0.0000         
dER/dt (mV/h)       1.0                 
record              <Ewe>               
dER (mV)            10.00               
dtR (s)             0.5000              
E range min (V)     -2.500              
E range max (V)     2.500               

mode	error	time/s	<Ewe/V>	Analog IN 1/V	
3	0	2.087946564895537E+003	1.2237622E+000	-2.7038385E+002
3	0	2.088446564882906E+003	1.1842973E+000	-2.7038031E+002
3	0	2.088946564870275E+003	8.6200160E-001	-2.7038031E+002
3	0	2.089446564857644E+003	4.3965572E-001	-2.7039801E+002
3	0	2.089946564845013E+003	3.4704533E-001	-2.7036972E+002
3	0	2.090446564832382E+003	3.3375096E-001	-2.7039801E+002
3	0	2.090946564819751E+003	3.2579711E-001	-2.7038385E+002
3	0	2.091446564807120E+003	3.1950617E-001	-2.7038742E+002
3	0	2.091946564794489E+003	3.1471723E-001	-2.7035913E+002
3	0	2.092446564781858E+003	3.1104088E-001	-2.7036267E+002
3	0	2.092946564769227E+003	3.0815119E-001	-2.7036618E+002
3	0	2.093446564756596E+003	3.0580026E-001	-2.7038031E+002
3	0	2.093946564743965E+003	3.0383545E-001	-2.7039447E+002
3	0	2.094446564731334E+003	3.0216470E-001	-2.7038385E+002
3	0	2.094946564718703E+003	3.0074549E-001	-2.7037677E+002
3	0	2.095446564706072E+003	2.9950398E-001	-2.7038742E+002
3	0	2.095946564693440E+003	2.9839909E-001	-2.7039447E+002
3	0	2.096446564680809E+003	2.9738784E-001	-2.7039093E+002
3	0	2.096946564668178E+003	2.9645917E-001	-2.7039093E+002
3	0	2.097446564655547E+003	2.9558003E-001	-2.7038031E+002
3	0	2.097946564642916E+003	2.9473284E-001	-2.7039093E+002
3	0	2.098446564630285E+003	2.9392031E-001	-2.7036618E+002
3	0	2.098946564617654E+003	2.9319516E-001	-2.7037677E+002
3	0	2.099446564605023E+003	2.9249540E-001	-2.7037326E+002
3	0	2.099946564592392E+003	2.9182681E-001	-2.7039093E+002
3	0	2.100446564579761E+003	2.9116634E-001	-2.7036618E+002
3	0	2.100946564567130E+003	2.9053563E-001	-2.7039093E+002
3	0	2.101446564554499E+003	2.8989601E-001	-2.7036267E+002
3	0	2.101946564541868E+003	2.8926075E-001	-2.7038031E+002
3	0	2.102446564529237E+003	2.8862593E-001	-2.7036972E+002
3	0	2.102946564516606E+003	2.8804845E-001	-2.7038742E+002
3	0	2.103446564503975E+003	2.8748664E-001	-2.7038742E+002
3	0	2.103946564491343E+003	2.8693485E-001	-2.7040506E+002
3	0	2.104446564478712E+003	2.8638288E-001	-2.7036267E+002
3	0	2.104946564466081E+003	2.8583840E-001	-2.7039801E+002
3	0	2.105446564453450E+003	2.8528833E-001	-2.7040506E+002
3	0	2.105946564440819E+003	2.8472194E-001	-2.7036618E+002
3	0	2.106446564428188E+003	2.8415895E-001	-2.7037677E+002
3	0	2.106946564415557E+003	2.8363478E-001	-2.7039447E+002
3	0	2.107446564402926E+003	2.8312883E-001	-2.7038742E+002
3	0	2.107946564390295E+003	2.8262773E-001	-2.7036972E+002
3	0	2.108446564377664E+003	2.8213105E-001	-2.7036972E+002
3	0	2.108946564365033E+003	2.8163764E-001	-2.7038385E+002
3	0	2.109446564352402E+003	2.8113309E-001	-2.7036618E+002
3	0	2.109946564339771E+003	2.8061995E-001	-2.7038031E+002
3	0	2.110446564327140E+003	2.8010216E-001	-2.7038031E+002
3	0	2.110946564314509E+003	2.7963567E-001	-2.7036972E+002
3	0	2.111446564301878E+003	2.7917543E-001	-2.7038031E+002
3	0	2.111946564289246E+003	2.7871963E-001	-2.7036972E+002
3	0	2.112446564276615E+003	2.7826020E-001	-2.7039447E+002
3	0	2.112946564263984E+003	2.7780619E-001	-2.7037677E+002
3	0	2.113446564251353E+003	2.7734694E-001	-2.7036972E+002
3	0	2.113946564238722E+003	2.7686661E-001	-2.7037326E+002
3	0	2.114446564226091E+003	2.7638909E-001	-2.7038742E+002
3	0	2.114946564213460E+003	2.7595294E-001	-2.7039447E+002
3	0	2.115446564200829E+003	2.7553293E-001	-2.7036267E+002
3	0	2.115946564188198E+003	2.7511036E-001	-2.7036972E+002
3	0	2.116446564175567E+003	2.7469710E-001	-2.7038031E+002
3	0	2.116946564162936E+003	2.7428648E-001	-2.7036972E+002
3	0	2.117446564150305E+003	2.7386335E-001	-2.7039093E+002
3	0	2.117946564137674E+003	2.7341557E-001	-2.7038742E+002
3	0	2.118446564125043E+003	2.7298036E-001	-2.7036972E+002
3	0	2.118946564112412E+003	2.7257738E-001	-2.7038031E+002
3	0	2.119446564099781E+003	2.7219975E-001	-2.7037326E+002
3	0	2.119946564087149E+003	2.7181211E-001	-2.7036972E+002
3	0	2.120446564074518E+003	2.7142301E-001	-2.7036972E+002
3	0	2.120946564061887E+003	2.7103779E-001	-2.7036618E+002
3	0	2.121446564049256E+003	2.7064520E-001	-2.7038742E+002
3	0	2.121946564036625E+003	2.7023336E-001	-2.7037677E+002
3	0	2.122446564023994E+003	2.6982090E-001	-2.7038742E+002
3	0	2.122946564011363E+003	2.6946205E-001	-2.7038385E+002
3	0	2.123446563998732E+003	2.6911488E-001	-2.7039447E+002
3	0	2.123946563986101E+003	2.6875299E-001	-2.7038031E+002
3	0	2.124446563973470E+003	2.6839706E-001	-2.7035205E+002
3	0	2.124946563960839E+003	2.6804459E-001	-2.7037326E+002
3	0	2.125446563948208E+003	2.6767543E-001	-2.7036618E+002
3	0	2.125946563935577E+003	2.6729614E-001	-2.7037326E+002
3	0	2.126446563922946E+003	2.6691616E-001	-2.7035559E+002
3	0	2.126946563910315E+003	2.6657850E-001	-2.7037326E+002
3	0	2.127446563897684E+003	2.6624939E-001	-2.7038031E+002
3	0	2.127946563885052E+003	2.6591945E-001	-2.7036618E+002
3	0	2.128446563872421E+003	2.6559335E-001	-2.7037326E+002
3	0	2.128946563859790E+003	2.6526591E-001	-2.7036972E+002
3	0	2.129446563847159E+003	2.6492357E-001	-2.7036972E+002
3	0	2.129946563834528E+003	2.6457542E-001	-2.7038742E+002
3	0	2.130446563821897E+003	2.6422668E-001	-2.7035205E+002
3	0	2.130946563809266E+003	2.6392692E-001	-2.7039447E+002
3	0	2.131446563796635E+003	2.6363483E-001	-2.7038385E+002
3	0	2.131946563784004E+003	2.6333728E-001	-2.7037677E+002
3	0	2.132446563771373E+003	2.6303470E-001	-2.7036267E+002
3	0	2.132946563758742E+003	2.6274055E-001	-2.7038031E+002
3	0	2.133446563746111E+003	2.6243395E-001	-2.7038031E+002
3	0	2.133946563733480E+003	2.6211327E-001	-2.7037677E+002
3	0	2.134446563720849E+003	2.6179072E-001	-2.7038742E+002
3	0	2.134946563708218E+003	2.6151136E-001	-2.7035559E+002
3	0	2.135446563695587E+003	2.6123965E-001	-2.7038031E+002
3	0	2.135946563682955E+003	2.6096037E-001	-2.7036618E+002
3	0	2.136446563670324E+003	2.6069450E-001	-2.7038031E+002
3	0	2.136946563657693E+003	2.6042321E-001	-2.7040506E+002
3	0	2.137446563645062E+003	2.6013824E-001	-2.7040155E+002
3	0	2.137946563632431E+003	2.5983620E-001	-2.7040506E+002
3	0	2.138446563619800E+003	2.5954452E-001	-2.7034851E+002
3	0	2.138946563607169E+003	2.5929245E-001	-2.7037326E+002
3	0	2.139446563594538E+003	2.5905296E-001	-2.7038742E+002
3	0	2.139946563581907E+003	2.5880009E-001	-2.7037326E+002
3	0	2.140446563569276E+003	2.5855404E-001	-2.7038742E+002
3	0	2.140946563556645E+003	2.5830495E-001	-2.7035913E+002
3	0	2.141446563544014E+003	2.5804392E-001	-2.7035913E+002
3	0	2.141946563531383E+003	2.5776249E-001	-2.7037326E+002
3	0	2.142446563518752E+003	2.5748730E-001	-2.7039447E+002
3	0	2.142946563506121E+003	2.5725266E-001	-2.7038742E+002
3	0	2.143446563493490E+003	2.5702718E-001	-2.7038385E+002
3	0	2.143946563480858E+003	2.5680199E-001	-2.7039447E+002
3	0	2.144446563468227E+003	2.5657424E-001	-2.7039447E+002
3	0	2.144946563455596E+003	2.5634453E-001	-2.7037326E+002
3	0	2.145446563442965E+003	2.5610188E-001	-2.7038385E+002
3	0	2.145946563430334E+003	2.5583309E-001	-2.7036267E+002
3	0	2.146446563417703E+003	2.5557217E-001	-2.7038385E+002
3	0	2.146946563405072E+003	2.5535041E-001	-2.7037326E+002
3	0	2.147446563392441E+003	2.5513905E-001	-2.7036618E+002
3	0	2.147946563379810E+003	2.5492486E-001	-2.7036972E+002
3	0	2.148446563367179E+003	2.5471479E-001	-2.7038385E+002
3	0	2.148946563354548E+003	2.5451073E-001	-2.7037326E+002
3	0	2.149446563341917E+003	2.5428653E-001	-2.7035205E+002
3	0	2.149946563329286E+003	2.5404662E-001	-2.7038742E+002
3	0	2.150446563316655E+003	2.5380641E-001	-2.7037677E+002
3	0	2.150946563304024E+003	2.5361454E-001	-2.7036267E+002
3	0	2.151446563291393E+003	2.5342309E-001	-2.7037326E+002
3	0	2.151946563278761E+003	2.5323126E-001	-2.7035205E+002
3	0	2.152446563266130E+003	2.5304189E-001	-2.7039801E+002
3	0	2.152946563253499E+003	2.5285631E-001	-2.7038031E+002
3	0	2.153446563240868E+003	2.5264421E-001	-2.7036267E+002
3	0	2.153946563228237E+003	2.5242230E-001	-2.7036972E+002
3	0	2.154446563215606E+003	2.5220126E-001	-2.7039447E+002
3	0	2.154946563202975E+003	2.5202990E-001	-2.7036972E+002
3	0	2.155446563190344E+003	2.5185865E-001	-2.7036972E+002
3	0	2.155946563177713E+003	2.5168559E-001	-2.7038031E+002
3	0	2.156446563165082E+003	2.5150922E-001	-2.7037326E+002
3	0	2.156946563152451E+003	2.5133207E-001	-2.7039447E+002
3	0	2.157446563139820E+003	2.5114459E-001	-2.7035205E+002
3	0	2.157946563127189E+003	2.5093165E-001	-2.7037326E+002
3	0	2.158446563114558E+003	2.5072050E-001	-2.7036618E+002
3	0	2.158946563101927E+003	2.5056469E-001	-2.7038031E+002
3	0	2.159446563089296E+003	2.5040773E-001	-2.7039447E+002
3	0	2.159946563076664E+003	2.5024658E-001	-2.7036972E+002
3	0	2.160446563064033E+003	2.5008321E-001	-2.7035913E+002
3	0	2.160946563051402E+003	2.4991326E-001	-2.7035205E+002
3	0	2.161446563038771E+003	2.4974029E-001	-2.7039801E+002
3	0	2.161946563026140E+003	2.4954849E-001	-2.7039801E+002
3	0	2.162446563013509E+003	2.4935667E-001	-2.7037326E+002
3	0	2.162946563000878E+003	2.4920653E-001	-2.7037677E+002
3	0	2.163446562988247E+003	2.4906343E-001	-2.7038742E+002
3	0	2.163946562975616E+003	2.4891745E-001	-2.7038031E+002
3	0	2.164446562962985E+003	2.4876907E-001	-2.7038031E+002
3	0	2.164946562950354E+003	2.4861309E-001	-2.7036267E+002
3	0	2.165446562937723E+003	2.4844909E-001	-2.7041568E+002
3	0	2.165946562925092E+003	2.4825685E-001	-2.7038031E+002
3	0	2.166446562912461E+003	2.4807635E-001	-2.7040506E+002
3	0	2.166946562899830E+003	2.4793431E-001	-2.7038031E+002
3	0	2.167446562887199E+003	2.4779816E-001	-2.7038031E+002
3	0	2.167946562874567E+003	2.4765794E-001	-2.7036618E+002
3	0	2.168446562861936E+003	2.4751127E-001	-2.7039447E+002
3	0	2.168946562849305E+003	2.4737133E-001	-2.7036972E+002
3	0	2.169446562836674E+003	2.4721676E-001	-2.7037326E+002
3	0	2.169946562824043E+003	2.4703841E-001	-2.7036267E+002
3	0	2.170446562811412E+003	2.4686608E-001	-2.7036972E+002
3	0	2.170946562798781E+003	2.4673796E-001	-2.7037326E+002
3	0	2.171446562786150E+003	2.4661522E-001	-2.7039093E+002
3	0	2.171946562773519E+003	2.4648526E-001	-2.7038742E+002
3	0	2.172446562760888E+003	2.4635494E-001	-2.7039447E+002
3	0	2.172946562748257E+003	2.4622716E-001	-2.7037677E+002
3	0	2.173446562735626E+003	2.4608490E-001	-2.7037326E+002
3	0	2.173946562722995E+003	2.4592321E-001	-2.7040506E+002
3	0	2.174446562710364E+003	2.4576400E-001	-2.7041568E+002
3	0	2.174946562697733E+003	2.4564473E-001	-2.7037677E+002
3	0	2.175446562685102E+003	2.4553899E-001	-2.7038742E+002
3	0	2.175946562672470E+003	2.4542372E-001	-2.7038742E+002
3	0	2.176446562659839E+003	2.4530365E-001	-2.7036972E+002
3	0	2.176946562647208E+003	2.4518318E-001	-2.7037677E+002
3	0	2.177446562634577E+003	2.4505089E-001	-2.7039801E+002
3	0	2.177946562621946E+003	2.4488688E-001	-2.7038385E+002
3	0	2.178446562609315E+003	2.4472763E-001	-2.7038385E+002
3	0	2.178946562596684E+003	2.4461451E-001	-2.7037326E+002
3	0	2.179446562584053E+003	2.4451098E-001	-2.7039801E+002
3	0	2.179946562571422E+003	2.4440211E-001	-2.7035913E+002
3	0	2.180446562558791E+003	2.4428737E-001	-2.7037326E+002
3	0	2.180946562546160E+003	2.4416780E-001	-2.7038742E+002
3	0	2.181446562533529E+003	2.4404649E-001	-2.7036267E+002
3	0	2.181946562520898E+003	2.4389283E-001	-2.7037326E+002
3	0	2.182446562508267E+003	2.4374664E-001	-2.7040155E+002
3	0	2.182946562495636E+003	2.4364081E-001	-2.7037326E+002
3	0	2.183446562483005E+003	2.4354495E-001	-2.7036618E+002
3	0	2.183946562470373E+003	2.4344198E-001	-2.7036267E+002
3	0	2.184446562457742E+003	2.4333571E-001	-2.7038031E+002
3	0	2.184946562445111E+003	2.4322876E-001	-2.7038385E+002
3	0	2.185446562432480E+003	2.4311139E-001	-2.7038742E+002
3	0	2.185946562419849E+003	2.4296810E-001	-2.7038742E+002
3	0	2.186446562407218E+003	2.4282227E-001	-2.7039093E+002
3	0	2.186946562394587E+003	2.4272260E-001	-2.7039447E+002
3	0	2.187446562381956E+003	2.4262942E-001	-2.7037326E+002
3	0	2.187946562369325E+003	2.4252857E-001	-2.7039447E+002
3	0	2.188446562356694E+003	2.4242249E-001	-2.7036972E+002
3	0	2.188946562344063E+003	2.4232027E-001	-2.7039447E+002
3	0	2.189446562331432E+003	2.4219930E-001	-2.7038385E+002
3	0	2.189946562318801E+003	2.4205853E-001	-2.7035913E+002
3	0	2.190446562306170E+003	2.4192196E-001	-2.7037326E+002
3	0	2.190946562293539E+003	2.4182899E-001	-2.7036972E+002
3	0	2.191446562280908E+003	2.4174540E-001	-2.7038742E+002
3	0	2.191946562268276E+003	2.4165010E-001	-2.7036972E+002
3	0	2.192446562255645E+003	2.4155794E-001	-2.7039801E+002
3	0	2.192946562243014E+003	2.4146549E-001	-2.7038031E+002
3	0	2.193446562230383E+003	2.4135835E-001	-2.7038031E+002
3	0	2.193946562217752E+003	2.4122716E-001	-2.7039447E+002
3	0	2.194446562205121E+003	2.4109127E-001	-2.7038031E+002
3	0	2.194946562192490E+003	2.4099813E-001	-2.7038031E+002
3	0	2.195446562179859E+003	2.4091753E-001	-2.7038385E+002
3	0	2.195946562167228E+003	2.4083312E-001	-2.7038742E+002
3	0	2.196446562154597E+003	2.4073851E-001	-2.7036267E+002
3	0	2.196946562141966E+003	2.4065261E-001	-2.7036267E+002
3	0	2.197446562129335E+003	2.4054527E-001	-2.7036267E+002
3	0	2.197946562116704E+003	2.4041605E-001	-2.7037677E+002
3	0	2.198446562104073E+003	2.4029295E-001	-2.7036972E+002
3	0	2.198946562091442E+003	2.4021173E-001	-2.7038031E+002
3	0	2.199446562078811E+003	2.4013402E-001	-2.7037326E+002
3	0	2.199946562066179E+003	2.4005497E-001	-2.7039447E+002
3	0	2.200446562053548E+003	2.3997025E-001	-2.7038031E+002
3	0	2.200946562040917E+003	2.3988888E-001	-2.7039447E+002
3	0	2.201446562028286E+003	2.3979264E-001	-2.7035205E+002
3	0	2.201946562015655E+003	2.3966551E-001	-2.7036618E+002
3	0	2.202446562003024E+003	2.3954894E-001	-2.7039801E+002
3	0	2.202946561990393E+003	2.3947112E-001	-2.7038385E+002
3	0	2.203446561977762E+003	2.3939762E-001	-2.7036267E+002
3	0	2.203946561965131E+003	2.3932438E-001	-2.7036618E+002
3	0	2.204446561952500E+003	2.3924285E-001	-2.7038385E+002
3	0	2.204946561939869E+003	2.3916449E-001	-2.7037677E+002
3	0	2.205446561927238E+003	2.3907433E-001	-2.7037677E+002
3	0	2.205946561914607E+003	2.3896019E-001	-2.7037326E+002
3	0	2.206446561901976E+003	2.3883682E-001	-2.7034497E+002
3	0	2.206946561889345E+003	2.3875201E-001	-2.7040860E+002
3	0	2.207446561876714E+003	2.3867635E-001	-2.7035913E+002
3	0	2.207946561864082E+003	2.3860326E-001	-2.7038742E+002
3	0	2.208446561851451E+003	2.3851664E-001	-2.7037326E+002
3	0	2.208946561838820E+003	2.3843406E-001	-2.7036972E+002
3	0	2.209446561826189E+003	2.3834391E-001	-2.7037677E+002
3	0	2.209946561813558E+003	2.3823003E-001	-2.7036267E+002
3	0	2.210446561800927E+003	2.3811451E-001	-2.7038385E+002
3	0	2.210946561788296E+003	2.3804329E-001	-2.7037326E+002
3	0	2.211446561775665E+003	2.3797961E-001	-2.7038742E+002
3	0	2.211946561763034E+003	2.3791115E-001	-2.7038385E+002
3	0	2.212446561750403E+003	2.3783956E-001	-2.7036972E+002
3	0	2.212946561737772E+003	2.3776625E-001	-2.7037677E+002
3	0	2.213446561725141E+003	2.3767501E-001	-2.7036618E+002
3	0	2.213946561712510E+003	2.3756254E-001	-2.7036618E+002
3	0	2.214446561699879E+003	2.3744901E-001	-2.7038031E+002
3	0	2.214946561687248E+003	2.3737477E-001	-2.7036972E+002
3	0	2.215446561674617E+003	2.3731256E-001	-2.7038385E+002
3	0	2.215946561661985E+003	2.3724386E-001	-2.7037677E+002
3	0	2.216446561649354E+003	2.3717563E-001	-2.7037677E+002
3	0	2.216946561636723E+003	2.3710187E-001	-2.7038031E+002
3	0	2.217446561624092E+003	2.3701440E-001	-2.7036267E+002
3	0	2.217946561611461E+003	2.3690453E-001	-2.7038031E+002
3	0	2.218446561598830E+003	2.3679589E-001	-2.7035559E+002
3	0	2.218946561586199E+003	2.3672584E-001	-2.7036618E+002
3	0	2.219446561573568E+003	2.3666017E-001	-2.7036618E+002
3	0	2.219946561560937E+003	2.3659645E-001	-2.7039093E+002
3	0	2.220446561548306E+003	2.3652923E-001	-2.7038385E+002
3	0	2.220946561535675E+003	2.3646556E-001	-2.7038742E+002
3	0	2.221446561523044E+003	2.3637278E-001	-2.7036618E+002
3	0	2.221946561510413E+003	2.3626925E-001	-2.7036972E+002
3	0	2.222446561497782E+003	2.3616061E-001	-2.7037677E+002
3	0	2.222946561485151E+003	2.3610136E-001	-2.7036972E+002
3	0	2.223446561472520E+003	2.3604235E-001	-2.7038742E+002
3	0	2.223946561459888E+003	2.3598273E-001	-2.7039093E+002
3	0	2.224446561447257E+003	2.3591888E-001	-2.7039093E+002
3	0	2.224946561434626E+003	2.3585753E-001	-2.7039093E+002
3	0	2.225446561421995E+003	2.3577647E-001	-2.7036972E+002
3	0	2.225946561409364E+003	2.3567325E-001	-2.7039093E+002
3	0	2.226446561396733E+003	2.3557271E-001	-2.7037326E+002
3	0	2.226946561384102E+003	2.3550838E-001	-2.7039447E+002
3	0	2.227446561371471E+003	2.3544803E-001	-2.7034851E+002
3	0	2.227946561358840E+003	2.3539037E-001	-2.7037326E+002
3	0	2.228446561346209E+003	2.3532811E-001	-2.7036618E+002
3	0	2.228946561333578E+003	2.3526354E-001	-2.7039801E+002
3	0	2.229446561320947E+003	2.3518160E-001	-2.7037677E+002
3	0	2.229946561308316E+003	2.3508082E-001	-2.7038742E+002
3	0	2.230446561295685E+003	2.3497601E-001	-2.7036267E+002
3	0	2.230946561283054E+003	2.3491840E-001	-2.7038031E+002
3	0	2.231446561270423E+003	2.3486300E-001	-2.7037326E+002
3	0	2.231946561257791E+003	2.3480882E-001	-2.7036618E+002
3	0	2.232446561245160E+003	2.3475064E-001	-2.7036972E+002
3	0	2.232946561232529E+003	2.3468466E-001	-2.7036267E+002
3	0	2.233446561219898E+003	2.3461033E-001	-2.7038385E+002
3	0	2.233946561207267E+003	2.3451591E-001	-2.7038742E+002
3	0	2.234446561194636E+003	2.3442435E-001	-2.7035205E+002
3	0	2.234946561182005E+003	2.3436986E-001	-2.7039447E+002
3	0	2.235446561169374E+003	2.3432392E-001	-2.7038742E+002
3	0	2.235946561156743E+003	2.3427257E-001	-2.7036972E+002
3	0	2.236446561144112E+003	2.3421979E-001	-2.7034851E+002
3	0	2.236946561131481E+003	2.3416877E-001	-2.7038031E+002
3	0	2.237446561118850E+003	2.3409335E-001	-2.7038031E+002
3	0	2.237946561106219E+003	2.3399225E-001	-2.7035559E+002
3	0	2.238446561093588E+003	2.3390201E-001	-2.7036618E+002
3	0	2.238946561080957E+003	2.3384728E-001	-2.7037677E+002
3	0	2.239446561068326E+003	2.3380518E-001	-2.7039447E+002
3	0	2.239946561055694E+003	2.3375259E-001	-2.7039093E+002
3	0	2.240446561043063E+003	2.3370047E-001	-2.7038031E+002
3	0	2.240946561030432E+003	2.3364474E-001	-2.7037677E+002
3	0	2.241446561017801E+003	2.3357689E-001	-2.7038031E+002
3	0	2.241946561005170E+003	2.3348163E-001	-2.7038385E+002
3	0	2.242446560992539E+003	2.3338993E-001	-2.7036972E+002
3	0	2.242946560979908E+003	2.3334534E-001	-2.7036618E+002
3	0	2.243446560967277E+003	2.3330194E-001	-2.7036267E+002
3	0	2.243946560954646E+003	2.3325463E-001	-2.7038031E+002
3	0	2.244446560942015E+003	2.3320372E-001	-2.7035913E+002
3	0	2.244946560929384E+003	2.3315305E-001	-2.7038031E+002
3	0	2.245446560916753E+003	2.3308046E-001	-2.7039093E+002
3	0	2.245946560904122E+003	2.3299152E-001	-2.7034851E+002
3	0	2.246446560891491E+003	2.3289905E-001	-2.7039801E+002
3	0	2.246946560878860E+003	2.3284525E-001	-2.7037677E+002
3	0	2.247446560866229E+003	2.3279613E-001	-2.7036972E+002
3	0	2.247946560853597E+003	2.3275016E-001	-2.7036267E+002
3	0	2.248446560840966E+003	2.3269671E-001	-2.7037326E+002
3	0	2.248946560828335E+003	2.3263666E-001	-2.7038031E+002
3	0	2.249446560815704E+003	2.3256966E-001	-2.7037326E+002
3	0	2.249946560803073E+003	2.3246802E-001	-2.7037677E+002
3	0	2.250446560790442E+003	2.3237562E-001	-2.7039093E+002
3	0	2.250946560777811E+003	2.3232847E-001	-2.7040506E+002
3	0	2.251446560765180E+003	2.3228598E-001	-2.7038031E+002
3	0	2.251946560752549E+003	2.3223734E-001	-2.7040506E+002
3	0	2.252446560739918E+003	2.3218773E-001	-2.7040506E+002
3	0	2.252946560727287E+003	2.3214515E-001	-2.7039447E+002
3	0	2.253446560714656E+003	2.3208265E-001	-2.7037677E+002
3	0	2.253946560702025E+003	2.3199615E-001	-2.7040155E+002
3	0	2.254446560689394E+003	2.3190661E-001	-2.7039093E+002
3	0	2.254946560676763E+003	2.3186509E-001	-2.7038031E+002
3	0	2.255446560664132E+003	2.3182799E-001	-2.7037677E+002
3	0	2.255946560651500E+003	2.3178615E-001	-2.7039447E+002
3	0	2.256446560638869E+003	2.3174377E-001	-2.7039093E+002
3	0	2.256946560626238E+003	2.3169842E-001	-2.7038742E+002
3	0	2.257446560613607E+003	2.3163392E-001	-2.7036267E+002
3	0	2.257946560600976E+003	2.3154239E-001	-2.7035205E+002
3	0	2.258446560588345E+003	2.3145382E-001	-2.7038742E+002
3	0	2.258946560575714E+003	2.3140666E-001	-2.7039447E+002
3	0	2.259446560563083E+003	2.3137467E-001	-2.7038385E+002
3	0	2.259946560550452E+003	2.3133309E-001	-2.7039093E+002
3	0	2.260446560537821E+003	2.3129405E-001	-2.7035913E+002
3	0	2.260946560525190E+003	2.3124766E-001	-2.7039801E+002
3	0	2.261446560512559E+003	2.3118451E-001	-2.7038031E+002
3	0	2.261946560499928E+003	2.3109484E-001	-2.7040506E+002
3	0	2.262446560487297E+003	2.3100626E-001	-2.7036267E+002
3	0	2.262946560474666E+003	2.3096757E-001	-2.7036618E+002
3	0	2.263446560462035E+003	2.3093121E-001	-2.7040155E+002
3	0	2.263946560449403E+003	2.3088922E-001	-2.7036972E+002
3	0	2.264446560436772E+003	2.3085247E-001	-2.7038742E+002
3	0	2.264946560424141E+003	2.3080783E-001	-2.7037677E+002
3	0	2.265446560411510E+003	2.3075113E-001	-2.7041568E+002
3	0	2.265946560398879E+003	2.3066656E-001	-2.7035205E+002
3	0	2.266446560386248E+003	2.3057804E-001	-2.7038385E+002
3	0	2.266946560373617E+003	2.3053420E-001	-2.7038385E+002
3	0	2.267446560360986E+003	2.3049232E-001	-2.7037326E+002
3	0	2.267471160360365E+003	2.3046596E-001	-2.7037677E+002