EC-Lab ASCII FILE
Nb header lines : 55                          

Open Circuit Voltage

Run on channel : 1 (SN 81504)
User : 
CE vs. WE compliance from -10 V to 10 V
Electrode connection : standard
Potential control : Ewe
Ewe ctrl range : min = -2.50 V, max = 2.50 V
Safety Limits :
	Do not start on E overload
Acquisition started on : 05/09/2026 23:46:58.612
Loaded Setting File :  C:\PEM-WE_measurements\2026\372_IV_IV IrOx, 5 min Pt, 30 min C, etched cathode\new station\Loopeis new\1,46 V different time gaps closed cell\Loopeis 1,46V_30s_3_PEIS from 6500Hz to 1000Hz.mps
Saved on :
	File : L_03_Loopeis 1,46V_30s_3_PEIS from 6500Hz to 1000Hz_16_OCV_C01.mpr
	Directory : C:\PEM-WE_measurements\2026\372_IV_IV IrOx, 5 min Pt, 30 min C, etched cathode\new station\Loopeis new\1,46 V different time gaps closed cell\
	Host : 192.168.0.2
Device : SP-150e (SN .005491)
Address : 192.168.0.91
EC-LAB for windows v11.71 (software)
Internet server v28.00 (firmware)
Command interpretor v14.01 (firmware)
Electrode material : 
Initial state : 
Electrolyte : 
Comments : 
Current amplifier : SP-150eB-20A
Electrode surface area : 0.001 cm²
Characteristic mass : 0.001 g
Equivalent Weight : 0.000 g/eq.
Density : 0.000 g/cm3
Volume (V) : 0.001 cm³
Record Analogic IN 1
Text export
   Mode : Standard
   Time format : Elapsed
Cycle Definition : Charge/Discharge alternance
External device configuration :
   device type : Temperature Probe
   device name : Other
   Analog IN 1 : 
      unit : T/Â°C
      max : 100.000 at 2.000 V
      min : 0.000 at 1.460 V
tR (h:m:s)          0:00:30.0000        
dER/dt (mV/h)       1.0                 
record              <Ewe>               
dER (mV)            10.00               
dtR (s)             0.5000              
E range min (V)     -2.500              
E range max (V)     2.500               

mode	error	time/s	<Ewe/V>	Analog IN 1/V	
3	0	5.771937990039442E+002	1.2159102E+000	-2.7039447E+002
3	0	5.776937989913131E+002	1.2502580E+000	-2.7038385E+002
3	0	5.781937989786820E+002	1.2548670E+000	-2.7038742E+002
3	0	5.786937989660510E+002	1.2577282E+000	-2.7038742E+002
3	0	5.791937989534199E+002	1.2597868E+000	-2.7035913E+002
3	0	5.796937989407888E+002	1.2613670E+000	-2.7040506E+002
3	0	5.801937989281578E+002	1.2625763E+000	-2.7038385E+002
3	0	5.806937989155267E+002	1.2635157E+000	-2.7039447E+002
3	0	5.811937989028957E+002	1.2643422E+000	-2.7037677E+002
3	0	5.816937988902646E+002	1.2650806E+000	-2.7036972E+002
3	0	5.821937988776335E+002	1.2657095E+000	-2.7036267E+002
3	0	5.826937988650025E+002	1.2662418E+000	-2.7037326E+002
3	0	5.831937988523714E+002	1.2667072E+000	-2.7035913E+002
3	0	5.836937988397403E+002	1.2671056E+000	-2.7037677E+002
3	0	5.841937988271093E+002	1.2673877E+000	-2.7037326E+002
3	0	5.846937988144782E+002	1.2675663E+000	-2.7037677E+002
3	0	5.851937988018472E+002	1.2677639E+000	-2.7037326E+002
3	0	5.856937987892161E+002	1.2679776E+000	-2.7038742E+002
3	0	5.861937987765850E+002	1.2681564E+000	-2.7038031E+002
3	0	5.866937987639540E+002	1.2682909E+000	-2.7038742E+002
3	0	5.871937987513229E+002	1.2684054E+000	-2.7036267E+002
3	0	5.876937987386918E+002	1.2684647E+000	-2.7036972E+002
3	0	5.881937987260608E+002	1.2684489E+000	-2.7036972E+002
3	0	5.886937987134297E+002	1.2683494E+000	-2.7037326E+002
3	0	5.891937987007987E+002	1.2682803E+000	-2.7037326E+002
3	0	5.896937986881676E+002	1.2682546E+000	-2.7038385E+002
3	0	5.901937986755365E+002	1.2682076E+000	-2.7038031E+002
3	0	5.906937986629055E+002	1.2681425E+000	-2.7036972E+002
3	0	5.911937986502744E+002	1.2680678E+000	-2.7037677E+002
3	0	5.916937986376433E+002	1.2679636E+000	-2.7039093E+002
3	0	5.921937986250123E+002	1.2677846E+000	-2.7036618E+002
3	0	5.926937986123812E+002	1.2675400E+000	-2.7039093E+002
3	0	5.931937985997502E+002	1.2673484E+000	-2.7038385E+002
3	0	5.936937985871191E+002	1.2671982E+000	-2.7036618E+002
3	0	5.941937985744880E+002	1.2670341E+000	-2.7036267E+002
3	0	5.946937985618570E+002	1.2668555E+000	-2.7038031E+002
3	0	5.951937985492259E+002	1.2666814E+000	-2.7036618E+002
3	0	5.956937985365948E+002	1.2664760E+000	-2.7038742E+002
3	0	5.961937985239638E+002	1.2662088E+000	-2.7039093E+002
3	0	5.966937985113327E+002	1.2658798E+000	-2.7037326E+002
3	0	5.971937984987017E+002	1.2655962E+000	-2.7038385E+002
3	0	5.976937984860706E+002	1.2653649E+000	-2.7035913E+002
3	0	5.981937984734395E+002	1.2651180E+000	-2.7038031E+002
3	0	5.986937984608085E+002	1.2648578E+000	-2.7037326E+002
3	0	5.991937984481774E+002	1.2645974E+000	-2.7038742E+002
3	0	5.996937984355463E+002	1.2643144E+000	-2.7038742E+002
3	0	6.001937984229153E+002	1.2639699E+000	-2.7037677E+002
3	0	6.006937984102842E+002	1.2635703E+000	-2.7037326E+002
3	0	6.011937983976532E+002	1.2632079E+000	-2.7039093E+002
3	0	6.016937983850221E+002	1.2628969E+000	-2.7034143E+002
3	0	6.021937983723910E+002	1.2625896E+000	-2.7038742E+002
3	0	6.026937983597600E+002	1.2622701E+000	-2.7036618E+002
3	0	6.031937983471289E+002	1.2619466E+000	-2.7036618E+002
3	0	6.036937983344978E+002	1.2616024E+000	-2.7035913E+002
3	0	6.041937983218668E+002	1.2611955E+000	-2.7037326E+002
3	0	6.046937983092357E+002	1.2607263E+000	-2.7039093E+002
3	0	6.051937982966047E+002	1.2603076E+000	-2.7039801E+002
3	0	6.056937982839736E+002	1.2599421E+000	-2.7038742E+002
3	0	6.061937982713425E+002	1.2595756E+000	-2.7039447E+002
3	0	6.066937982587115E+002	1.2591931E+000	-2.7036267E+002
3	0	6.067183982580900E+002	1.2589915E+000	-2.7038385E+002