EC-Lab ASCII FILE
Nb header lines : 55                          

Open Circuit Voltage

Run on channel : 1 (SN 81504)
User : 
CE vs. WE compliance from -10 V to 10 V
Electrode connection : standard
Potential control : Ewe
Ewe ctrl range : min = -2.50 V, max = 2.50 V
Safety Limits :
	Do not start on E overload
Acquisition started on : 05/09/2026 23:46:58.612
Loaded Setting File :  C:\PEM-WE_measurements\2026\372_IV_IV IrOx, 5 min Pt, 30 min C, etched cathode\new station\Loopeis new\1,46 V different time gaps closed cell\Loopeis 1,46V_30s_3_PEIS from 6500Hz to 1000Hz.mps
Saved on :
	File : L_03_Loopeis 1,46V_30s_3_PEIS from 6500Hz to 1000Hz_04_OCV_C01.mpr
	Directory : C:\PEM-WE_measurements\2026\372_IV_IV IrOx, 5 min Pt, 30 min C, etched cathode\new station\Loopeis new\1,46 V different time gaps closed cell\
	Host : 192.168.0.2
Device : SP-150e (SN .005491)
Address : 192.168.0.91
EC-LAB for windows v11.71 (software)
Internet server v28.00 (firmware)
Command interpretor v14.01 (firmware)
Electrode material : 
Initial state : 
Electrolyte : 
Comments : 
Current amplifier : SP-150eB-20A
Electrode surface area : 0.001 cm²
Characteristic mass : 0.001 g
Equivalent Weight : 0.000 g/eq.
Density : 0.000 g/cm3
Volume (V) : 0.001 cm³
Record Analogic IN 1
Text export
   Mode : Standard
   Time format : Elapsed
Cycle Definition : Charge/Discharge alternance
External device configuration :
   device type : Temperature Probe
   device name : Other
   Analog IN 1 : 
      unit : T/Â°C
      max : 100.000 at 2.000 V
      min : 0.000 at 1.460 V
tR (h:m:s)          0:00:30.0000        
dER/dt (mV/h)       1.0                 
record              <Ewe>               
dER (mV)            10.00               
dtR (s)             0.5000              
E range min (V)     -2.500              
E range max (V)     2.500               

mode	error	time/s	<Ewe/V>	Analog IN 1/V	
3	0	1.206946002411860E+002	1.2197038E+000	-2.7037326E+002
3	0	1.211946002285549E+002	1.2472196E+000	-2.7038031E+002
3	0	1.216946002159239E+002	1.2519280E+000	-2.7037326E+002
3	0	1.221946002032928E+002	1.2548977E+000	-2.7038031E+002
3	0	1.226946001906617E+002	1.2570206E+000	-2.7038031E+002
3	0	1.231946001780307E+002	1.2586582E+000	-2.7040860E+002
3	0	1.236946001653996E+002	1.2599633E+000	-2.7037677E+002
3	0	1.241946001527685E+002	1.2610347E+000	-2.7040155E+002
3	0	1.246946001401375E+002	1.2618768E+000	-2.7038385E+002
3	0	1.251946001275064E+002	1.2625257E+000	-2.7038031E+002
3	0	1.256946001148754E+002	1.2631061E+000	-2.7039447E+002
3	0	1.261946001022443E+002	1.2636410E+000	-2.7038031E+002
3	0	1.266946000896132E+002	1.2640916E+000	-2.7038385E+002
3	0	1.271946000769822E+002	1.2644653E+000	-2.7037677E+002
3	0	1.276946000643511E+002	1.2647784E+000	-2.7039093E+002
3	0	1.281946000517200E+002	1.2650329E+000	-2.7038742E+002
3	0	1.286946000390890E+002	1.2652010E+000	-2.7039093E+002
3	0	1.291946000264579E+002	1.2652749E+000	-2.7040155E+002
3	0	1.296946000138269E+002	1.2653637E+000	-2.7038742E+002
3	0	1.301946000011958E+002	1.2654771E+000	-2.7037677E+002
3	0	1.306945999885647E+002	1.2655571E+000	-2.7038385E+002
3	0	1.311945999759337E+002	1.2655970E+000	-2.7036618E+002
3	0	1.316945999633026E+002	1.2656131E+000	-2.7037326E+002
3	0	1.321945999506715E+002	1.2656047E+000	-2.7036267E+002
3	0	1.326945999380405E+002	1.2655282E+000	-2.7039801E+002
3	0	1.331945999254094E+002	1.2653708E+000	-2.7036972E+002
3	0	1.336945999127784E+002	1.2652400E+000	-2.7039801E+002
3	0	1.341945999001473E+002	1.2651521E+000	-2.7035559E+002
3	0	1.346945998875162E+002	1.2650502E+000	-2.7039801E+002
3	0	1.351945998748852E+002	1.2649291E+000	-2.7038742E+002
3	0	1.356945998622541E+002	1.2647965E+000	-2.7039801E+002
3	0	1.361945998496230E+002	1.2646322E+000	-2.7038742E+002
3	0	1.366945998369920E+002	1.2644097E+000	-2.7038742E+002
3	0	1.371945998243609E+002	1.2641116E+000	-2.7038031E+002
3	0	1.376945998117299E+002	1.2638537E+000	-2.7039801E+002
3	0	1.381945997990988E+002	1.2636342E+000	-2.7038031E+002
3	0	1.386945997864677E+002	1.2634021E+000	-2.7036618E+002
3	0	1.391945997738367E+002	1.2631500E+000	-2.7036972E+002
3	0	1.396945997612056E+002	1.2629007E+000	-2.7037677E+002
3	0	1.401945997485745E+002	1.2626312E+000	-2.7036972E+002
3	0	1.406945997359435E+002	1.2623051E+000	-2.7036972E+002
3	0	1.411945997233124E+002	1.2618984E+000	-2.7037326E+002
3	0	1.416945997106814E+002	1.2615365E+000	-2.7039093E+002
3	0	1.421945996980503E+002	1.2612219E+000	-2.7035205E+002
3	0	1.426945996854192E+002	1.2608888E+000	-2.7036267E+002
3	0	1.431945996727882E+002	1.2605443E+000	-2.7039801E+002
3	0	1.436945996601571E+002	1.2601998E+000	-2.7037677E+002
3	0	1.441945996475260E+002	1.2598348E+000	-2.7037326E+002
3	0	1.446945996348950E+002	1.2594056E+000	-2.7038031E+002
3	0	1.451945996222639E+002	1.2589062E+000	-2.7036267E+002
3	0	1.456945996096329E+002	1.2584443E+000	-2.7040155E+002
3	0	1.461945995970018E+002	1.2580241E+000	-2.7038742E+002
3	0	1.466945995843707E+002	1.2576021E+000	-2.7036618E+002
3	0	1.471945995717397E+002	1.2571602E+000	-2.7038742E+002
3	0	1.476945995591086E+002	1.2567168E+000	-2.7036267E+002
3	0	1.481945995464775E+002	1.2562628E+000	-2.7037677E+002
3	0	1.486945995338465E+002	1.2557503E+000	-2.7038031E+002
3	0	1.491945995212154E+002	1.2551669E+000	-2.7039801E+002
3	0	1.496945995085844E+002	1.2546312E+000	-2.7038385E+002
3	0	1.501945994959533E+002	1.2541498E+000	-2.7036972E+002
3	0	1.502209994952864E+002	1.2538981E+000	-2.7040506E+002