EC-Lab ASCII FILE
Nb header lines : 55                          

Open Circuit Voltage

Run on channel : 1 (SN 81504)
User : 
CE vs. WE compliance from -10 V to 10 V
Electrode connection : standard
Potential control : Ewe
Ewe ctrl range : min = -2.50 V, max = 2.50 V
Safety Limits :
	Do not start on E overload
Acquisition started on : 05/07/2026 16:16:51.018
Loaded Setting File :  C:\PEM-WE_measurements\2026\372_IV_IV IrOx, 5 min Pt, 30 min C, etched cathode\new station\Loopeis new\1,46 V different time gaps open cell\Loopeis 1,46V_45s_5_PEIS from 65Hz to 10Hz.mps
Saved on :
	File : L_10_Loopeis 1,46V_45s_5_PEIS from 65Hz to 10Hz_16_OCV_C01.mpr
	Directory : C:\PEM-WE_measurements\2026\372_IV_IV IrOx, 5 min Pt, 30 min C, etched cathode\new station\Loopeis new\1,46 V different time gaps open cell\
	Host : 192.168.0.2
Device : SP-150e (SN .005491)
Address : 192.168.0.91
EC-LAB for windows v11.71 (software)
Internet server v28.00 (firmware)
Command interpretor v14.01 (firmware)
Electrode material : 
Initial state : 
Electrolyte : 
Comments : 
Current amplifier : SP-150eB-20A
Electrode surface area : 0.001 cm²
Characteristic mass : 0.001 g
Equivalent Weight : 0.000 g/eq.
Density : 0.000 g/cm3
Volume (V) : 0.001 cm³
Record Analogic IN 1
Text export
   Mode : Standard
   Time format : Elapsed
Cycle Definition : Charge/Discharge alternance
External device configuration :
   device type : Temperature Probe
   device name : Other
   Analog IN 1 : 
      unit : T/Â°C
      max : 100.000 at 2.000 V
      min : 0.000 at 1.460 V
tR (h:m:s)          0:00:45.0000        
dER/dt (mV/h)       1.0                 
record              <Ewe>               
dER (mV)            10.00               
dtR (s)             0.5000              
E range min (V)     -2.500              
E range max (V)     2.500               

mode	error	time/s	<Ewe/V>	Analog IN 1/V	
3	0	1.133624817793243E+003	1.2772253E+000	-2.7038031E+002
3	0	1.134124817780612E+003	1.2779108E+000	-2.7037677E+002
3	0	1.134624817767981E+003	1.2537100E+000	-2.7035913E+002
3	0	1.135124817755350E+003	1.2023283E+000	-2.7040506E+002
3	0	1.135624817742719E+003	1.0750935E+000	-2.7038385E+002
3	0	1.136124817730088E+003	6.3148475E-001	-2.7037326E+002
3	0	1.136624817717457E+003	3.9437050E-001	-2.7035205E+002
3	0	1.137124817704826E+003	3.5648349E-001	-2.7034851E+002
3	0	1.137624817692194E+003	3.4560376E-001	-2.7039093E+002
3	0	1.138124817679563E+003	3.3740687E-001	-2.7037677E+002
3	0	1.138624817666932E+003	3.3129421E-001	-2.7039447E+002
3	0	1.139124817654301E+003	3.2670951E-001	-2.7036972E+002
3	0	1.139624817641670E+003	3.2317299E-001	-2.7035559E+002
3	0	1.140124817629039E+003	3.2035425E-001	-2.7036972E+002
3	0	1.140624817616408E+003	3.1804013E-001	-2.7035205E+002
3	0	1.141124817603777E+003	3.1608883E-001	-2.7038031E+002
3	0	1.141624817591146E+003	3.1445524E-001	-2.7037677E+002
3	0	1.142124817578515E+003	3.1304035E-001	-2.7036972E+002
3	0	1.142624817565884E+003	3.1177524E-001	-2.7035913E+002
3	0	1.143124817553253E+003	3.1063291E-001	-2.7037326E+002
3	0	1.143624817540622E+003	3.0960172E-001	-2.7037326E+002
3	0	1.144124817527991E+003	3.0862054E-001	-2.7036972E+002
3	0	1.144624817515360E+003	3.0769202E-001	-2.7039093E+002
3	0	1.145124817502729E+003	3.0680147E-001	-2.7036267E+002
3	0	1.145624817490097E+003	3.0598611E-001	-2.7038742E+002
3	0	1.146124817477466E+003	3.0523312E-001	-2.7036618E+002
3	0	1.146624817464835E+003	3.0450585E-001	-2.7036618E+002
3	0	1.147124817452204E+003	3.0379823E-001	-2.7036972E+002
3	0	1.147624817439573E+003	3.0310285E-001	-2.7036972E+002
3	0	1.148124817426942E+003	3.0242187E-001	-2.7036267E+002
3	0	1.148624817414311E+003	3.0173171E-001	-2.7036972E+002
3	0	1.149124817401680E+003	3.0105025E-001	-2.7037677E+002
3	0	1.149624817389049E+003	3.0041945E-001	-2.7035559E+002
3	0	1.150124817376418E+003	2.9981256E-001	-2.7037677E+002
3	0	1.150624817363787E+003	2.9920968E-001	-2.7038742E+002
3	0	1.151124817351156E+003	2.9861876E-001	-2.7035913E+002
3	0	1.151624817338525E+003	2.9803449E-001	-2.7035205E+002
3	0	1.152124817325894E+003	2.9744586E-001	-2.7039447E+002
3	0	1.152624817313263E+003	2.9685396E-001	-2.7038385E+002
3	0	1.153124817300632E+003	2.9624996E-001	-2.7035559E+002
3	0	1.153624817288000E+003	2.9569948E-001	-2.7035913E+002
3	0	1.154124817275369E+003	2.9516125E-001	-2.7036618E+002
3	0	1.154624817262738E+003	2.9462624E-001	-2.7036972E+002
3	0	1.155124817250107E+003	2.9409122E-001	-2.7037677E+002
3	0	1.155624817237476E+003	2.9355821E-001	-2.7039801E+002
3	0	1.156124817224845E+003	2.9302227E-001	-2.7036972E+002
3	0	1.156624817212214E+003	2.9246867E-001	-2.7038385E+002
3	0	1.157124817199583E+003	2.9191953E-001	-2.7034497E+002
3	0	1.157624817186952E+003	2.9140463E-001	-2.7035913E+002
3	0	1.158124817174321E+003	2.9090497E-001	-2.7038742E+002
3	0	1.158624817161690E+003	2.9041728E-001	-2.7036618E+002
3	0	1.159124817149059E+003	2.8992856E-001	-2.7038385E+002
3	0	1.159624817136428E+003	2.8943416E-001	-2.7038742E+002
3	0	1.160124817123797E+003	2.8893885E-001	-2.7036972E+002
3	0	1.160624817111166E+003	2.8843293E-001	-2.7038742E+002
3	0	1.161124817098535E+003	2.8791589E-001	-2.7037677E+002
3	0	1.161624817085903E+003	2.8744328E-001	-2.7037326E+002
3	0	1.162124817073272E+003	2.8698605E-001	-2.7035913E+002
3	0	1.162624817060641E+003	2.8652960E-001	-2.7038031E+002
3	0	1.163124817048010E+003	2.8607085E-001	-2.7034851E+002
3	0	1.163624817035379E+003	2.8561419E-001	-2.7036972E+002
3	0	1.164124817022748E+003	2.8515038E-001	-2.7039093E+002
3	0	1.164624817010117E+003	2.8467461E-001	-2.7036972E+002
3	0	1.165124816997486E+003	2.8420392E-001	-2.7037326E+002
3	0	1.165624816984855E+003	2.8377053E-001	-2.7039447E+002
3	0	1.166124816972224E+003	2.8334129E-001	-2.7038031E+002
3	0	1.166624816959593E+003	2.8291282E-001	-2.7037677E+002
3	0	1.167124816946962E+003	2.8248212E-001	-2.7038031E+002
3	0	1.167624816934331E+003	2.8206453E-001	-2.7037677E+002
3	0	1.168124816921700E+003	2.8163606E-001	-2.7036972E+002
3	0	1.168624816909069E+003	2.8119227E-001	-2.7037326E+002
3	0	1.169124816896438E+003	2.8075165E-001	-2.7036972E+002
3	0	1.169624816883806E+003	2.8035480E-001	-2.7034851E+002
3	0	1.170124816871175E+003	2.7996951E-001	-2.7037326E+002
3	0	1.170624816858544E+003	2.7957219E-001	-2.7039447E+002
3	0	1.171124816845913E+003	2.7917793E-001	-2.7037677E+002
3	0	1.171624816833282E+003	2.7879086E-001	-2.7038742E+002
3	0	1.172124816820651E+003	2.7838624E-001	-2.7038385E+002
3	0	1.172624816808020E+003	2.7796885E-001	-2.7036618E+002
3	0	1.173124816795389E+003	2.7756312E-001	-2.7038385E+002
3	0	1.173624816782758E+003	2.7719688E-001	-2.7040860E+002
3	0	1.174124816770127E+003	2.7683544E-001	-2.7039447E+002
3	0	1.174624816757496E+003	2.7647272E-001	-2.7038742E+002
3	0	1.175124816744865E+003	2.7611235E-001	-2.7038385E+002
3	0	1.175624816732234E+003	2.7575910E-001	-2.7039447E+002
3	0	1.176124816719603E+003	2.7539584E-001	-2.7036972E+002
3	0	1.176624816706972E+003	2.7502760E-001	-2.7037326E+002
3	0	1.177124816694341E+003	2.7464235E-001	-2.7036267E+002
3	0	1.177624816681709E+003	2.7430147E-001	-2.7039093E+002
3	0	1.178124816669078E+003	2.7398920E-001	-2.7039093E+002
3	0	1.178149416668457E+003	2.7380979E-001	-2.7036267E+002