EC-Lab ASCII FILE
Nb header lines : 55                          

Open Circuit Voltage

Run on channel : 1 (SN 81504)
User : 
CE vs. WE compliance from -10 V to 10 V
Electrode connection : standard
Potential control : Ewe
Ewe ctrl range : min = -2.50 V, max = 2.50 V
Safety Limits :
	Do not start on E overload
Acquisition started on : 05/10/2026 06:49:56.074
Loaded Setting File :  C:\PEM-WE_measurements\2026\372_IV_IV IrOx, 5 min Pt, 30 min C, etched cathode\new station\Loopeis new\1,46 V different time gaps closed cell\Loopeis 1,46V_120s_4_PEIS from 650Hz to 100Hz.mps
Saved on :
	File : L_24_Loopeis 1,46V_120s_4_PEIS from 650Hz to 100Hz_10_OCV_C01.mpr
	Directory : C:\PEM-WE_measurements\2026\372_IV_IV IrOx, 5 min Pt, 30 min C, etched cathode\new station\Loopeis new\1,46 V different time gaps closed cell\
	Host : 192.168.0.2
Device : SP-150e (SN .005491)
Address : 192.168.0.91
EC-LAB for windows v11.71 (software)
Internet server v28.00 (firmware)
Command interpretor v14.01 (firmware)
Electrode material : 
Initial state : 
Electrolyte : 
Comments : 
Current amplifier : SP-150eB-20A
Electrode surface area : 0.001 cm²
Characteristic mass : 0.001 g
Equivalent Weight : 0.000 g/eq.
Density : 0.000 g/cm3
Volume (V) : 0.001 cm³
Record Analogic IN 1
Text export
   Mode : Standard
   Time format : Elapsed
Cycle Definition : Charge/Discharge alternance
External device configuration :
   device type : Temperature Probe
   device name : Other
   Analog IN 1 : 
      unit : T/Â°C
      max : 100.000 at 2.000 V
      min : 0.000 at 1.460 V
tR (h:m:s)          0:02:0.0000         
dER/dt (mV/h)       1.0                 
record              <Ewe>               
dER (mV)            10.00               
dtR (s)             0.5000              
E range min (V)     -2.500              
E range max (V)     2.500               

mode	error	time/s	<Ewe/V>	Analog IN 1/V	
3	0	7.051993887114077E+002	1.2907399E+000	-2.7035913E+002
3	0	7.056993886987766E+002	1.2973866E+000	-2.7036267E+002
3	0	7.061993886861455E+002	1.2942662E+000	-2.7036267E+002
3	0	7.066993886735145E+002	1.2857945E+000	-2.7037677E+002
3	0	7.071993886608834E+002	1.2702267E+000	-2.7038031E+002
3	0	7.076993886482524E+002	1.2444807E+000	-2.7040860E+002
3	0	7.081993886356213E+002	1.2029121E+000	-2.7037677E+002
3	0	7.086993886229902E+002	1.1303387E+000	-2.7037326E+002
3	0	7.091993886103592E+002	9.3876863E-001	-2.7036618E+002
3	0	7.096993885977281E+002	5.9015524E-001	-2.7036267E+002
3	0	7.101993885850970E+002	4.6008644E-001	-2.7038385E+002
3	0	7.106993885724660E+002	4.1665539E-001	-2.7039093E+002
3	0	7.111993885598349E+002	4.0369582E-001	-2.7039093E+002
3	0	7.116993885472039E+002	3.9879230E-001	-2.7036972E+002
3	0	7.121993885345728E+002	3.9549291E-001	-2.7040860E+002
3	0	7.126993885219417E+002	3.9275819E-001	-2.7039447E+002
3	0	7.131993885093107E+002	3.9097953E-001	-2.7038742E+002
3	0	7.136993884966796E+002	3.8982573E-001	-2.7036972E+002
3	0	7.141993884840485E+002	3.8870314E-001	-2.7039447E+002
3	0	7.146993884714175E+002	3.8778877E-001	-2.7036972E+002
3	0	7.151993884587864E+002	3.8719684E-001	-2.7037326E+002
3	0	7.156993884461554E+002	3.8680401E-001	-2.7036618E+002
3	0	7.161993884335243E+002	3.8640481E-001	-2.7038385E+002
3	0	7.166993884208932E+002	3.8617653E-001	-2.7035559E+002
3	0	7.171993884082622E+002	3.8669950E-001	-2.7039447E+002
3	0	7.176993883956311E+002	3.8746068E-001	-2.7039447E+002
3	0	7.181993883830000E+002	3.8800064E-001	-2.7036267E+002
3	0	7.186993883703690E+002	3.8845900E-001	-2.7039093E+002
3	0	7.191993883577379E+002	3.8894588E-001	-2.7035913E+002
3	0	7.196993883451069E+002	3.8925299E-001	-2.7036618E+002
3	0	7.201993883324758E+002	3.8945416E-001	-2.7038742E+002
3	0	7.206993883198447E+002	3.8954061E-001	-2.7035559E+002
3	0	7.211993883072137E+002	3.9014077E-001	-2.7036618E+002
3	0	7.216993882945826E+002	3.9086908E-001	-2.7036267E+002
3	0	7.221993882819515E+002	3.9129293E-001	-2.7037677E+002
3	0	7.226993882693205E+002	3.9156926E-001	-2.7038031E+002
3	0	7.231993882566894E+002	3.9182732E-001	-2.7039447E+002
3	0	7.236993882440584E+002	3.9200178E-001	-2.7037326E+002
3	0	7.241993882314273E+002	3.9195487E-001	-2.7040506E+002
3	0	7.246993882187962E+002	3.9186725E-001	-2.7039447E+002
3	0	7.251993882061652E+002	3.9225778E-001	-2.7038031E+002
3	0	7.256993881935341E+002	3.9280897E-001	-2.7038031E+002
3	0	7.261993881809030E+002	3.9307654E-001	-2.7036972E+002
3	0	7.266993881682720E+002	3.9312238E-001	-2.7038385E+002
3	0	7.271993881556409E+002	3.9313909E-001	-2.7039801E+002
3	0	7.276993881430099E+002	3.9312258E-001	-2.7039801E+002
3	0	7.281993881303788E+002	3.9289621E-001	-2.7038385E+002
3	0	7.286993881177477E+002	3.9257911E-001	-2.7038031E+002
3	0	7.291993881051167E+002	3.9278868E-001	-2.7035559E+002
3	0	7.296993880924856E+002	3.9313012E-001	-2.7036618E+002
3	0	7.301993880798545E+002	3.9321342E-001	-2.7038031E+002
3	0	7.306993880672235E+002	3.9315304E-001	-2.7038742E+002
3	0	7.311993880545924E+002	3.9311948E-001	-2.7038385E+002
3	0	7.316993880419614E+002	3.9297199E-001	-2.7038031E+002
3	0	7.321993880293303E+002	3.9258847E-001	-2.7037326E+002
3	0	7.326993880166992E+002	3.9210597E-001	-2.7040155E+002
3	0	7.331993880040682E+002	3.9217502E-001	-2.7037677E+002
3	0	7.336993879914371E+002	3.9239401E-001	-2.7038742E+002
3	0	7.341993879788060E+002	3.9241961E-001	-2.7039093E+002
3	0	7.346993879661750E+002	3.9241859E-001	-2.7035559E+002
3	0	7.351993879535439E+002	3.9254880E-001	-2.7037677E+002
3	0	7.356993879409129E+002	3.9273441E-001	-2.7038742E+002
3	0	7.361993879282818E+002	3.9282122E-001	-2.7039801E+002
3	0	7.366993879156507E+002	3.9292422E-001	-2.7035205E+002
3	0	7.371993879030197E+002	3.9359713E-001	-2.7039801E+002
3	0	7.376993878903886E+002	3.9449674E-001	-2.7037326E+002
3	0	7.381993878777575E+002	3.9513209E-001	-2.7040506E+002
3	0	7.386993878651265E+002	3.9555806E-001	-2.7039447E+002
3	0	7.391993878524954E+002	3.9592510E-001	-2.7038031E+002
3	0	7.396993878398644E+002	3.9618024E-001	-2.7035559E+002
3	0	7.401993878272333E+002	3.9610514E-001	-2.7037326E+002
3	0	7.406993878146022E+002	3.9596424E-001	-2.7036618E+002
3	0	7.411993878019712E+002	3.9629048E-001	-2.7039447E+002
3	0	7.416993877893401E+002	3.9669886E-001	-2.7038742E+002
3	0	7.421993877767090E+002	3.9686200E-001	-2.7036972E+002
3	0	7.426993877640780E+002	3.9689443E-001	-2.7037677E+002
3	0	7.431993877514469E+002	3.9686149E-001	-2.7038385E+002
3	0	7.436993877388159E+002	3.9672336E-001	-2.7038031E+002
3	0	7.441993877261848E+002	3.9634666E-001	-2.7037326E+002
3	0	7.446993877135537E+002	3.9582339E-001	-2.7033438E+002
3	0	7.451993877009227E+002	3.9582169E-001	-2.7037326E+002
3	0	7.456993876882916E+002	3.9593941E-001	-2.7036618E+002
3	0	7.461993876756605E+002	3.9579782E-001	-2.7038385E+002
3	0	7.466993876630295E+002	3.9554703E-001	-2.7037677E+002
3	0	7.471993876503984E+002	3.9532670E-001	-2.7039801E+002
3	0	7.476993876377674E+002	3.9496535E-001	-2.7035913E+002
3	0	7.481993876251363E+002	3.9441666E-001	-2.7040155E+002
3	0	7.486993876125052E+002	3.9377794E-001	-2.7037677E+002
3	0	7.491993875998742E+002	3.9360461E-001	-2.7038385E+002
3	0	7.496993875872431E+002	3.9359415E-001	-2.7039093E+002
3	0	7.501993875746120E+002	3.9338824E-001	-2.7036267E+002
3	0	7.506993875619810E+002	3.9302823E-001	-2.7038385E+002
3	0	7.511993875493499E+002	3.9264917E-001	-2.7038031E+002
3	0	7.516993875367189E+002	3.9217511E-001	-2.7039447E+002
3	0	7.521993875240878E+002	3.9148748E-001	-2.7037326E+002
3	0	7.526993875114567E+002	3.9076746E-001	-2.7037677E+002
3	0	7.531993874988257E+002	3.9055040E-001	-2.7036618E+002
3	0	7.536993874861946E+002	3.9043909E-001	-2.7037326E+002
3	0	7.541993874735635E+002	3.9018077E-001	-2.7038742E+002
3	0	7.546993874609325E+002	3.8990775E-001	-2.7035913E+002
3	0	7.551993874483014E+002	3.8974687E-001	-2.7036972E+002
3	0	7.556993874356704E+002	3.8964117E-001	-2.7039447E+002
3	0	7.561993874230393E+002	3.8949358E-001	-2.7038031E+002
3	0	7.566993874104082E+002	3.8934395E-001	-2.7037677E+002
3	0	7.571993873977772E+002	3.8969103E-001	-2.7037326E+002
3	0	7.576993873851461E+002	3.9019769E-001	-2.7038031E+002
3	0	7.581993873725150E+002	3.9051872E-001	-2.7038742E+002
3	0	7.586993873598840E+002	3.9069107E-001	-2.7035559E+002
3	0	7.591993873472529E+002	3.9082995E-001	-2.7037677E+002
3	0	7.596993873346219E+002	3.9087752E-001	-2.7038031E+002
3	0	7.601993873219908E+002	3.9071420E-001	-2.7036972E+002
3	0	7.606993873093597E+002	3.9043358E-001	-2.7036972E+002
3	0	7.611993872967287E+002	3.9052254E-001	-2.7039093E+002
3	0	7.616993872840976E+002	3.9071071E-001	-2.7036972E+002
3	0	7.621993872714665E+002	3.9069352E-001	-2.7037677E+002
3	0	7.626993872588355E+002	3.9052272E-001	-2.7036972E+002
3	0	7.631993872462044E+002	3.9029577E-001	-2.7038385E+002
3	0	7.636993872335734E+002	3.9000717E-001	-2.7036972E+002
3	0	7.641993872209423E+002	3.8958436E-001	-2.7035205E+002
3	0	7.646993872083112E+002	3.8907075E-001	-2.7036972E+002
3	0	7.651993871956802E+002	3.8895452E-001	-2.7039801E+002
3	0	7.656993871830491E+002	3.8896024E-001	-2.7035559E+002
3	0	7.661993871704180E+002	3.8878429E-001	-2.7037326E+002
3	0	7.666993871577870E+002	3.8848248E-001	-2.7038742E+002
3	0	7.671993871451559E+002	3.8814369E-001	-2.7039093E+002
3	0	7.676993871325249E+002	3.8775370E-001	-2.7038031E+002
3	0	7.681993871198938E+002	3.8716549E-001	-2.7038385E+002
3	0	7.686993871072627E+002	3.8651103E-001	-2.7037677E+002
3	0	7.691993870946317E+002	3.8629088E-001	-2.7036267E+002
3	0	7.696993870820006E+002	3.8619024E-001	-2.7035205E+002
3	0	7.701993870693696E+002	3.8590977E-001	-2.7038742E+002
3	0	7.706993870567385E+002	3.8551670E-001	-2.7036267E+002
3	0	7.711993870441074E+002	3.8510904E-001	-2.7039093E+002
3	0	7.716993870314764E+002	3.8464457E-001	-2.7038031E+002
3	0	7.721993870188453E+002	3.8403073E-001	-2.7037677E+002
3	0	7.726993870062142E+002	3.8335338E-001	-2.7038742E+002
3	0	7.731993869935832E+002	3.8304007E-001	-2.7036972E+002
3	0	7.736993869809521E+002	3.8288441E-001	-2.7036618E+002
3	0	7.741993869683211E+002	3.8264257E-001	-2.7037677E+002
3	0	7.746993869556900E+002	3.8233989E-001	-2.7037326E+002
3	0	7.751993869430589E+002	3.8211337E-001	-2.7037677E+002
3	0	7.756993869304279E+002	3.8195416E-001	-2.7038031E+002
3	0	7.761993869177968E+002	3.8164642E-001	-2.7038385E+002
3	0	7.766993869051657E+002	3.8144869E-001	-2.7036618E+002
3	0	7.771993868925347E+002	3.8168260E-001	-2.7036618E+002
3	0	7.776993868799036E+002	3.8208359E-001	-2.7037677E+002
3	0	7.781993868672726E+002	3.8232279E-001	-2.7038031E+002
3	0	7.786993868546415E+002	3.8245293E-001	-2.7038385E+002
3	0	7.791993868420104E+002	3.8251477E-001	-2.7037326E+002
3	0	7.796993868293794E+002	3.8251361E-001	-2.7038742E+002
3	0	7.801993868167483E+002	3.8227031E-001	-2.7037326E+002
3	0	7.806993868041172E+002	3.8193631E-001	-2.7038031E+002
3	0	7.811993867914862E+002	3.8195309E-001	-2.7038031E+002
3	0	7.816993867788551E+002	3.8206467E-001	-2.7036618E+002
3	0	7.821993867662241E+002	3.8201404E-001	-2.7035205E+002
3	0	7.826993867535930E+002	3.8183236E-001	-2.7035913E+002
3	0	7.831993867409619E+002	3.8163862E-001	-2.7036618E+002
3	0	7.836993867283309E+002	3.8135338E-001	-2.7036972E+002
3	0	7.841993867156998E+002	3.8089311E-001	-2.7038742E+002
3	0	7.846993867030687E+002	3.8041276E-001	-2.7038385E+002
3	0	7.851993866904377E+002	3.8023543E-001	-2.7039801E+002
3	0	7.856993866778066E+002	3.8017955E-001	-2.7038031E+002
3	0	7.861993866651756E+002	3.7996021E-001	-2.7038031E+002
3	0	7.866993866525445E+002	3.7967405E-001	-2.7039801E+002
3	0	7.871993866399134E+002	3.7936965E-001	-2.7034143E+002
3	0	7.876993866272824E+002	3.7901324E-001	-2.7039801E+002
3	0	7.881993866146513E+002	3.7849128E-001	-2.7036972E+002
3	0	7.886993866020202E+002	3.7792128E-001	-2.7041214E+002
3	0	7.891993865893892E+002	3.7766379E-001	-2.7038742E+002
3	0	7.896993865767581E+002	3.7754416E-001	-2.7037326E+002
3	0	7.901993865641271E+002	3.7731281E-001	-2.7038031E+002
3	0	7.906993865514960E+002	3.7700790E-001	-2.7035559E+002
3	0	7.911993865388649E+002	3.7669683E-001	-2.7039093E+002
3	0	7.916993865262339E+002	3.7633333E-001	-2.7038031E+002
3	0	7.921993865136028E+002	3.7580565E-001	-2.7038031E+002
3	0	7.926993865009717E+002	3.7520596E-001	-2.7038385E+002
3	0	7.931993864883407E+002	3.7492609E-001	-2.7037326E+002
3	0	7.936993864757096E+002	3.7479338E-001	-2.7036972E+002
3	0	7.941993864630786E+002	3.7457308E-001	-2.7036972E+002
3	0	7.946993864504475E+002	3.7431186E-001	-2.7036267E+002
3	0	7.951993864378164E+002	3.7408602E-001	-2.7039801E+002
3	0	7.956993864251854E+002	3.7388793E-001	-2.7038742E+002
3	0	7.961993864125543E+002	3.7364841E-001	-2.7036618E+002
3	0	7.966993863999232E+002	3.7344301E-001	-2.7036972E+002
3	0	7.971993863872922E+002	3.7357157E-001	-2.7038385E+002
3	0	7.976993863746611E+002	3.7391806E-001	-2.7036972E+002
3	0	7.981993863620301E+002	3.7417129E-001	-2.7039447E+002
3	0	7.986993863493990E+002	3.7432814E-001	-2.7039447E+002
3	0	7.991993863367679E+002	3.7444860E-001	-2.7038031E+002
3	0	7.996993863241369E+002	3.7447557E-001	-2.7035559E+002
3	0	8.001993863115058E+002	3.7434280E-001	-2.7037677E+002
3	0	8.006993862988747E+002	3.7410003E-001	-2.7037677E+002
3	0	8.011993862862437E+002	3.7411693E-001	-2.7035913E+002
3	0	8.016993862736126E+002	3.7421134E-001	-2.7039801E+002
3	0	8.021993862609816E+002	3.7419578E-001	-2.7040155E+002
3	0	8.026993862483505E+002	3.7407637E-001	-2.7038031E+002
3	0	8.031993862357194E+002	3.7389913E-001	-2.7035913E+002
3	0	8.036993862230884E+002	3.7368920E-001	-2.7036267E+002
3	0	8.041993862104573E+002	3.7335324E-001	-2.7039093E+002
3	0	8.046993861978262E+002	3.7290078E-001	-2.7038031E+002
3	0	8.051993861851952E+002	3.7271455E-001	-2.7036618E+002
3	0	8.056993861725641E+002	3.7266612E-001	-2.7038031E+002
3	0	8.061993861599331E+002	3.7249899E-001	-2.7036972E+002
3	0	8.066993861473020E+002	3.7223774E-001	-2.7036618E+002
3	0	8.071993861346709E+002	3.7198579E-001	-2.7040860E+002
3	0	8.076993861220399E+002	3.7166059E-001	-2.7038742E+002
3	0	8.081993861094088E+002	3.7119886E-001	-2.7039801E+002
3	0	8.086993860967777E+002	3.7066069E-001	-2.7037326E+002
3	0	8.091993860841467E+002	3.7039146E-001	-2.7036972E+002
3	0	8.096993860715156E+002	3.7027934E-001	-2.7038385E+002
3	0	8.101993860588846E+002	3.7007749E-001	-2.7036972E+002
3	0	8.106993860462535E+002	3.6976784E-001	-2.7041214E+002
3	0	8.111993860336224E+002	3.6946297E-001	-2.7036618E+002
3	0	8.116993860209914E+002	3.6907396E-001	-2.7035205E+002
3	0	8.121993860083603E+002	3.6859453E-001	-2.7038742E+002
3	0	8.126993859957292E+002	3.6806011E-001	-2.7039447E+002
3	0	8.131993859830982E+002	3.6779580E-001	-2.7038385E+002
3	0	8.136993859704671E+002	3.6766005E-001	-2.7037677E+002
3	0	8.141993859578361E+002	3.6745292E-001	-2.7038385E+002
3	0	8.146993859452050E+002	3.6719528E-001	-2.7037677E+002
3	0	8.151993859325739E+002	3.6699718E-001	-2.7036618E+002
3	0	8.156993859199429E+002	3.6684540E-001	-2.7036267E+002
3	0	8.161993859073118E+002	3.6661449E-001	-2.7036972E+002
3	0	8.166993858946807E+002	3.6640722E-001	-2.7038031E+002
3	0	8.171993858820497E+002	3.6652038E-001	-2.7036618E+002
3	0	8.176993858694186E+002	3.6683494E-001	-2.7035913E+002
3	0	8.181993858567876E+002	3.6705816E-001	-2.7034851E+002
3	0	8.186993858441565E+002	3.6717844E-001	-2.7037677E+002
3	0	8.191993858315254E+002	3.6723068E-001	-2.7035913E+002
3	0	8.196993858188944E+002	3.6722723E-001	-2.7036618E+002
3	0	8.201993858062633E+002	3.6707687E-001	-2.7036972E+002
3	0	8.206993857936322E+002	3.6682406E-001	-2.7038385E+002
3	0	8.211993857810012E+002	3.6677438E-001	-2.7037677E+002
3	0	8.216993857683701E+002	3.6685547E-001	-2.7038031E+002
3	0	8.221993857557391E+002	3.6682007E-001	-2.7040155E+002
3	0	8.226993857431080E+002	3.6668223E-001	-2.7036972E+002
3	0	8.231993857304769E+002	3.6648902E-001	-2.7036267E+002
3	0	8.236993857178459E+002	3.6625367E-001	-2.7034851E+002
3	0	8.241993857052148E+002	3.6586788E-001	-2.7037677E+002
3	0	8.246993856925837E+002	3.6541703E-001	-2.7038031E+002
3	0	8.246997856925736E+002	3.6524084E-001	-2.7037326E+002