EC-Lab ASCII FILE
Nb header lines : 55                          

Open Circuit Voltage

Run on channel : 1 (SN 81504)
User : 
CE vs. WE compliance from -10 V to 10 V
Electrode connection : standard
Potential control : Ewe
Ewe ctrl range : min = -2.50 V, max = 2.50 V
Safety Limits :
	Do not start on E overload
Acquisition started on : 05/10/2026 01:27:16.117
Loaded Setting File :  C:\PEM-WE_measurements\2026\372_IV_IV IrOx, 5 min Pt, 30 min C, etched cathode\new station\Loopeis new\1,46 V different time gaps closed cell\Loopeis 1,46V_45s_5_PEIS from 65Hz to 10Hz.mps
Saved on :
	File : L_10_Loopeis 1,46V_45s_5_PEIS from 65Hz to 10Hz_12_OCV_C01.mpr
	Directory : C:\PEM-WE_measurements\2026\372_IV_IV IrOx, 5 min Pt, 30 min C, etched cathode\new station\Loopeis new\1,46 V different time gaps closed cell\
	Host : 192.168.0.2
Device : SP-150e (SN .005491)
Address : 192.168.0.91
EC-LAB for windows v11.71 (software)
Internet server v28.00 (firmware)
Command interpretor v14.01 (firmware)
Electrode material : 
Initial state : 
Electrolyte : 
Comments : 
Current amplifier : SP-150eB-20A
Electrode surface area : 0.001 cm²
Characteristic mass : 0.001 g
Equivalent Weight : 0.000 g/eq.
Density : 0.000 g/cm3
Volume (V) : 0.001 cm³
Record Analogic IN 1
Text export
   Mode : Standard
   Time format : Elapsed
Cycle Definition : Charge/Discharge alternance
External device configuration :
   device type : Temperature Probe
   device name : Other
   Analog IN 1 : 
      unit : T/Â°C
      max : 100.000 at 2.000 V
      min : 0.000 at 1.460 V
tR (h:m:s)          0:00:45.0000        
dER/dt (mV/h)       1.0                 
record              <Ewe>               
dER (mV)            10.00               
dtR (s)             0.5000              
E range min (V)     -2.500              
E range max (V)     2.500               

mode	error	time/s	<Ewe/V>	Analog IN 1/V	
3	0	9.849310205533402E+002	1.2270395E+000	-2.7038031E+002
3	0	9.854310205407091E+002	1.2380819E+000	-2.7037677E+002
3	0	9.859310205280781E+002	1.2429849E+000	-2.7038385E+002
3	0	9.864310205154470E+002	1.2459431E+000	-2.7035559E+002
3	0	9.869310205028160E+002	1.2480412E+000	-2.7038031E+002
3	0	9.874310204901849E+002	1.2496417E+000	-2.7035913E+002
3	0	9.879310204775538E+002	1.2508857E+000	-2.7037326E+002
3	0	9.884310204649228E+002	1.2518637E+000	-2.7037677E+002
3	0	9.889310204522917E+002	1.2526555E+000	-2.7036618E+002
3	0	9.894310204396606E+002	1.2532716E+000	-2.7037677E+002
3	0	9.899310204270296E+002	1.2537310E+000	-2.7039447E+002
3	0	9.904310204143985E+002	1.2540497E+000	-2.7038385E+002
3	0	9.909310204017675E+002	1.2543461E+000	-2.7039447E+002
3	0	9.914310203891364E+002	1.2546319E+000	-2.7038031E+002
3	0	9.919310203765053E+002	1.2548660E+000	-2.7040155E+002
3	0	9.924310203638743E+002	1.2550495E+000	-2.7035913E+002
3	0	9.929310203512432E+002	1.2552011E+000	-2.7038385E+002
3	0	9.934310203386121E+002	1.2553129E+000	-2.7038031E+002
3	0	9.939310203259811E+002	1.2553471E+000	-2.7036267E+002
3	0	9.944310203133500E+002	1.2553102E+000	-2.7039447E+002
3	0	9.949310203007190E+002	1.2553177E+000	-2.7038742E+002
3	0	9.954310202880879E+002	1.2553674E+000	-2.7036972E+002
3	0	9.959310202754568E+002	1.2554011E+000	-2.7038385E+002
3	0	9.964310202628258E+002	1.2554258E+000	-2.7035559E+002
3	0	9.969310202501947E+002	1.2554336E+000	-2.7038031E+002
3	0	9.974310202375636E+002	1.2554263E+000	-2.7037326E+002
3	0	9.979310202249326E+002	1.2553535E+000	-2.7038031E+002
3	0	9.984310202123015E+002	1.2552102E+000	-2.7037677E+002
3	0	9.989310201996705E+002	1.2551286E+000	-2.7036618E+002
3	0	9.994310201870394E+002	1.2550975E+000	-2.7039093E+002
3	0	9.999310201744083E+002	1.2550583E+000	-2.7038031E+002
3	0	1.000431020161777E+003	1.2550023E+000	-2.7039801E+002
3	0	1.000931020149146E+003	1.2549338E+000	-2.7038031E+002
3	0	1.001431020136515E+003	1.2548479E+000	-2.7040506E+002
3	0	1.001931020123884E+003	1.2546995E+000	-2.7035913E+002
3	0	1.002431020111253E+003	1.2544852E+000	-2.7039801E+002
3	0	1.002931020098622E+003	1.2543262E+000	-2.7036972E+002
3	0	1.003431020085991E+003	1.2542183E+000	-2.7039801E+002
3	0	1.003931020073360E+003	1.2541071E+000	-2.7036618E+002
3	0	1.004431020060729E+003	1.2539769E+000	-2.7038031E+002
3	0	1.004931020048098E+003	1.2538491E+000	-2.7038742E+002
3	0	1.005431020035467E+003	1.2536930E+000	-2.7036618E+002
3	0	1.005931020022836E+003	1.2534748E+000	-2.7037677E+002
3	0	1.006431020010205E+003	1.2531890E+000	-2.7038031E+002
3	0	1.006931019997573E+003	1.2529624E+000	-2.7036618E+002
3	0	1.007431019984942E+003	1.2527792E+000	-2.7037677E+002
3	0	1.007931019972311E+003	1.2525862E+000	-2.7036267E+002
3	0	1.008431019959680E+003	1.2523863E+000	-2.7037326E+002
3	0	1.008931019947049E+003	1.2521889E+000	-2.7036972E+002
3	0	1.009431019934418E+003	1.2519573E+000	-2.7035205E+002
3	0	1.009931019921787E+003	1.2516731E+000	-2.7038385E+002
3	0	1.010431019909156E+003	1.2513139E+000	-2.7034497E+002
3	0	1.010931019896525E+003	1.2510228E+000	-2.7038742E+002
3	0	1.011431019883894E+003	1.2507732E+000	-2.7040860E+002
3	0	1.011931019871263E+003	1.2505345E+000	-2.7038742E+002
3	0	1.012431019858632E+003	1.2502840E+000	-2.7036618E+002
3	0	1.012931019846001E+003	1.2500247E+000	-2.7038031E+002
3	0	1.013431019833370E+003	1.2497691E+000	-2.7036972E+002
3	0	1.013931019820739E+003	1.2494607E+000	-2.7036972E+002
3	0	1.014431019808108E+003	1.2490966E+000	-2.7034497E+002
3	0	1.014931019795476E+003	1.2487901E+000	-2.7037326E+002
3	0	1.015431019782845E+003	1.2485577E+000	-2.7038742E+002
3	0	1.015931019770214E+003	1.2483264E+000	-2.7038385E+002
3	0	1.016431019757583E+003	1.2480918E+000	-2.7039093E+002
3	0	1.016931019744952E+003	1.2478565E+000	-2.7037326E+002
3	0	1.017431019732321E+003	1.2476068E+000	-2.7037326E+002
3	0	1.017931019719690E+003	1.2472918E+000	-2.7038031E+002
3	0	1.018431019707059E+003	1.2469095E+000	-2.7035913E+002
3	0	1.018931019694428E+003	1.2465974E+000	-2.7037677E+002
3	0	1.019431019681797E+003	1.2463310E+000	-2.7037677E+002
3	0	1.019931019669166E+003	1.2460623E+000	-2.7038031E+002
3	0	1.020431019656535E+003	1.2457832E+000	-2.7039447E+002
3	0	1.020931019643904E+003	1.2455106E+000	-2.7037677E+002
3	0	1.021431019631273E+003	1.2452179E+000	-2.7038742E+002
3	0	1.021931019618642E+003	1.2448645E+000	-2.7037677E+002
3	0	1.022431019606011E+003	1.2444332E+000	-2.7037326E+002
3	0	1.022931019593379E+003	1.2440670E+000	-2.7036972E+002
3	0	1.023431019580748E+003	1.2437568E+000	-2.7040506E+002
3	0	1.023931019568117E+003	1.2434393E+000	-2.7036618E+002
3	0	1.024431019555486E+003	1.2431180E+000	-2.7039801E+002
3	0	1.024931019542855E+003	1.2427950E+000	-2.7038742E+002
3	0	1.025431019530224E+003	1.2424493E+000	-2.7035559E+002
3	0	1.025931019517593E+003	1.2420427E+000	-2.7040155E+002
3	0	1.026431019504962E+003	1.2415713E+000	-2.7039093E+002
3	0	1.026931019492331E+003	1.2411546E+000	-2.7036267E+002
3	0	1.027431019479700E+003	1.2407926E+000	-2.7036618E+002
3	0	1.027931019467069E+003	1.2404373E+000	-2.7039447E+002
3	0	1.028431019454438E+003	1.2400758E+000	-2.7037326E+002
3	0	1.028931019441807E+003	1.2397223E+000	-2.7035913E+002
3	0	1.029431019429176E+003	1.2393377E+000	-2.7037677E+002
3	0	1.029455619428554E+003	1.2391179E+000	-2.7038385E+002