EC-Lab ASCII FILE
Nb header lines : 55                          

Open Circuit Voltage

Run on channel : 1 (SN 81504)
User : 
CE vs. WE compliance from -10 V to 10 V
Electrode connection : standard
Potential control : Ewe
Ewe ctrl range : min = -2.50 V, max = 2.50 V
Safety Limits :
	Do not start on E overload
Acquisition started on : 05/07/2026 22:17:50.137
Loaded Setting File :  C:\PEM-WE_measurements\2026\372_IV_IV IrOx, 5 min Pt, 30 min C, etched cathode\new station\Loopeis new\1,46 V different time gaps open cell\Loopeis 1,46V_120s_5_PEIS from 65Hz to 10Hz.mps
Saved on :
	File : L_25_Loopeis 1,46V_120s_5_PEIS from 65Hz to 10Hz_20_OCV_C01.mpr
	Directory : C:\PEM-WE_measurements\2026\372_IV_IV IrOx, 5 min Pt, 30 min C, etched cathode\new station\Loopeis new\1,46 V different time gaps open cell\
	Host : 192.168.0.2
Device : SP-150e (SN .005491)
Address : 192.168.0.91
EC-LAB for windows v11.71 (software)
Internet server v28.00 (firmware)
Command interpretor v14.01 (firmware)
Electrode material : 
Initial state : 
Electrolyte : 
Comments : 
Current amplifier : SP-150eB-20A
Electrode surface area : 0.001 cm²
Characteristic mass : 0.001 g
Equivalent Weight : 0.000 g/eq.
Density : 0.000 g/cm3
Volume (V) : 0.001 cm³
Record Analogic IN 1
Text export
   Mode : Standard
   Time format : Elapsed
Cycle Definition : Charge/Discharge alternance
External device configuration :
   device type : Temperature Probe
   device name : Other
   Analog IN 1 : 
      unit : T/Â°C
      max : 100.000 at 2.000 V
      min : 0.000 at 1.460 V
tR (h:m:s)          0:02:0.0000         
dER/dt (mV/h)       1.0                 
record              <Ewe>               
dER (mV)            10.00               
dtR (s)             0.5000              
E range min (V)     -2.500              
E range max (V)     2.500               

mode	error	time/s	<Ewe/V>	Analog IN 1/V	
3	0	1.599841581001965E+003	1.2362201E+000	-2.7037677E+002
3	0	1.600341580989334E+003	1.2082826E+000	-2.7039093E+002
3	0	1.600841580976703E+003	9.9714929E-001	-2.7036972E+002
3	0	1.601341580964072E+003	5.0607342E-001	-2.7038385E+002
3	0	1.601841580951441E+003	3.5481784E-001	-2.7036267E+002
3	0	1.602341580938810E+003	3.3524904E-001	-2.7040155E+002
3	0	1.602841580926179E+003	3.2679600E-001	-2.7037326E+002
3	0	1.603341580913548E+003	3.2004273E-001	-2.7036972E+002
3	0	1.603841580900917E+003	3.1490123E-001	-2.7037677E+002
3	0	1.604341580888286E+003	3.1101695E-001	-2.7036618E+002
3	0	1.604841580875654E+003	3.0801859E-001	-2.7040506E+002
3	0	1.605341580863023E+003	3.0562496E-001	-2.7039093E+002
3	0	1.605841580850392E+003	3.0365208E-001	-2.7038742E+002
3	0	1.606341580837761E+003	3.0199668E-001	-2.7037326E+002
3	0	1.606841580825130E+003	3.0056328E-001	-2.7040506E+002
3	0	1.607341580812499E+003	2.9929048E-001	-2.7037677E+002
3	0	1.607841580799868E+003	2.9813948E-001	-2.7036972E+002
3	0	1.608341580787237E+003	2.9709905E-001	-2.7038385E+002
3	0	1.608841580774606E+003	2.9617622E-001	-2.7038031E+002
3	0	1.609341580761975E+003	2.9532638E-001	-2.7038031E+002
3	0	1.609841580749344E+003	2.9451814E-001	-2.7038385E+002
3	0	1.610341580736713E+003	2.9375786E-001	-2.7036267E+002
3	0	1.610841580724082E+003	2.9303801E-001	-2.7035913E+002
3	0	1.611341580711451E+003	2.9231027E-001	-2.7039093E+002
3	0	1.611841580698820E+003	2.9160044E-001	-2.7036618E+002
3	0	1.612341580686189E+003	2.9091677E-001	-2.7037326E+002
3	0	1.612841580673557E+003	2.9028684E-001	-2.7037326E+002
3	0	1.613341580660926E+003	2.8967643E-001	-2.7038742E+002
3	0	1.613841580648295E+003	2.8907529E-001	-2.7038385E+002
3	0	1.614341580635664E+003	2.8849006E-001	-2.7038385E+002
3	0	1.614841580623033E+003	2.8790697E-001	-2.7037677E+002
3	0	1.615341580610402E+003	2.8731263E-001	-2.7038031E+002
3	0	1.615841580597771E+003	2.8670156E-001	-2.7041568E+002
3	0	1.616341580585140E+003	2.8611022E-001	-2.7036972E+002
3	0	1.616841580572509E+003	2.8556317E-001	-2.7037326E+002
3	0	1.617341580559878E+003	2.8502586E-001	-2.7038742E+002
3	0	1.617841580547247E+003	2.8449211E-001	-2.7038742E+002
3	0	1.618341580534616E+003	2.8396574E-001	-2.7039801E+002
3	0	1.618841580521985E+003	2.8343713E-001	-2.7038031E+002
3	0	1.619341580509354E+003	2.8290376E-001	-2.7038031E+002
3	0	1.619841580496723E+003	2.8235263E-001	-2.7036972E+002
3	0	1.620341580484092E+003	2.8182647E-001	-2.7039447E+002
3	0	1.620841580471460E+003	2.8133160E-001	-2.7037677E+002
3	0	1.621341580458829E+003	2.8084123E-001	-2.7039093E+002
3	0	1.621841580446198E+003	2.8034490E-001	-2.7037677E+002
3	0	1.622341580433567E+003	2.7985442E-001	-2.7039447E+002
3	0	1.622841580420936E+003	2.7936462E-001	-2.7034497E+002
3	0	1.623341580408305E+003	2.7887222E-001	-2.7037677E+002
3	0	1.623841580395674E+003	2.7836168E-001	-2.7036267E+002
3	0	1.624341580383043E+003	2.7786171E-001	-2.7036618E+002
3	0	1.624841580370412E+003	2.7740210E-001	-2.7038385E+002
3	0	1.625341580357781E+003	2.7695268E-001	-2.7037326E+002
3	0	1.625841580345150E+003	2.7649593E-001	-2.7034851E+002
3	0	1.626341580332519E+003	2.7604562E-001	-2.7037326E+002
3	0	1.626841580319888E+003	2.7559555E-001	-2.7037326E+002
3	0	1.627341580307257E+003	2.7512494E-001	-2.7038031E+002
3	0	1.627841580294626E+003	2.7464452E-001	-2.7035913E+002
3	0	1.628341580281995E+003	2.7418539E-001	-2.7038742E+002
3	0	1.628841580269363E+003	2.7375764E-001	-2.7038742E+002
3	0	1.629341580256732E+003	2.7333695E-001	-2.7039093E+002
3	0	1.629841580244101E+003	2.7291057E-001	-2.7036618E+002
3	0	1.630341580231470E+003	2.7248904E-001	-2.7036267E+002
3	0	1.630841580218839E+003	2.7208036E-001	-2.7038031E+002
3	0	1.631341580206208E+003	2.7164969E-001	-2.7038742E+002
3	0	1.631841580193577E+003	2.7120543E-001	-2.7038742E+002
3	0	1.632341580180946E+003	2.7077559E-001	-2.7038031E+002
3	0	1.632841580168315E+003	2.7038863E-001	-2.7035913E+002
3	0	1.633341580155684E+003	2.7000055E-001	-2.7036267E+002
3	0	1.633841580143053E+003	2.6961896E-001	-2.7038742E+002
3	0	1.634341580130422E+003	2.6923534E-001	-2.7035559E+002
3	0	1.634841580117791E+003	2.6884592E-001	-2.7039801E+002
3	0	1.635341580105160E+003	2.6845053E-001	-2.7040155E+002
3	0	1.635841580092529E+003	2.6803762E-001	-2.7039093E+002
3	0	1.636341580079898E+003	2.6763874E-001	-2.7040155E+002
3	0	1.636841580067266E+003	2.6728463E-001	-2.7038031E+002
3	0	1.637341580054635E+003	2.6693964E-001	-2.7038031E+002
3	0	1.637841580042004E+003	2.6658303E-001	-2.7038385E+002
3	0	1.638341580029373E+003	2.6622531E-001	-2.7038031E+002
3	0	1.638841580016742E+003	2.6587501E-001	-2.7035559E+002
3	0	1.639341580004111E+003	2.6550242E-001	-2.7039801E+002
3	0	1.639841579991480E+003	2.6511601E-001	-2.7038031E+002
3	0	1.640341579978849E+003	2.6475266E-001	-2.7038742E+002
3	0	1.640841579966218E+003	2.6443094E-001	-2.7038742E+002
3	0	1.641341579953587E+003	2.6410976E-001	-2.7039093E+002
3	0	1.641841579940956E+003	2.6378694E-001	-2.7038385E+002
3	0	1.642341579928325E+003	2.6346225E-001	-2.7037677E+002
3	0	1.642841579915694E+003	2.6314151E-001	-2.7038385E+002
3	0	1.643341579903063E+003	2.6280579E-001	-2.7039093E+002
3	0	1.643841579890432E+003	2.6244485E-001	-2.7038385E+002
3	0	1.644341579877801E+003	2.6210490E-001	-2.7039093E+002
3	0	1.644841579865169E+003	2.6180542E-001	-2.7038385E+002
3	0	1.645341579852538E+003	2.6151183E-001	-2.7039093E+002
3	0	1.645841579839907E+003	2.6121527E-001	-2.7037326E+002
3	0	1.646341579827276E+003	2.6091284E-001	-2.7037677E+002
3	0	1.646841579814645E+003	2.6061624E-001	-2.7041568E+002
3	0	1.647341579802014E+003	2.6030526E-001	-2.7037677E+002
3	0	1.647841579789383E+003	2.5997502E-001	-2.7038031E+002
3	0	1.648341579776752E+003	2.5967252E-001	-2.7039093E+002
3	0	1.648841579764121E+003	2.5940344E-001	-2.7035913E+002
3	0	1.649341579751490E+003	2.5913724E-001	-2.7035559E+002
3	0	1.649841579738859E+003	2.5887126E-001	-2.7037677E+002
3	0	1.650341579726228E+003	2.5859874E-001	-2.7037326E+002
3	0	1.650841579713597E+003	2.5832111E-001	-2.7038385E+002
3	0	1.651341579700966E+003	2.5803217E-001	-2.7037677E+002
3	0	1.651841579688335E+003	2.5772721E-001	-2.7038031E+002
3	0	1.652341579675704E+003	2.5744146E-001	-2.7036972E+002
3	0	1.652841579663072E+003	2.5719202E-001	-2.7038031E+002
3	0	1.653341579650441E+003	2.5695050E-001	-2.7037677E+002
3	0	1.653841579637810E+003	2.5670516E-001	-2.7039447E+002
3	0	1.654341579625179E+003	2.5645778E-001	-2.7037677E+002
3	0	1.654841579612548E+003	2.5621539E-001	-2.7038742E+002
3	0	1.655341579599917E+003	2.5595313E-001	-2.7037677E+002
3	0	1.655841579587286E+003	2.5567150E-001	-2.7037677E+002
3	0	1.656341579574655E+003	2.5541666E-001	-2.7038742E+002
3	0	1.656841579562024E+003	2.5519615E-001	-2.7036972E+002
3	0	1.657341579549393E+003	2.5497568E-001	-2.7039447E+002
3	0	1.657841579536762E+003	2.5475115E-001	-2.7036267E+002
3	0	1.658341579524131E+003	2.5452656E-001	-2.7038031E+002
3	0	1.658841579511500E+003	2.5430417E-001	-2.7037677E+002
3	0	1.659341579498869E+003	2.5406474E-001	-2.7038385E+002
3	0	1.659841579486238E+003	2.5380874E-001	-2.7041214E+002
3	0	1.660341579473607E+003	2.5356334E-001	-2.7036972E+002
3	0	1.660841579460975E+003	2.5335726E-001	-2.7037677E+002
3	0	1.661341579448344E+003	2.5316218E-001	-2.7037326E+002
3	0	1.661841579435713E+003	2.5296038E-001	-2.7036618E+002
3	0	1.662341579423082E+003	2.5275624E-001	-2.7035913E+002
3	0	1.662841579410451E+003	2.5254399E-001	-2.7038031E+002
3	0	1.663341579397820E+003	2.5231844E-001	-2.7039801E+002
3	0	1.663841579385189E+003	2.5207460E-001	-2.7037326E+002
3	0	1.664341579372558E+003	2.5184992E-001	-2.7038385E+002
3	0	1.664841579359927E+003	2.5166446E-001	-2.7036972E+002
3	0	1.665341579347296E+003	2.5147992E-001	-2.7034143E+002
3	0	1.665841579334665E+003	2.5128740E-001	-2.7038742E+002
3	0	1.666341579322034E+003	2.5110766E-001	-2.7037677E+002
3	0	1.666841579309403E+003	2.5091320E-001	-2.7039447E+002
3	0	1.667341579296772E+003	2.5070873E-001	-2.7039093E+002
3	0	1.667841579284141E+003	2.5048527E-001	-2.7036972E+002
3	0	1.668341579271510E+003	2.5026923E-001	-2.7038385E+002
3	0	1.668841579258878E+003	2.5009984E-001	-2.7037326E+002
3	0	1.669341579246247E+003	2.4993324E-001	-2.7037326E+002
3	0	1.669841579233616E+003	2.4975730E-001	-2.7036972E+002
3	0	1.670341579220985E+003	2.4958290E-001	-2.7038742E+002
3	0	1.670841579208354E+003	2.4940643E-001	-2.7038031E+002
3	0	1.671341579195723E+003	2.4921441E-001	-2.7036267E+002
3	0	1.671841579183092E+003	2.4899776E-001	-2.7040155E+002
3	0	1.672341579170461E+003	2.4880038E-001	-2.7038742E+002
3	0	1.672841579157830E+003	2.4864800E-001	-2.7035205E+002
3	0	1.673341579145199E+003	2.4848929E-001	-2.7040155E+002
3	0	1.673841579132568E+003	2.4833246E-001	-2.7037677E+002
3	0	1.674341579119937E+003	2.4817646E-001	-2.7040155E+002
3	0	1.674841579107306E+003	2.4802125E-001	-2.7038031E+002
3	0	1.675341579094675E+003	2.4784800E-001	-2.7036972E+002
3	0	1.675841579082044E+003	2.4765165E-001	-2.7036972E+002
3	0	1.676341579069413E+003	2.4747023E-001	-2.7038742E+002
3	0	1.676841579056781E+003	2.4733585E-001	-2.7038031E+002
3	0	1.677341579044150E+003	2.4719115E-001	-2.7035913E+002
3	0	1.677841579031519E+003	2.4704805E-001	-2.7036618E+002
3	0	1.678341579018888E+003	2.4690336E-001	-2.7038031E+002
3	0	1.678841579006257E+003	2.4675639E-001	-2.7037326E+002
3	0	1.679341578993626E+003	2.4659830E-001	-2.7037326E+002
3	0	1.679841578980995E+003	2.4641524E-001	-2.7036267E+002
3	0	1.680341578968364E+003	2.4624602E-001	-2.7039093E+002
3	0	1.680841578955733E+003	2.4611209E-001	-2.7038385E+002
3	0	1.681341578943102E+003	2.4598475E-001	-2.7038742E+002
3	0	1.681841578930471E+003	2.4585143E-001	-2.7036618E+002
3	0	1.682341578917840E+003	2.4571690E-001	-2.7038742E+002
3	0	1.682841578905209E+003	2.4558578E-001	-2.7040506E+002
3	0	1.683341578892578E+003	2.4543400E-001	-2.7039801E+002
3	0	1.683841578879947E+003	2.4525809E-001	-2.7037677E+002
3	0	1.684341578867316E+003	2.4509376E-001	-2.7038742E+002
3	0	1.684841578854684E+003	2.4497572E-001	-2.7038385E+002
3	0	1.685341578842053E+003	2.4485953E-001	-2.7036972E+002
3	0	1.685841578829422E+003	2.4473849E-001	-2.7037326E+002
3	0	1.686341578816791E+003	2.4461068E-001	-2.7039801E+002
3	0	1.686841578804160E+003	2.4448094E-001	-2.7038742E+002
3	0	1.687341578791529E+003	2.4433248E-001	-2.7036267E+002
3	0	1.687841578778898E+003	2.4415706E-001	-2.7036972E+002
3	0	1.688341578766267E+003	2.4400461E-001	-2.7038031E+002
3	0	1.688841578753636E+003	2.4388584E-001	-2.7037677E+002
3	0	1.689341578741005E+003	2.4376620E-001	-2.7039093E+002
3	0	1.689841578728374E+003	2.4364400E-001	-2.7037677E+002
3	0	1.690341578715743E+003	2.4351671E-001	-2.7037326E+002
3	0	1.690841578703112E+003	2.4339129E-001	-2.7038742E+002
3	0	1.691341578690481E+003	2.4325648E-001	-2.7038385E+002
3	0	1.691841578677850E+003	2.4308954E-001	-2.7038385E+002
3	0	1.692341578665219E+003	2.4294633E-001	-2.7039093E+002
3	0	1.692841578652587E+003	2.4284369E-001	-2.7036267E+002
3	0	1.693341578639956E+003	2.4274015E-001	-2.7036972E+002
3	0	1.693841578627325E+003	2.4262816E-001	-2.7038385E+002
3	0	1.694341578614694E+003	2.4251510E-001	-2.7035913E+002
3	0	1.694841578602063E+003	2.4239884E-001	-2.7034497E+002
3	0	1.695341578589432E+003	2.4226774E-001	-2.7037677E+002
3	0	1.695841578576801E+003	2.4211593E-001	-2.7038031E+002
3	0	1.696341578564170E+003	2.4197823E-001	-2.7041568E+002
3	0	1.696841578551539E+003	2.4188827E-001	-2.7036267E+002
3	0	1.697341578538908E+003	2.4179906E-001	-2.7039801E+002
3	0	1.697841578526277E+003	2.4169506E-001	-2.7035913E+002
3	0	1.698341578513646E+003	2.4159200E-001	-2.7035913E+002
3	0	1.698841578501015E+003	2.4148898E-001	-2.7038742E+002
3	0	1.699341578488384E+003	2.4136654E-001	-2.7039093E+002
3	0	1.699841578475753E+003	2.4121788E-001	-2.7036972E+002
3	0	1.700341578463122E+003	2.4108605E-001	-2.7037326E+002
3	0	1.700841578450490E+003	2.4100295E-001	-2.7037326E+002
3	0	1.701341578437859E+003	2.4091645E-001	-2.7035913E+002
3	0	1.701841578425228E+003	2.4082707E-001	-2.7037677E+002
3	0	1.702341578412597E+003	2.4073663E-001	-2.7040506E+002
3	0	1.702841578399966E+003	2.4063997E-001	-2.7036618E+002
3	0	1.703341578387335E+003	2.4052691E-001	-2.7039447E+002
3	0	1.703841578374704E+003	2.4039154E-001	-2.7036267E+002
3	0	1.704341578362073E+003	2.4027127E-001	-2.7036972E+002
3	0	1.704841578349442E+003	2.4019566E-001	-2.7036267E+002
3	0	1.705341578336811E+003	2.4011478E-001	-2.7039093E+002
3	0	1.705841578324180E+003	2.4002735E-001	-2.7037326E+002
3	0	1.706341578311549E+003	2.3993653E-001	-2.7038031E+002
3	0	1.706841578298918E+003	2.3984566E-001	-2.7039447E+002
3	0	1.707341578286287E+003	2.3973602E-001	-2.7038385E+002
3	0	1.707841578273656E+003	2.3960434E-001	-2.7038031E+002
3	0	1.708341578261025E+003	2.3948668E-001	-2.7035913E+002
3	0	1.708841578248393E+003	2.3940453E-001	-2.7038031E+002
3	0	1.709341578235762E+003	2.3932752E-001	-2.7039093E+002
3	0	1.709841578223131E+003	2.3923653E-001	-2.7039801E+002
3	0	1.710341578210500E+003	2.3915282E-001	-2.7038031E+002
3	0	1.710841578197869E+003	2.3906612E-001	-2.7039447E+002
3	0	1.711341578185238E+003	2.3895846E-001	-2.7038742E+002
3	0	1.711841578172607E+003	2.3882796E-001	-2.7038031E+002
3	0	1.712341578159976E+003	2.3870744E-001	-2.7035559E+002
3	0	1.712841578147345E+003	2.3862828E-001	-2.7039093E+002
3	0	1.713341578134714E+003	2.3855628E-001	-2.7036972E+002
3	0	1.713841578122083E+003	2.3847374E-001	-2.7036972E+002
3	0	1.714341578109452E+003	2.3839660E-001	-2.7040860E+002
3	0	1.714841578096821E+003	2.3831332E-001	-2.7039447E+002
3	0	1.715341578084190E+003	2.3821212E-001	-2.7037677E+002
3	0	1.715841578071559E+003	2.3809254E-001	-2.7037326E+002
3	0	1.716341578058928E+003	2.3798718E-001	-2.7037326E+002
3	0	1.716841578046296E+003	2.3791556E-001	-2.7039093E+002
3	0	1.717341578033665E+003	2.3785470E-001	-2.7038031E+002
3	0	1.717841578021034E+003	2.3777474E-001	-2.7035913E+002
3	0	1.718341578008403E+003	2.3770221E-001	-2.7038031E+002
3	0	1.718841577995772E+003	2.3762131E-001	-2.7040155E+002
3	0	1.719341577983141E+003	2.3752457E-001	-2.7036972E+002
3	0	1.719366177982520E+003	2.3746926E-001	-2.7040860E+002