EC-Lab ASCII FILE
Nb header lines : 48                          

Open Circuit Voltage

Run on channel : 1 (SN 81504)
User : 
CE vs. WE compliance from -10 V to 10 V
Electrode connection : standard
Potential control : Ewe
Ewe ctrl range : min = -2.50 V, max = 2.50 V
Safety Limits :
	Do not start on E overload
Acquisition started on : 05/10/2026 03:53:31.165
Loaded Setting File :  C:\PEM-WE_measurements\2026\372_IV_IV IrOx, 5 min Pt, 30 min C, etched cathode\new station\Loopeis new\1,46 V different time gaps closed cell\Loopeis 1,46V_90s_2_PEIS from 65kHz to 10kHz.mps
Saved on :
	File : L_17_Loopeis 1,46V_90s_2_PEIS from 65kHz to 10kHz_16_OCV_C01.mpr
	Directory : C:\PEM-WE_measurements\2026\372_IV_IV IrOx, 5 min Pt, 30 min C, etched cathode\new station\Loopeis new\1,46 V different time gaps closed cell\
	Host : 192.168.0.2
Device : SP-150e (SN .005491)
Address : 192.168.0.91
EC-LAB for windows v11.71 (software)
Internet server v28.00 (firmware)
Command interpretor v14.01 (firmware)
Electrode material : 
Initial state : 
Electrolyte : 
Comments : 
Current amplifier : SP-150eB-20A
Electrode surface area : 0.001 cm²
Characteristic mass : 0.001 g
Equivalent Weight : 0.000 g/eq.
Density : 0.000 g/cm3
Volume (V) : 0.001 cm³
Record Analogic IN 1
Text export
   Mode : Standard
   Time format : Elapsed
Cycle Definition : Charge/Discharge alternance
tR (h:m:s)          0:01:30.0000        
dER/dt (mV/h)       1.0                 
record              <Ewe>               
dER (mV)            10.00               
dtR (s)             0.5000              
E range min (V)     -2.500              
E range max (V)     2.500               

mode	error	time/s	<Ewe/V>	Analog IN 1/V	
3	0	9.925433881736535E+002	1.1418028E+000	-1.6790499E-004
3	0	9.930433881610224E+002	1.2613758E+000	-1.2973390E-004
3	0	9.935433881483914E+002	1.2634071E+000	-5.3391734E-005
3	0	9.940433881357603E+002	1.2636926E+000	3.8648941E-006
3	0	9.945433881231293E+002	1.2631209E+000	-7.2477276E-005
3	0	9.950433881104982E+002	1.2619168E+000	-1.4881945E-004
3	0	9.955433880978671E+002	1.2600870E+000	-7.2477276E-005
3	0	9.960433880852361E+002	1.2575210E+000	2.2950437E-005
3	0	9.965433880726050E+002	1.2539605E+000	-3.4306191E-005
3	0	9.970433880599740E+002	1.2487994E+000	-1.2973390E-004
3	0	9.975433880473429E+002	1.2411747E+000	2.2950437E-005
3	0	9.980433880347118E+002	1.2299598E+000	-7.2477276E-005
3	0	9.985433880220808E+002	1.2140265E+000	-7.2477276E-005
3	0	9.990433880094497E+002	1.1912209E+000	4.2035979E-005
3	0	9.995433879968186E+002	1.1576746E+000	-7.2477276E-005
3	0	1.000043387984188E+003	1.1073800E+000	-9.1562819E-005
3	0	1.000543387971557E+003	1.0326738E+000	-3.4306191E-005
3	0	1.001043387958925E+003	9.2668939E-001	4.2035979E-005
3	0	1.001543387946294E+003	8.0308437E-001	3.8648941E-006
3	0	1.002043387933663E+003	7.1187150E-001	-1.2973390E-004
3	0	1.002543387921032E+003	6.7928952E-001	-1.1064836E-004
3	0	1.003043387908401E+003	6.6875046E-001	-1.5220648E-005
3	0	1.003543387895770E+003	6.6868883E-001	3.8648941E-006
3	0	1.004043387883139E+003	6.8485075E-001	2.2950437E-005
3	0	1.004543387870508E+003	7.0611346E-001	-1.1064836E-004
3	0	1.005043387857877E+003	7.4354231E-001	-1.6790499E-004
3	0	1.005543387845246E+003	7.8372633E-001	-9.1562819E-005
3	0	1.006043387832615E+003	8.2299739E-001	4.2035979E-005
3	0	1.006543387819984E+003	8.5973305E-001	-3.4306191E-005
3	0	1.007043387807353E+003	8.9204389E-001	-9.1562819E-005
3	0	1.007543387794722E+003	9.1873997E-001	-1.6790499E-004
3	0	1.008043387782091E+003	9.3861008E-001	-3.4306191E-005
3	0	1.008543387769460E+003	9.5152819E-001	2.2950437E-005
3	0	1.009043387756828E+003	9.5859671E-001	-1.6790499E-004
3	0	1.009543387744197E+003	9.6077639E-001	-9.1562819E-005
3	0	1.010043387731566E+003	9.5912337E-001	-5.3391734E-005
3	0	1.010543387718935E+003	9.5512253E-001	2.2950437E-005
3	0	1.011043387706304E+003	9.5096391E-001	-9.1562819E-005
3	0	1.011543387693673E+003	9.4859809E-001	-3.4306191E-005
3	0	1.012043387681042E+003	9.4720817E-001	3.8648941E-006
3	0	1.012543387668411E+003	9.4444621E-001	-1.4881945E-004
3	0	1.013043387655780E+003	9.3940210E-001	-2.0607607E-004
3	0	1.013543387643149E+003	9.3303376E-001	3.8648941E-006
3	0	1.014043387630518E+003	9.2655563E-001	3.8648941E-006
3	0	1.014543387617887E+003	9.2079329E-001	-1.5220648E-005
3	0	1.015043387605256E+003	9.1630816E-001	-3.4306191E-005
3	0	1.015543387592625E+003	9.1296613E-001	-1.1064836E-004
3	0	1.016043387579994E+003	9.1060561E-001	3.8648941E-006
3	0	1.016543387567363E+003	9.0931422E-001	4.2035979E-005
3	0	1.017043387554731E+003	9.0913951E-001	-5.3391734E-005
3	0	1.017543387542100E+003	9.0998346E-001	-1.5220648E-005
3	0	1.018043387529469E+003	9.1213363E-001	3.8648941E-006
3	0	1.018543387516838E+003	9.1617316E-001	2.2950437E-005
3	0	1.019043387504207E+003	9.2188990E-001	-1.1064836E-004
3	0	1.019543387491576E+003	9.2831206E-001	-1.4881945E-004
3	0	1.020043387478945E+003	9.3463433E-001	-7.2477276E-005
3	0	1.020543387466314E+003	9.4036019E-001	-5.3391734E-005
3	0	1.021043387453683E+003	9.4526440E-001	-1.5220648E-005
3	0	1.021543387441052E+003	9.4917095E-001	4.2035979E-005
3	0	1.022043387428421E+003	9.5233130E-001	-7.2477276E-005
3	0	1.022543387415790E+003	9.5543283E-001	-3.4306191E-005
3	0	1.023043387403159E+003	9.5855969E-001	2.2950437E-005
3	0	1.023543387390528E+003	9.6112591E-001	-1.1064836E-004
3	0	1.024043387377897E+003	9.6272463E-001	-7.2477276E-005
3	0	1.024543387365266E+003	9.6319985E-001	-5.3391734E-005
3	0	1.025043387352634E+003	9.6253073E-001	-5.3391734E-005
3	0	1.025543387340003E+003	9.6073967E-001	-9.1562819E-005
3	0	1.026043387327372E+003	9.5820796E-001	3.8648941E-006
3	0	1.026543387314741E+003	9.5561332E-001	-1.5220648E-005
3	0	1.027043387302110E+003	9.5309204E-001	-1.5220648E-005
3	0	1.027543387289479E+003	9.5016623E-001	-1.5220648E-005
3	0	1.028043387276848E+003	9.4650179E-001	-9.1562819E-005
3	0	1.028543387264217E+003	9.4188356E-001	-1.5220648E-005
3	0	1.029043387251586E+003	9.3613464E-001	-1.5220648E-005
3	0	1.029543387238955E+003	9.2920345E-001	-3.4306191E-005
3	0	1.030043387226324E+003	9.2148781E-001	-3.4306191E-005
3	0	1.030543387213693E+003	9.1383666E-001	6.1121522E-005
3	0	1.031043387201062E+003	9.0645325E-001	-1.1064836E-004
3	0	1.031543387188431E+003	8.9882785E-001	1.1837815E-004
3	0	1.032043387175800E+003	8.9051890E-001	-1.2973390E-004
3	0	1.032543387163169E+003	8.8140541E-001	-1.2973390E-004
3	0	1.033043387150537E+003	8.7157154E-001	-7.2477276E-005
3	0	1.033543387137906E+003	8.6132467E-001	-7.2477276E-005
3	0	1.034043387125275E+003	8.5130376E-001	2.2950437E-005
3	0	1.034543387112644E+003	8.4267658E-001	-1.1064836E-004
3	0	1.035043387100013E+003	8.3610189E-001	9.9292607E-005
3	0	1.035543387087382E+003	8.3128959E-001	-7.2477276E-005
3	0	1.036043387074751E+003	8.2802534E-001	-9.1562819E-005
3	0	1.036543387062120E+003	8.2634377E-001	-9.1562819E-005
3	0	1.037043387049489E+003	8.2617825E-001	-1.5220648E-005
3	0	1.037543387036858E+003	8.2737297E-001	-1.6790499E-004
3	0	1.038043387024227E+003	8.3004773E-001	-1.5220648E-005
3	0	1.038543387011596E+003	8.3455807E-001	-1.1064836E-004
3	0	1.039043386998965E+003	8.4067720E-001	-3.4306191E-005
3	0	1.039543386986334E+003	8.4738034E-001	-5.3391734E-005
3	0	1.040043386973703E+003	8.5386306E-001	-1.5220648E-005
3	0	1.040543386961072E+003	8.5959440E-001	-1.8699054E-004
3	0	1.041043386948440E+003	8.6430466E-001	-5.3391734E-005
3	0	1.041543386935809E+003	8.6790055E-001	3.8648941E-006
3	0	1.042043386923178E+003	8.7079370E-001	2.2950437E-005
3	0	1.042543386910547E+003	8.7366086E-001	-5.3391734E-005
3	0	1.043043386897916E+003	8.7653786E-001	1.1837815E-004
3	0	1.043543386885285E+003	8.7887937E-001	-7.2477276E-005
3	0	1.044043386872654E+003	8.8022238E-001	-9.1562819E-005
3	0	1.044543386860023E+003	8.8033372E-001	-3.4306191E-005
3	0	1.045043386847392E+003	8.7915397E-001	-3.4306191E-005
3	0	1.045543386834761E+003	8.7663943E-001	-7.2477276E-005
3	0	1.046043386822130E+003	8.7325162E-001	-1.5220648E-005
3	0	1.046543386809499E+003	8.6974603E-001	-1.2973390E-004
3	0	1.047043386796868E+003	8.6629975E-001	-1.4881945E-004
3	0	1.047543386784237E+003	8.6237496E-001	-3.4306191E-005
3	0	1.048043386771606E+003	8.5741353E-001	2.2950437E-005
3	0	1.048543386758975E+003	8.5097057E-001	2.2950437E-005
3	0	1.049043386746343E+003	8.4292769E-001	2.2950437E-005
3	0	1.049543386733712E+003	8.3320433E-001	-1.5220648E-005
3	0	1.050043386721081E+003	8.2229435E-001	-3.4306191E-005
3	0	1.050543386708450E+003	8.1118774E-001	-5.3391734E-005
3	0	1.051043386695819E+003	8.0037606E-001	-1.5220648E-005
3	0	1.051543386683188E+003	7.8951210E-001	-1.1064836E-004
3	0	1.052043386670557E+003	7.7820569E-001	-3.4306191E-005
3	0	1.052543386657926E+003	7.6636457E-001	2.2950437E-005
3	0	1.053043386645295E+003	7.5412083E-001	-1.5220648E-005
3	0	1.053543386632664E+003	7.4181187E-001	-1.6790499E-004
3	0	1.054043386620033E+003	7.3039812E-001	4.2035979E-005
3	0	1.054543386607402E+003	7.2141683E-001	-1.2973390E-004
3	0	1.055043386594771E+003	7.1541888E-001	-7.2477276E-005
3	0	1.055543386582140E+003	7.1166021E-001	-1.1064836E-004
3	0	1.056043386569509E+003	7.0972019E-001	-9.1562819E-005
3	0	1.056543386556878E+003	7.0948678E-001	-1.1064836E-004
3	0	1.057043386544246E+003	7.1090180E-001	2.2950437E-005
3	0	1.057543386531615E+003	7.1360028E-001	-1.4881945E-004
3	0	1.058043386518984E+003	7.1751642E-001	3.8648941E-006
3	0	1.058543386506353E+003	7.2347504E-001	-5.3391734E-005
3	0	1.059043386493722E+003	7.3148197E-001	4.2035979E-005
3	0	1.059543386481091E+003	7.4029660E-001	-5.3391734E-005
3	0	1.060043386468460E+003	7.4896282E-001	1.1837815E-004
3	0	1.060543386455829E+003	7.5689501E-001	-1.1064836E-004
3	0	1.061043386443198E+003	7.6373833E-001	-5.3391734E-005
3	0	1.061543386430567E+003	7.6924837E-001	-7.2477276E-005
3	0	1.062043386417936E+003	7.7367568E-001	3.8648941E-006
3	0	1.062543386405305E+003	7.7788728E-001	-5.3391734E-005
3	0	1.063043386392674E+003	7.8216082E-001	3.8648941E-006
3	0	1.063543386380043E+003	7.8571039E-001	-1.1064836E-004
3	0	1.064043386367412E+003	7.8797871E-001	-7.2477276E-005
3	0	1.064543386354781E+003	7.8867996E-001	-3.4306191E-005
3	0	1.065043386342149E+003	7.8749132E-001	-7.2477276E-005
3	0	1.065543386329518E+003	7.8431422E-001	3.8648941E-006
3	0	1.066043386316887E+003	7.7980208E-001	-1.2973390E-004
3	0	1.066543386304256E+003	7.7519751E-001	6.1121522E-005
3	0	1.067043386291625E+003	7.7084804E-001	-5.3391734E-005
3	0	1.067543386278994E+003	7.6600266E-001	-1.1064836E-004
3	0	1.068043386266363E+003	7.6014692E-001	-1.4881945E-004
3	0	1.068543386253732E+003	7.5312912E-001	-5.3391734E-005
3	0	1.069043386241101E+003	7.4475110E-001	-5.3391734E-005
3	0	1.069543386228470E+003	7.3495400E-001	-1.2973390E-004
3	0	1.070043386215839E+003	7.2433776E-001	6.1121522E-005
3	0	1.070543386203208E+003	7.1445739E-001	-1.1064836E-004
3	0	1.071043386190577E+003	7.0594060E-001	-3.4306191E-005
3	0	1.071543386177946E+003	6.9792122E-001	-5.3391734E-005
3	0	1.072043386165315E+003	6.8996376E-001	-9.1562819E-005
3	0	1.072543386152684E+003	6.8193203E-001	3.8648941E-006
3	0	1.073043386140052E+003	6.7372411E-001	-1.4881945E-004
3	0	1.073543386127421E+003	6.6533321E-001	-7.2477276E-005
3	0	1.074043386114790E+003	6.5737760E-001	-1.2973390E-004
3	0	1.074543386102159E+003	6.5129852E-001	-1.5220648E-005
3	0	1.075043386089528E+003	6.4773935E-001	1.5654923E-004
3	0	1.075543386076897E+003	6.4576238E-001	8.0207064E-005
3	0	1.076043386064266E+003	6.4503884E-001	-3.4306191E-005
3	0	1.076543386051635E+003	6.4534438E-001	3.8648941E-006
3	0	1.077043386039004E+003	6.4665496E-001	-1.4881945E-004
3	0	1.077543386026373E+003	6.4847493E-001	-1.4881945E-004
3	0	1.078043386013742E+003	6.5094900E-001	-1.5220648E-005
3	0	1.078543386001111E+003	6.5503186E-001	-3.4306191E-005
3	0	1.079043385988480E+003	6.6084999E-001	-5.3391734E-005
3	0	1.079543385975849E+003	6.6703236E-001	-1.1064836E-004
3	0	1.080043385963218E+003	6.7292577E-001	-3.4306191E-005
3	0	1.080543385950587E+003	6.7815632E-001	-1.4881945E-004
3	0	1.081043385937955E+003	6.8234682E-001	6.1121522E-005
3	0	1.081543385925324E+003	6.8501341E-001	-1.5220648E-005
3	0	1.082043385912693E+003	6.8650019E-001	-5.3391734E-005
3	0	1.082077385911834E+003	6.8720353E-001	-2.0607607E-004