EC-Lab ASCII FILE
Nb header lines : 55                          

Open Circuit Voltage

Run on channel : 1 (SN 81504)
User : 
CE vs. WE compliance from -10 V to 10 V
Electrode connection : standard
Potential control : Ewe
Ewe ctrl range : min = -2.50 V, max = 2.50 V
Safety Limits :
	Do not start on E overload
Acquisition started on : 05/07/2026 21:45:35.104
Loaded Setting File :  C:\PEM-WE_measurements\2026\372_IV_IV IrOx, 5 min Pt, 30 min C, etched cathode\new station\Loopeis new\1,46 V different time gaps open cell\Loopeis 1,46V_120s_4_PEIS from 650Hz to 100Hz.mps
Saved on :
	File : L_24_Loopeis 1,46V_120s_4_PEIS from 650Hz to 100Hz_10_OCV_C01.mpr
	Directory : C:\PEM-WE_measurements\2026\372_IV_IV IrOx, 5 min Pt, 30 min C, etched cathode\new station\Loopeis new\1,46 V different time gaps open cell\
	Host : 192.168.0.2
Device : SP-150e (SN .005491)
Address : 192.168.0.91
EC-LAB for windows v11.71 (software)
Internet server v28.00 (firmware)
Command interpretor v14.01 (firmware)
Electrode material : 
Initial state : 
Electrolyte : 
Comments : 
Current amplifier : SP-150eB-20A
Electrode surface area : 0.001 cm²
Characteristic mass : 0.001 g
Equivalent Weight : 0.000 g/eq.
Density : 0.000 g/cm3
Volume (V) : 0.001 cm³
Record Analogic IN 1
Text export
   Mode : Standard
   Time format : Elapsed
Cycle Definition : Charge/Discharge alternance
External device configuration :
   device type : Temperature Probe
   device name : Other
   Analog IN 1 : 
      unit : T/Â°C
      max : 100.000 at 2.000 V
      min : 0.000 at 1.460 V
tR (h:m:s)          0:02:0.0000         
dER/dt (mV/h)       1.0                 
record              <Ewe>               
dER (mV)            10.00               
dtR (s)             0.5000              
E range min (V)     -2.500              
E range max (V)     2.500               

mode	error	time/s	<Ewe/V>	Analog IN 1/V	
3	0	7.054433887229970E+002	1.2277992E+000	-2.7040155E+002
3	0	7.059433887103660E+002	1.1859707E+000	-2.7038031E+002
3	0	7.064433886977349E+002	8.8374031E-001	-2.7039093E+002
3	0	7.069433886851039E+002	4.4788811E-001	-2.7036972E+002
3	0	7.074433886724728E+002	3.4665984E-001	-2.7038742E+002
3	0	7.079433886598417E+002	3.3286017E-001	-2.7036267E+002
3	0	7.084433886472107E+002	3.2489613E-001	-2.7039093E+002
3	0	7.089433886345796E+002	3.1855214E-001	-2.7038742E+002
3	0	7.094433886219485E+002	3.1370628E-001	-2.7036267E+002
3	0	7.099433886093175E+002	3.0999130E-001	-2.7038742E+002
3	0	7.104433885966864E+002	3.0706647E-001	-2.7040860E+002
3	0	7.109433885840554E+002	3.0468783E-001	-2.7037326E+002
3	0	7.114433885714243E+002	3.0271304E-001	-2.7039447E+002
3	0	7.119433885587932E+002	3.0103484E-001	-2.7036618E+002
3	0	7.124433885461622E+002	2.9961133E-001	-2.7036618E+002
3	0	7.129433885335311E+002	2.9835963E-001	-2.7036972E+002
3	0	7.134433885209000E+002	2.9723457E-001	-2.7040155E+002
3	0	7.139433885082690E+002	2.9621589E-001	-2.7035913E+002
3	0	7.144433884956379E+002	2.9527801E-001	-2.7034143E+002
3	0	7.149433884830069E+002	2.9439482E-001	-2.7037677E+002
3	0	7.154433884703758E+002	2.9355019E-001	-2.7037326E+002
3	0	7.159433884577447E+002	2.9275885E-001	-2.7035913E+002
3	0	7.164433884451137E+002	2.9203427E-001	-2.7037326E+002
3	0	7.169433884324826E+002	2.9133245E-001	-2.7038742E+002
3	0	7.174433884198515E+002	2.9065508E-001	-2.7037677E+002
3	0	7.179433884072205E+002	2.9000485E-001	-2.7037677E+002
3	0	7.184433883945894E+002	2.8936666E-001	-2.7035559E+002
3	0	7.189433883819584E+002	2.8873405E-001	-2.7038385E+002
3	0	7.194433883693273E+002	2.8809965E-001	-2.7036972E+002
3	0	7.199433883566962E+002	2.8747857E-001	-2.7039447E+002
3	0	7.204433883440652E+002	2.8690380E-001	-2.7037326E+002
3	0	7.209433883314341E+002	2.8633368E-001	-2.7035559E+002
3	0	7.214433883188030E+002	2.8577074E-001	-2.7038742E+002
3	0	7.219433883061720E+002	2.8522146E-001	-2.7036618E+002
3	0	7.224433882935409E+002	2.8467992E-001	-2.7035913E+002
3	0	7.229433882809099E+002	2.8413329E-001	-2.7035913E+002
3	0	7.234433882682788E+002	2.8356159E-001	-2.7039447E+002
3	0	7.239433882556477E+002	2.8301057E-001	-2.7036267E+002
3	0	7.244433882430167E+002	2.8250095E-001	-2.7037326E+002
3	0	7.249433882303856E+002	2.8199276E-001	-2.7038031E+002
3	0	7.254433882177545E+002	2.8148517E-001	-2.7036972E+002
3	0	7.259433882051235E+002	2.8098559E-001	-2.7038385E+002
3	0	7.264433881924924E+002	2.8049085E-001	-2.7040506E+002
3	0	7.269433881798614E+002	2.7997959E-001	-2.7036267E+002
3	0	7.274433881672303E+002	2.7946439E-001	-2.7039447E+002
3	0	7.279433881545992E+002	2.7896234E-001	-2.7037326E+002
3	0	7.284433881419682E+002	2.7849549E-001	-2.7036618E+002
3	0	7.289433881293371E+002	2.7802804E-001	-2.7035913E+002
3	0	7.294433881167060E+002	2.7756110E-001	-2.7036618E+002
3	0	7.299433881040750E+002	2.7710509E-001	-2.7037326E+002
3	0	7.304433880914439E+002	2.7665275E-001	-2.7038031E+002
3	0	7.309433880788129E+002	2.7618429E-001	-2.7038031E+002
3	0	7.314433880661818E+002	2.7570498E-001	-2.7035913E+002
3	0	7.319433880535507E+002	2.7524486E-001	-2.7035913E+002
3	0	7.324433880409197E+002	2.7481377E-001	-2.7036972E+002
3	0	7.329433880282886E+002	2.7439091E-001	-2.7038742E+002
3	0	7.334433880156575E+002	2.7396017E-001	-2.7039801E+002
3	0	7.339433880030265E+002	2.7353963E-001	-2.7037677E+002
3	0	7.344433879903954E+002	2.7312133E-001	-2.7040860E+002
3	0	7.349433879777644E+002	2.7268720E-001	-2.7038742E+002
3	0	7.354433879651333E+002	2.7225384E-001	-2.7039447E+002
3	0	7.359433879525022E+002	2.7183336E-001	-2.7038742E+002
3	0	7.364433879398712E+002	2.7143016E-001	-2.7037677E+002
3	0	7.369433879272401E+002	2.7102804E-001	-2.7039093E+002
3	0	7.374433879146090E+002	2.7063641E-001	-2.7038031E+002
3	0	7.379433879019780E+002	2.7023911E-001	-2.7037326E+002
3	0	7.384433878893469E+002	2.6985097E-001	-2.7038742E+002
3	0	7.389433878767159E+002	2.6945683E-001	-2.7034851E+002
3	0	7.394433878640848E+002	2.6904640E-001	-2.7038031E+002
3	0	7.399433878514537E+002	2.6864997E-001	-2.7036618E+002
3	0	7.404433878388227E+002	2.6828793E-001	-2.7037326E+002
3	0	7.409433878261916E+002	2.6791728E-001	-2.7038031E+002
3	0	7.414433878135605E+002	2.6754925E-001	-2.7037677E+002
3	0	7.419433878009295E+002	2.6719037E-001	-2.7038385E+002
3	0	7.424433877882984E+002	2.6683530E-001	-2.7039801E+002
3	0	7.429433877756674E+002	2.6646066E-001	-2.7037326E+002
3	0	7.434433877630363E+002	2.6607659E-001	-2.7039801E+002
3	0	7.439433877504052E+002	2.6571217E-001	-2.7035913E+002
3	0	7.444433877377742E+002	2.6537591E-001	-2.7035559E+002
3	0	7.449433877251431E+002	2.6503602E-001	-2.7036618E+002
3	0	7.454433877125120E+002	2.6470429E-001	-2.7036618E+002
3	0	7.459433876998810E+002	2.6438093E-001	-2.7038385E+002
3	0	7.464433876872499E+002	2.6405045E-001	-2.7040155E+002
3	0	7.469433876746189E+002	2.6371232E-001	-2.7040506E+002
3	0	7.474433876619878E+002	2.6335588E-001	-2.7035205E+002
3	0	7.479433876493567E+002	2.6301873E-001	-2.7041214E+002
3	0	7.484433876367257E+002	2.6271456E-001	-2.7039447E+002
3	0	7.489433876240946E+002	2.6240414E-001	-2.7039093E+002
3	0	7.494433876114636E+002	2.6209557E-001	-2.7036972E+002
3	0	7.499433875988325E+002	2.6179516E-001	-2.7039093E+002
3	0	7.504433875862014E+002	2.6149374E-001	-2.7040155E+002
3	0	7.509433875735704E+002	2.6118490E-001	-2.7036972E+002
3	0	7.514433875609393E+002	2.6085907E-001	-2.7038742E+002
3	0	7.519433875483082E+002	2.6054791E-001	-2.7039093E+002
3	0	7.524433875356772E+002	2.6027817E-001	-2.7035913E+002
3	0	7.529433875230461E+002	2.5999579E-001	-2.7036618E+002
3	0	7.534433875104151E+002	2.5972193E-001	-2.7035205E+002
3	0	7.539433874977840E+002	2.5945419E-001	-2.7036618E+002
3	0	7.544433874851529E+002	2.5918657E-001	-2.7039093E+002
3	0	7.549433874725219E+002	2.5889769E-001	-2.7037326E+002
3	0	7.554433874598908E+002	2.5859335E-001	-2.7037677E+002
3	0	7.559433874472597E+002	2.5830898E-001	-2.7033789E+002
3	0	7.564433874346287E+002	2.5806391E-001	-2.7037677E+002
3	0	7.569433874219976E+002	2.5780326E-001	-2.7039093E+002
3	0	7.574433874093666E+002	2.5754929E-001	-2.7039093E+002
3	0	7.579433873967355E+002	2.5729689E-001	-2.7035559E+002
3	0	7.584433873841044E+002	2.5704482E-001	-2.7040506E+002
3	0	7.589433873714734E+002	2.5678191E-001	-2.7038742E+002
3	0	7.594433873588423E+002	2.5650007E-001	-2.7038742E+002
3	0	7.599433873462112E+002	2.5624081E-001	-2.7036267E+002
3	0	7.604433873335802E+002	2.5601622E-001	-2.7038031E+002
3	0	7.609433873209491E+002	2.5578079E-001	-2.7038742E+002
3	0	7.614433873083181E+002	2.5555241E-001	-2.7038742E+002
3	0	7.619433872956870E+002	2.5532198E-001	-2.7038031E+002
3	0	7.624433872830559E+002	2.5509611E-001	-2.7038031E+002
3	0	7.629433872704249E+002	2.5485581E-001	-2.7038385E+002
3	0	7.634433872577938E+002	2.5459880E-001	-2.7040155E+002
3	0	7.639433872451627E+002	2.5435773E-001	-2.7035205E+002
3	0	7.644433872325317E+002	2.5415507E-001	-2.7035913E+002
3	0	7.649433872199006E+002	2.5393212E-001	-2.7038742E+002
3	0	7.654433872072696E+002	2.5372145E-001	-2.7037326E+002
3	0	7.659433871946385E+002	2.5351509E-001	-2.7038742E+002
3	0	7.664433871820074E+002	2.5329772E-001	-2.7037326E+002
3	0	7.669433871693764E+002	2.5307617E-001	-2.7036972E+002
3	0	7.674433871567453E+002	2.5283521E-001	-2.7036972E+002
3	0	7.679433871441142E+002	2.5260526E-001	-2.7038385E+002
3	0	7.684433871314832E+002	2.5241697E-001	-2.7038031E+002
3	0	7.689433871188521E+002	2.5221884E-001	-2.7039447E+002
3	0	7.694433871062211E+002	2.5202253E-001	-2.7038385E+002
3	0	7.699433870935900E+002	2.5183490E-001	-2.7037326E+002
3	0	7.704433870809589E+002	2.5164595E-001	-2.7039093E+002
3	0	7.709433870683279E+002	2.5143611E-001	-2.7037677E+002
3	0	7.714433870556968E+002	2.5121582E-001	-2.7036972E+002
3	0	7.719433870430657E+002	2.5100952E-001	-2.7037677E+002
3	0	7.724433870304347E+002	2.5083533E-001	-2.7038385E+002
3	0	7.729433870178036E+002	2.5065580E-001	-2.7035559E+002
3	0	7.734433870051726E+002	2.5047877E-001	-2.7040860E+002
3	0	7.739433869925415E+002	2.5030407E-001	-2.7040506E+002
3	0	7.744433869799104E+002	2.5013211E-001	-2.7037677E+002
3	0	7.749433869672794E+002	2.4993913E-001	-2.7039801E+002
3	0	7.754433869546483E+002	2.4973404E-001	-2.7038385E+002
3	0	7.759433869420172E+002	2.4953617E-001	-2.7038031E+002
3	0	7.764433869293862E+002	2.4938297E-001	-2.7038742E+002
3	0	7.769433869167551E+002	2.4922386E-001	-2.7038031E+002
3	0	7.774433869041241E+002	2.4905860E-001	-2.7038385E+002
3	0	7.779433868914930E+002	2.4889600E-001	-2.7038031E+002
3	0	7.784433868788619E+002	2.4873206E-001	-2.7036618E+002
3	0	7.789433868662309E+002	2.4854781E-001	-2.7037677E+002
3	0	7.794433868535998E+002	2.4834397E-001	-2.7036267E+002
3	0	7.799433868409687E+002	2.4815790E-001	-2.7036972E+002
3	0	7.804433868283377E+002	2.4801511E-001	-2.7038385E+002
3	0	7.809433868157066E+002	2.4785973E-001	-2.7036972E+002
3	0	7.814433868030756E+002	2.4770257E-001	-2.7038385E+002
3	0	7.819433867904445E+002	2.4754620E-001	-2.7038031E+002
3	0	7.824433867778134E+002	2.4738759E-001	-2.7033789E+002
3	0	7.829433867651824E+002	2.4721442E-001	-2.7039801E+002
3	0	7.834433867525513E+002	2.4702826E-001	-2.7038385E+002
3	0	7.839433867399202E+002	2.4686049E-001	-2.7036267E+002
3	0	7.844433867272892E+002	2.4673025E-001	-2.7035913E+002
3	0	7.849433867146581E+002	2.4658217E-001	-2.7038742E+002
3	0	7.854433867020271E+002	2.4644263E-001	-2.7039093E+002
3	0	7.859433866893960E+002	2.4629393E-001	-2.7039447E+002
3	0	7.864433866767649E+002	2.4614456E-001	-2.7037326E+002
3	0	7.869433866641339E+002	2.4598014E-001	-2.7037326E+002
3	0	7.874433866515028E+002	2.4580558E-001	-2.7037326E+002
3	0	7.879433866388717E+002	2.4564537E-001	-2.7037326E+002
3	0	7.884433866262407E+002	2.4552083E-001	-2.7038742E+002
3	0	7.889433866136096E+002	2.4538261E-001	-2.7037677E+002
3	0	7.894433866009786E+002	2.4525584E-001	-2.7038742E+002
3	0	7.899433865883475E+002	2.4511923E-001	-2.7039447E+002
3	0	7.904433865757164E+002	2.4498665E-001	-2.7036972E+002
3	0	7.909433865630854E+002	2.4483566E-001	-2.7039093E+002
3	0	7.914433865504543E+002	2.4466147E-001	-2.7036972E+002
3	0	7.919433865378232E+002	2.4451312E-001	-2.7034851E+002
3	0	7.924433865251922E+002	2.4439910E-001	-2.7038031E+002
3	0	7.929433865125611E+002	2.4427366E-001	-2.7038385E+002
3	0	7.934433864999301E+002	2.4415836E-001	-2.7037326E+002
3	0	7.939433864872990E+002	2.4403590E-001	-2.7037326E+002
3	0	7.944433864746679E+002	2.4391554E-001	-2.7037326E+002
3	0	7.949433864620369E+002	2.4377967E-001	-2.7038742E+002
3	0	7.954433864494058E+002	2.4362394E-001	-2.7036972E+002
3	0	7.959433864367747E+002	2.4348204E-001	-2.7040860E+002
3	0	7.964433864241437E+002	2.4337775E-001	-2.7039093E+002
3	0	7.969433864115126E+002	2.4326551E-001	-2.7039447E+002
3	0	7.974433863988816E+002	2.4316239E-001	-2.7037677E+002
3	0	7.979433863862505E+002	2.4305241E-001	-2.7036618E+002
3	0	7.984433863736194E+002	2.4294028E-001	-2.7042273E+002
3	0	7.989433863609884E+002	2.4280660E-001	-2.7036972E+002
3	0	7.994433863483573E+002	2.4266265E-001	-2.7038385E+002
3	0	7.999433863357262E+002	2.4253240E-001	-2.7038385E+002
3	0	8.004433863230952E+002	2.4243475E-001	-2.7037326E+002
3	0	8.009433863104641E+002	2.4233212E-001	-2.7037677E+002
3	0	8.014433862978331E+002	2.4222864E-001	-2.7036618E+002
3	0	8.019433862852020E+002	2.4212679E-001	-2.7038031E+002
3	0	8.024433862725709E+002	2.4201956E-001	-2.7039801E+002
3	0	8.029433862599399E+002	2.4189757E-001	-2.7035913E+002
3	0	8.034433862473088E+002	2.4175645E-001	-2.7039801E+002
3	0	8.039433862346777E+002	2.4163106E-001	-2.7036972E+002
3	0	8.044433862220467E+002	2.4153966E-001	-2.7039093E+002
3	0	8.049433862094156E+002	2.4144293E-001	-2.7038385E+002
3	0	8.054433861967846E+002	2.4134389E-001	-2.7038031E+002
3	0	8.059433861841535E+002	2.4124049E-001	-2.7036618E+002
3	0	8.064433861715224E+002	2.4113780E-001	-2.7036618E+002
3	0	8.069433861588914E+002	2.4101673E-001	-2.7037326E+002
3	0	8.074433861462603E+002	2.4088040E-001	-2.7039801E+002
3	0	8.079433861336292E+002	2.4075724E-001	-2.7038742E+002
3	0	8.084433861209982E+002	2.4066921E-001	-2.7039093E+002
3	0	8.089433861083671E+002	2.4057281E-001	-2.7041214E+002
3	0	8.094433860957361E+002	2.4048041E-001	-2.7036618E+002
3	0	8.099433860831050E+002	2.4038832E-001	-2.7039447E+002
3	0	8.104433860704739E+002	2.4029137E-001	-2.7038385E+002
3	0	8.109433860578429E+002	2.4018417E-001	-2.7039801E+002
3	0	8.114433860452118E+002	2.4005643E-001	-2.7037677E+002
3	0	8.119433860325807E+002	2.3993902E-001	-2.7039801E+002
3	0	8.124433860199497E+002	2.3985690E-001	-2.7039093E+002
3	0	8.129433860073186E+002	2.3976746E-001	-2.7040506E+002
3	0	8.134433859946876E+002	2.3968616E-001	-2.7037326E+002
3	0	8.139433859820565E+002	2.3960286E-001	-2.7036618E+002
3	0	8.144433859694254E+002	2.3951884E-001	-2.7039093E+002
3	0	8.149433859567944E+002	2.3940401E-001	-2.7038742E+002
3	0	8.154433859441633E+002	2.3927647E-001	-2.7036972E+002
3	0	8.159433859315322E+002	2.3916627E-001	-2.7039447E+002
3	0	8.164433859189012E+002	2.3909181E-001	-2.7036618E+002
3	0	8.169433859062701E+002	2.3901236E-001	-2.7036618E+002
3	0	8.174433858936391E+002	2.3893429E-001	-2.7037677E+002
3	0	8.179433858810080E+002	2.3885109E-001	-2.7040506E+002
3	0	8.184433858683769E+002	2.3876990E-001	-2.7038742E+002
3	0	8.189433858557459E+002	2.3866759E-001	-2.7036267E+002
3	0	8.194433858431148E+002	2.3854262E-001	-2.7037677E+002
3	0	8.199433858304837E+002	2.3843905E-001	-2.7041568E+002
3	0	8.204433858178527E+002	2.3837352E-001	-2.7038031E+002
3	0	8.209433858052216E+002	2.3829673E-001	-2.7039801E+002
3	0	8.214433857925906E+002	2.3822260E-001	-2.7038385E+002
3	0	8.219433857799595E+002	2.3814720E-001	-2.7038031E+002
3	0	8.224433857673284E+002	2.3806925E-001	-2.7039447E+002
3	0	8.229433857546974E+002	2.3797303E-001	-2.7035559E+002
3	0	8.234433857420663E+002	2.3786007E-001	-2.7039447E+002
3	0	8.239433857294352E+002	2.3775692E-001	-2.7038742E+002
3	0	8.244433857168042E+002	2.3769464E-001	-2.7039093E+002
3	0	8.249433857041731E+002	2.3761813E-001	-2.7037677E+002
3	0	8.249437857041630E+002	2.3767820E-001	-2.7037677E+002