EC-Lab ASCII FILE
Nb header lines : 55                          

Open Circuit Voltage

Run on channel : 1 (SN 81504)
User : 
CE vs. WE compliance from -10 V to 10 V
Electrode connection : standard
Potential control : Ewe
Ewe ctrl range : min = -2.50 V, max = 2.50 V
Safety Limits :
	Do not start on E overload
Acquisition started on : 05/07/2026 14:29:10.843
Loaded Setting File :  C:\PEM-WE_measurements\2026\372_IV_IV IrOx, 5 min Pt, 30 min C, etched cathode\new station\Loopeis new\1,46 V different time gaps open cell\Loopeis 1,46V_30s_3_PEIS from 6500Hz to 1000Hz.mps
Saved on :
	File : L_03_Loopeis 1,46V_30s_3_PEIS from 6500Hz to 1000Hz_18_OCV_C01.mpr
	Directory : C:\PEM-WE_measurements\2026\372_IV_IV IrOx, 5 min Pt, 30 min C, etched cathode\new station\Loopeis new\1,46 V different time gaps open cell\
	Host : 192.168.0.2
Device : SP-150e (SN .005491)
Address : 192.168.0.91
EC-LAB for windows v11.71 (software)
Internet server v28.00 (firmware)
Command interpretor v14.01 (firmware)
Electrode material : 
Initial state : 
Electrolyte : 
Comments : 
Current amplifier : SP-150eB-20A
Electrode surface area : 0.001 cm²
Characteristic mass : 0.001 g
Equivalent Weight : 0.000 g/eq.
Density : 0.000 g/cm3
Volume (V) : 0.001 cm³
Record Analogic IN 1
Text export
   Mode : Standard
   Time format : Elapsed
Cycle Definition : Charge/Discharge alternance
External device configuration :
   device type : Temperature Probe
   device name : Other
   Analog IN 1 : 
      unit : T/Â°C
      max : 100.000 at 2.000 V
      min : 0.000 at 1.460 V
tR (h:m:s)          0:00:30.0000        
dER/dt (mV/h)       1.0                 
record              <Ewe>               
dER (mV)            10.00               
dtR (s)             0.5000              
E range min (V)     -2.500              
E range max (V)     2.500               

mode	error	time/s	<Ewe/V>	Analog IN 1/V	
3	0	6.500499970056262E+002	1.2660981E+000	-2.7036267E+002
3	0	6.505499969929951E+002	1.2509487E+000	-2.7037326E+002
3	0	6.510499969803641E+002	1.1781911E+000	-2.7036972E+002
3	0	6.515499969677330E+002	9.5012671E-001	-2.7036972E+002
3	0	6.520499969551020E+002	4.8041999E-001	-2.7036972E+002
3	0	6.525499969424709E+002	3.5269022E-001	-2.7039801E+002
3	0	6.530499969298398E+002	3.3634856E-001	-2.7037677E+002
3	0	6.535499969172088E+002	3.2788673E-001	-2.7036267E+002
3	0	6.540499969045777E+002	3.2113370E-001	-2.7036972E+002
3	0	6.545499968919466E+002	3.1604013E-001	-2.7039447E+002
3	0	6.550499968793156E+002	3.1219718E-001	-2.7035913E+002
3	0	6.555499968666845E+002	3.0922019E-001	-2.7038742E+002
3	0	6.560499968540535E+002	3.0684188E-001	-2.7036618E+002
3	0	6.565499968414224E+002	3.0489022E-001	-2.7039093E+002
3	0	6.570499968287913E+002	3.0323821E-001	-2.7036618E+002
3	0	6.575499968161603E+002	3.0179033E-001	-2.7038385E+002
3	0	6.580499968035292E+002	3.0051571E-001	-2.7036618E+002
3	0	6.585499967908981E+002	2.9941645E-001	-2.7037677E+002
3	0	6.590499967782671E+002	2.9844517E-001	-2.7037677E+002
3	0	6.595499967656360E+002	2.9754958E-001	-2.7036618E+002
3	0	6.600499967530050E+002	2.9670632E-001	-2.7038031E+002
3	0	6.605499967403739E+002	2.9591271E-001	-2.7036267E+002
3	0	6.610499967277428E+002	2.9515475E-001	-2.7037326E+002
3	0	6.615499967151118E+002	2.9441828E-001	-2.7039093E+002
3	0	6.620499967024807E+002	2.9369497E-001	-2.7039801E+002
3	0	6.625499966898497E+002	2.9304221E-001	-2.7038385E+002
3	0	6.630499966772186E+002	2.9241163E-001	-2.7038031E+002
3	0	6.635499966645875E+002	2.9180342E-001	-2.7038385E+002
3	0	6.640499966519565E+002	2.9120141E-001	-2.7038385E+002
3	0	6.645499966393254E+002	2.9060763E-001	-2.7037677E+002
3	0	6.650499966266943E+002	2.9001778E-001	-2.7039447E+002
3	0	6.655499966140633E+002	2.8941718E-001	-2.7037326E+002
3	0	6.660499966014322E+002	2.8881600E-001	-2.7036972E+002
3	0	6.665499965888012E+002	2.8826669E-001	-2.7040155E+002
3	0	6.670499965761701E+002	2.8772363E-001	-2.7040155E+002
3	0	6.675499965635390E+002	2.8718972E-001	-2.7039093E+002
3	0	6.680499965509080E+002	2.8666610E-001	-2.7038031E+002
3	0	6.685499965382769E+002	2.8613776E-001	-2.7038742E+002
3	0	6.690499965256458E+002	2.8561190E-001	-2.7036972E+002
3	0	6.695499965130148E+002	2.8506938E-001	-2.7037326E+002
3	0	6.700499965003837E+002	2.8452531E-001	-2.7040155E+002
3	0	6.705499964877527E+002	2.8402063E-001	-2.7036267E+002
3	0	6.710499964751216E+002	2.8351930E-001	-2.7040506E+002
3	0	6.715499964624905E+002	2.8302878E-001	-2.7039801E+002
3	0	6.720499964498595E+002	2.8254080E-001	-2.7038385E+002
3	0	6.725499964372284E+002	2.8205737E-001	-2.7038385E+002
3	0	6.730499964245973E+002	2.8155714E-001	-2.7036972E+002
3	0	6.735499964119663E+002	2.8104362E-001	-2.7037677E+002
3	0	6.740499963993352E+002	2.8053367E-001	-2.7039801E+002
3	0	6.745499963867042E+002	2.8006026E-001	-2.7038031E+002
3	0	6.750499963740731E+002	2.7960083E-001	-2.7036972E+002
3	0	6.755499963614420E+002	2.7914229E-001	-2.7037326E+002
3	0	6.760499963488110E+002	2.7868611E-001	-2.7040155E+002
3	0	6.765499963361799E+002	2.7823296E-001	-2.7039801E+002
3	0	6.770499963235488E+002	2.7777436E-001	-2.7039093E+002
3	0	6.775499963109178E+002	2.7730349E-001	-2.7036618E+002
3	0	6.780499962982867E+002	2.7682701E-001	-2.7036618E+002
3	0	6.785499962856557E+002	2.7638769E-001	-2.7037677E+002
3	0	6.790499962730246E+002	2.7595952E-001	-2.7037326E+002
3	0	6.795499962603935E+002	2.7553636E-001	-2.7038385E+002
3	0	6.795503962603834E+002	2.7534017E-001	-2.7037677E+002