EC-Lab ASCII FILE
Nb header lines : 67                          

Potentio Electrochemical Impedance Spectroscopy

Run on channel : 1 (SN 81504)
User : 
CE vs. WE compliance from -10 V to 10 V
Electrode connection : standard
Potential control : Ewe
Ewe ctrl range : min = -10.00 V, max = 10.00 V
Safety Limits :
	Do not start on E overload
Acquisition started on : 05/19/2026 13:53:01.722
Loaded Setting File :  C:\PEM-WE_measurements\2026\372_IV_IV IrOx, 5 min Pt, 30 min C, etched cathode\new station\Loopeis new\1,46 V different time gaps open cell new\normal_PEIS_1,46V_180s.mps
Saved on :
	File : 1,46 V open cel peis normal 180 s kbio set2_09_PEIS_C01.mpr
	Directory : C:\PEM-WE_measurements\2026\372_IV_IV IrOx, 5 min Pt, 30 min C, etched cathode\new station\Loopeis new\
	Host : 192.168.0.2
Device : SP-150e (SN .005491)
Address : 192.168.0.91
EC-LAB for windows v11.71 (software)
Internet server v28.00 (firmware)
Command interpretor v14.01 (firmware)
Electrode material : 
Initial state : 
Electrolyte : 
Comments : 
Current amplifier : SP-150eB-20A
Electrode surface area : 0.000 cm²
Characteristic mass : 0.001 g
Equivalent Weight : 0.000 g/eq.
Density : 0.000 g/cm3
Volume (V) : 0.001 cm³
Text export
   Mode : Standard
   Time format : Elapsed
Cycle Definition : Charge/Discharge alternance
Mode                Single sine         
E (V)               1.4600              
vs.                 Ref                 
tE (h:m:s)          0:00:0.0000         
record              0                   
dI                  0.000               
unit dI             mA                  
dt (s)              0.000               
fi                  20.000              
unit fi             kHz                 
ff                  1.400               
unit ff             Hz                  
Nd                  5                   
Points              per decade          
spacing             Logarithmic         
Va (mV)             5.0                 
pw                  0.10                
Na                  1                   
corr                1                   
E range min (V)     -10.000             
E range max (V)     10.000              
I Range             Auto                
Bandwidth           4                   
nc cycles           5                   
goto Ns'            0                   
nr cycles           0                   
inc. cycle          1                   

freq/Hz	Re(Z)/Ohm	-Im(Z)/Ohm	|Z|/Ohm	Phase(Z)/deg	time/s	<Ewe>/V	<I>/mA	Cs/µF	Cp/µF	cycle number	I Range	|Ewe|/V	|I|/A	Ns	(Q-Qo)/mA.h	Re(Y)/Ohm-1	Im(Y)/Ohm-1	|Y|/Ohm-1	Phase(Y)/deg	Re(C)/nF	Im(C)/nF	|C|/nF	Phase(C)/deg	Re(M)	Im(M)	|M|	Phase(M)/deg	Re(Permittivity)	Im(Permittivity)	|Permittivity|	Phase(Permittivity)/deg	Re(Resistivity)/Ohm.cm	Im(Resistivity)/Ohm.cm	|Resistivity|/Ohm.cm	Phase(Resistivity)/deg	Re(Conductivity)/mS/cm	Im(Conductivity)/mS/cm	|Conductivity|/mS/cm	Phase(Conductivity)/deg	Tan(Delta)	Loss Angle(Delta)/deg	dq/mA.h	Pwe/W	Rwe/Ohm	
2.0004455E+004	4.0698707E-002	-7.3401546E-003	4.1355323E-002	1.0223591E+001	2.959070987356463E+003	1.4598494E+000	1.9486603E+002	-1.0838975E+003	-3.4145683E+001	1.000000000000000E+000	8	4.6127476E-003	1.1153939E-001	0	5.986922012855733E-002	2.3796757E+001	-4.2918282E+000	2.4180683E+001	-1.0223591E+001	-3.4145664E+004	1.8932641E+005	1.9238091E+005	-1.0022359E+002	0.0000000E+000	0.0000000E+000	0.0000000E+000	1.0022359E+002	0.0000000E+000	0.0000000E+000	0.0000000E+000	-1.0022359E+002	0.0000000E+000	0.0000000E+000	0.0000000E+000	1.0223591E+001	0.0000000E+000	0.0000000E+000	0.0000000E+000	-1.0223591E+001	5.5446663E+000	7.9776413E+001	5.986922012855733E-002	2.8447506E-001	7.4915538E+000
1.2683716E+004	4.0329471E-002	-3.9692372E-003	4.0524326E-002	5.6209636E+000	2.959404989212329E+003	1.4598560E+000	1.7267329E+002	-3.1613062E+003	-3.0328369E+001	1.000000000000000E+000	8	5.4889154E-003	1.3544741E-001	0	7.660432459247113E-002	2.4557882E+001	-2.4169934E+000	2.4676537E+001	-5.6209636E+000	-3.0328373E+004	3.0815166E+005	3.0964053E+005	-9.5620964E+001	0.0000000E+000	0.0000000E+000	0.0000000E+000	9.5620964E+001	0.0000000E+000	0.0000000E+000	0.0000000E+000	-9.5620964E+001	0.0000000E+000	0.0000000E+000	0.0000000E+000	5.6209636E+000	0.0000000E+000	0.0000000E+000	0.0000000E+000	-5.6209636E+000	1.0160509E+001	8.4379036E+001	1.673510446391380E-002	2.5207815E-001	8.4544401E+000
8.0395156E+003	4.0262699E-002	-8.4956281E-004	4.0271662E-002	1.2087898E+000	2.959773981869846E+003	1.4598675E+000	1.5567160E+002	-2.3302084E+004	-1.0370188E+001	1.000000000000000E+000	8	5.2889725E-003	1.3133237E-001	0	9.191373785314295E-002	2.4825830E+001	-5.2383727E-001	2.4831356E+001	-1.2087898E+000	-1.0370155E+004	4.9146663E+005	4.9157603E+005	-9.1208786E+001	0.0000000E+000	0.0000000E+000	0.0000000E+000	9.1208786E+001	0.0000000E+000	0.0000000E+000	0.0000000E+000	-9.1208786E+001	0.0000000E+000	0.0000000E+000	0.0000000E+000	1.2087898E+000	0.0000000E+000	0.0000000E+000	0.0000000E+000	-1.2087898E+000	4.7392258E+001	8.8791214E+001	1.530941326067183E-002	2.2725990E-001	9.3778667E+000
5.0966309E+003	4.0303644E-002	1.9469446E-003	4.0350642E-002	-2.7656324E+000	2.960277222533798E+003	1.4598286E+000	1.4004077E+002	1.6039224E+004	3.7341320E+001	1.000000000000000E+000	8	5.0749751E-003	1.2577185E-001	0	1.122914909497317E-001	2.4753887E+001	1.1957840E+000	2.4782753E+001	2.7656324E+000	3.7341324E+004	7.7300156E+005	7.7390294E+005	-8.7234367E+001	0.0000000E+000	0.0000000E+000	0.0000000E+000	8.7234367E+001	0.0000000E+000	0.0000000E+000	0.0000000E+000	-8.7234367E+001	0.0000000E+000	0.0000000E+000	0.0000000E+000	-2.7656324E+000	0.0000000E+000	0.0000000E+000	0.0000000E+000	2.7656324E+000	2.0700972E+001	8.7234367E+001	2.037775309658878E-002	2.0443553E-001	1.0424312E+001
3.2318972E+003	4.0635712E-002	4.9688229E-003	4.0938374E-002	-6.9713621E+000	2.960533335665939E+003	1.4598294E+000	1.3379897E+002	9.9108076E+003	1.4600070E+002	1.000000000000000E+000	8	5.2186507E-003	1.2747577E-001	0	1.221701198638148E-001	2.4246370E+001	2.9647789E+000	2.4426960E+001	6.9713621E+000	1.4600063E+005	1.1940138E+006	1.2029069E+006	-8.3028641E+001	0.0000000E+000	0.0000000E+000	0.0000000E+000	8.3028641E+001	0.0000000E+000	0.0000000E+000	0.0000000E+000	-8.3028641E+001	0.0000000E+000	0.0000000E+000	0.0000000E+000	-6.9713621E+000	0.0000000E+000	0.0000000E+000	0.0000000E+000	6.9713621E+000	8.1781368E+000	8.3028641E+001	9.878628914083046E-003	1.9532368E-001	1.0910619E+001
2.0506560E+003	4.1532077E-002	9.0967100E-003	4.2516626E-002	-1.2354317E+001	2.960789046904698E+003	1.4598347E+000	1.2849838E+002	8.5318457E+003	3.9056567E+002	1.000000000000000E+000	8	5.2579166E-003	1.2366731E-001	0	1.315910064680005E-001	2.2975557E+001	5.0323029E+000	2.3520210E+001	1.2354317E+001	3.9056566E+005	1.7831724E+006	1.8254439E+006	-7.7645683E+001	0.0000000E+000	0.0000000E+000	0.0000000E+000	7.7645683E+001	0.0000000E+000	0.0000000E+000	0.0000000E+000	-7.7645683E+001	0.0000000E+000	0.0000000E+000	0.0000000E+000	-1.2354317E+001	0.0000000E+000	0.0000000E+000	0.0000000E+000	1.2354317E+001	4.5656152E+000	7.7645683E+001	9.420886604185733E-003	1.8758640E-001	1.1360724E+001
1.3004161E+003	4.3141991E-002	1.4451667E-002	4.5498155E-002	-1.8519775E+001	2.961044089183488E+003	1.4598341E+000	1.2377240E+002	8.4687607E+003	8.5441364E+002	1.000000000000000E+000	8	5.2245874E-003	1.1483075E-001	0	1.395710410415025E-001	2.0840714E+001	6.9812045E+000	2.1978912E+001	1.8519775E+001	8.5441369E+005	2.5506473E+006	2.6899488E+006	-7.1480225E+001	0.0000000E+000	0.0000000E+000	0.0000000E+000	7.1480225E+001	0.0000000E+000	0.0000000E+000	0.0000000E+000	-7.1480225E+001	0.0000000E+000	0.0000000E+000	0.0000000E+000	-1.8519775E+001	0.0000000E+000	0.0000000E+000	0.0000000E+000	1.8519775E+001	2.9852605E+000	7.1480225E+001	7.980034573502021E-003	1.8068717E-001	1.1794504E+001
8.2420856E+002	4.6582937E-002	2.1864438E-002	5.1458951E-002	-2.5143757E+001	2.961299330795664E+003	1.4598337E+000	1.1970745E+002	8.8317080E+003	1.5944080E+003	1.000000000000000E+000	8	5.1786839E-003	1.0063718E-001	0	1.476971409593421E-001	1.7591585E+001	8.2568893E+000	1.9432964E+001	2.5143757E+001	1.5944079E+006	3.3969413E+006	3.7525120E+006	-6.4856247E+001	0.0000000E+000	0.0000000E+000	0.0000000E+000	6.4856247E+001	0.0000000E+000	0.0000000E+000	0.0000000E+000	-6.4856247E+001	0.0000000E+000	0.0000000E+000	0.0000000E+000	-2.5143757E+001	0.0000000E+000	0.0000000E+000	0.0000000E+000	2.5143757E+001	2.1305344E+000	6.4856247E+001	8.126099917839580E-003	1.7475298E-001	1.2195011E+001
5.2249200E+002	5.3101584E-002	3.1129975E-002	6.1553665E-002	-3.0380299E+001	2.961556120221139E+003	1.4598303E+000	1.1615485E+002	9.7850205E+003	2.5027151E+003	1.000000000000000E+000	8	5.1344549E-003	8.3414286E-002	0	1.553470151747176E-001	1.4015212E+001	8.2161989E+000	1.6245987E+001	3.0380299E+001	2.5027153E+006	4.2691375E+006	4.9486480E+006	-5.9619701E+001	0.0000000E+000	0.0000000E+000	0.0000000E+000	5.9619701E+001	0.0000000E+000	0.0000000E+000	0.0000000E+000	-5.9619701E+001	0.0000000E+000	0.0000000E+000	0.0000000E+000	-3.0380299E+001	0.0000000E+000	0.0000000E+000	0.0000000E+000	3.0380299E+001	1.7058023E+000	5.9619705E+001	7.649874215375441E-003	1.6956638E-001	1.2567966E+001
3.3137851E+002	6.4290442E-002	4.0635206E-002	7.6055773E-002	-3.2295212E+001	2.961809279433219E+003	1.4598296E+000	1.1276100E+002	1.1819344E+004	3.3739131E+003	1.000000000000000E+000	8	5.0872858E-003	6.6888884E-002	0	1.629627730291271E-001	1.1114298E+001	7.0248671E+000	1.3148246E+001	3.2295212E+001	3.3739138E+006	5.3379915E+006	6.3148590E+006	-5.7704788E+001	0.0000000E+000	0.0000000E+000	0.0000000E+000	5.7704788E+001	0.0000000E+000	0.0000000E+000	0.0000000E+000	-5.7704788E+001	0.0000000E+000	0.0000000E+000	0.0000000E+000	-3.2295212E+001	0.0000000E+000	0.0000000E+000	0.0000000E+000	3.2295212E+001	1.5821365E+000	5.7704788E+001	7.615757854409516E-003	1.6461185E-001	1.2946227E+001
2.1006726E+002	7.9933323E-002	4.7349356E-002	9.2904776E-002	-3.0640833E+001	2.962065048778648E+003	1.4598366E+000	1.0940589E+002	1.6001021E+004	4.1562319E+003	1.000000000000000E+000	8	5.0596176E-003	5.4460254E-002	0	1.706859503240776E-001	9.2608700E+000	5.4857750E+000	1.0763709E+001	3.0640833E+001	4.1562315E+006	7.0163870E+006	8.1549950E+006	-5.9359169E+001	0.0000000E+000	0.0000000E+000	0.0000000E+000	5.9359169E+001	0.0000000E+000	0.0000000E+000	0.0000000E+000	-5.9359169E+001	0.0000000E+000	0.0000000E+000	0.0000000E+000	-3.0640833E+001	0.0000000E+000	0.0000000E+000	0.0000000E+000	3.0640833E+001	1.6881607E+000	5.9359169E+001	7.723177294950506E-003	1.5971473E-001	1.3343308E+001
1.3316759E+002	9.6057236E-002	4.9930748E-002	1.0825928E-001	-2.7465504E+001	2.962322015457539E+003	1.4598291E+000	1.036397625880413E+002	2.3936107E+004	5.0916597E+003	1.000000000000000E+000	8	5.0538923E-003	4.6683222E-002	0	1.780837185444484E-001	8.1959591E+000	4.2602768E+000	9.2370834E+000	2.7465504E+001	5.0916600E+006	9.7953820E+006	1.1039679E+007	-6.2534496E+001	0.0000000E+000	0.0000000E+000	0.0000000E+000	6.2534496E+001	0.0000000E+000	0.0000000E+000	0.0000000E+000	-6.2534496E+001	0.0000000E+000	0.0000000E+000	0.0000000E+000	-2.7465504E+001	0.0000000E+000	0.0000000E+000	0.0000000E+000	2.7465504E+001	1.9238093E+000	6.2534500E+001	7.397768220370832E-003	1.5545519E-001	1.3708779E+001
8.4486305E+001	1.0255447E-001	4.5362569E-002	1.1213912E-001	-2.3861082E+001	2.965301483892414E+003	1.4598314E+000	8.341862993594509E+001	4.1527535E+004	6.7954331E+003	1.000000000000000E+000	8	5.1791407E-003	4.6184961E-002	0	2.471234893151762E-001	8.1553068E+000	3.6073093E+000	8.9174948E+000	2.3861082E+001	6.7954340E+006	1.5362932E+007	1.6798738E+007	-6.6138916E+001	0.0000000E+000	0.0000000E+000	0.0000000E+000	6.6138916E+001	0.0000000E+000	0.0000000E+000	0.0000000E+000	-6.6138916E+001	0.0000000E+000	0.0000000E+000	0.0000000E+000	-2.3861082E+001	0.0000000E+000	0.0000000E+000	0.0000000E+000	2.3861082E+001	2.2607729E+000	6.6138916E+001	6.903977077072776E-002	1.3253209E-001	1.6079937E+001
5.3577000E+001	1.1122566E-001	5.2224085E-002	1.2287596E-001	-2.5151590E+001	2.965838583891236E+003	1.4598004E+000	8.585820959341682E+001	5.6881480E+004	1.0274927E+004	1.000000000000000E+000	9	5.2601499E-003	4.2808618E-002	0	2.599330571683819E-001	7.3666687E+000	3.4588919E+000	8.1382885E+000	2.5151590E+001	1.0274926E+007	2.1883304E+007	2.4175464E+007	-6.4848412E+001	0.0000000E+000	0.0000000E+000	0.0000000E+000	6.4848412E+001	0.0000000E+000	0.0000000E+000	0.0000000E+000	-6.4848412E+001	0.0000000E+000	0.0000000E+000	0.0000000E+000	-2.5151590E+001	0.0000000E+000	0.0000000E+000	0.0000000E+000	2.5151590E+001	2.1297770E+000	6.4848412E+001	1.280956785320572E-002	1.2752672E-001	1.6710358E+001
3.3967392E+001	1.2397614E-001	6.4904712E-002	1.3993822E-001	-2.7633217E+001	2.966100542063694E+003	1.4598044E+000	8.769505583931262E+001	7.2190773E+004	1.5529643E+004	1.000000000000000E+000	9	5.2241855E-003	3.7332084E-002	0	2.663142895465005E-001	6.3308997E+000	3.3143892E+000	7.1460104E+000	2.7633217E+001	1.5529642E+007	2.9663566E+007	3.3482786E+007	-6.2366783E+001	0.0000000E+000	0.0000000E+000	0.0000000E+000	6.2366783E+001	0.0000000E+000	0.0000000E+000	0.0000000E+000	-6.2366783E+001	0.0000000E+000	0.0000000E+000	0.0000000E+000	-2.7633217E+001	0.0000000E+000	0.0000000E+000	0.0000000E+000	2.7633217E+001	1.9101254E+000	6.2366783E+001	6.381232378118606E-003	1.2677597E-001	1.6809408E+001
2.1551722E+001	1.4564840E-001	8.2105316E-002	1.6719671E-001	-2.9410944E+001	2.966340998608430E+003	1.4597949E+000	8.762960732553556E+001	8.9942898E+004	2.1689723E+004	1.000000000000000E+000	9	5.2161240E-003	3.1197527E-002	0	2.721673763781852E-001	5.2101507E+000	2.9370801E+000	5.9809790E+000	2.9410944E+001	2.1689720E+007	3.8475872E+007	4.4168276E+007	-6.0589058E+001	0.0000000E+000	0.0000000E+000	0.0000000E+000	6.0589058E+001	0.0000000E+000	0.0000000E+000	0.0000000E+000	-6.0589058E+001	0.0000000E+000	0.0000000E+000	0.0000000E+000	-2.9410944E+001	0.0000000E+000	0.0000000E+000	0.0000000E+000	2.9410944E+001	1.7739217E+000	6.0589058E+001	5.853086831684728E-003	1.2611189E-001	1.6897699E+001
1.3658218E+001	1.7877711E-001	9.6429102E-002	2.0312515E-001	-2.8341612E+001	2.966617767954929E+003	1.4598056E+000	8.346157418752109E+001	1.2084202E+005	2.7233711E+004	1.000000000000000E+000	9	5.1902360E-003	2.5551913E-002	0	2.785839334186539E-001	4.3329582E+000	2.3371184E+000	4.9230733E+000	2.8341612E+001	2.7233714E+007	5.0490608E+007	5.7367036E+007	-6.1658386E+001	0.0000000E+000	0.0000000E+000	0.0000000E+000	6.1658386E+001	0.0000000E+000	0.0000000E+000	0.0000000E+000	-6.1658386E+001	0.0000000E+000	0.0000000E+000	0.0000000E+000	-2.8341612E+001	0.0000000E+000	0.0000000E+000	0.0000000E+000	2.8341612E+001	1.8539747E+000	6.1658386E+001	6.416557040468673E-003	1.2540159E-001	1.6993664E+001
8.6613073E+000	2.2038910E-001	9.8290510E-002	2.4131386E-001	-2.4036215E+001	2.966904574608561E+003	1.4598037E+000	8.191773065755729E+001	1.8694984E+005	3.1015854E+004	1.000000000000000E+000	9	5.1866751E-003	2.1493481E-002	0	2.851101973639396E-001	3.7846489E+000	1.6879014E+000	4.1439810E+000	2.4036215E+001	3.1015858E+007	6.9544416E+007	7.6147288E+007	-6.5963783E+001	0.0000000E+000	0.0000000E+000	0.0000000E+000	6.5963783E+001	0.0000000E+000	0.0000000E+000	0.0000000E+000	-6.5963783E+001	0.0000000E+000	0.0000000E+000	0.0000000E+000	-2.4036215E+001	0.0000000E+000	0.0000000E+000	0.0000000E+000	2.4036215E+001	2.2422216E+000	6.5963783E+001	6.526263945285660E-003	1.2476802E-001	1.7079912E+001
5.4940224E+000	2.5669864E-001	8.5962266E-002	2.7070963E-001	-1.8514471E+001	2.967331343722166E+003	1.4598137E+000	8.492415772100573E+001	3.3699372E+005	3.3980527E+004	1.000000000000000E+000	9	5.1776120E-003	1.9126073E-002	0	2.951776994512222E-001	3.5028064E+000	1.1730064E+000	3.6939948E+000	1.8514471E+001	3.3980532E+007	1.0147191E+008	1.0701040E+008	-7.1485527E+001	0.0000000E+000	0.0000000E+000	0.0000000E+000	7.1485527E+001	0.0000000E+000	0.0000000E+000	0.0000000E+000	-7.1485527E+001	0.0000000E+000	0.0000000E+000	0.0000000E+000	-1.8514471E+001	0.0000000E+000	0.0000000E+000	0.0000000E+000	1.8514471E+001	2.9861782E+000	7.1485527E+001	1.006750208728263E-002	1.2414534E-001	1.7165815E+001
3.4799554E+000	2.8158444E-001	6.7538038E-002	2.8957069E-001	-1.3487609E+001	2.967976499219469E+003	1.4598166E+000	8.331271245536522E+001	6.7717044E+005	3.6837121E+004	1.000000000000000E+000	9	5.1757782E-003	1.7873971E-002	0	3.101081590167176E-001	3.3581450E+000	8.0545121E-001	3.4533882E+000	1.3487609E+001	3.6837124E+007	1.5358397E+008	1.5793989E+008	-7.6512390E+001	0.0000000E+000	0.0000000E+000	0.0000000E+000	7.6512390E+001	0.0000000E+000	0.0000000E+000	0.0000000E+000	-7.6512390E+001	0.0000000E+000	0.0000000E+000	0.0000000E+000	-1.3487609E+001	0.0000000E+000	0.0000000E+000	0.0000000E+000	1.3487609E+001	4.1692719E+000	7.6512390E+001	1.493045956549544E-002	1.2343056E-001	1.7265291E+001
2.2094176E+000	2.9593202E-001	5.2353825E-002	3.0052733E-001	-1.0032487E+001	2.968967582493191E+003	1.4598178E+000	8.220286372654982E+001	1.3759223E+006	4.1756375E+004	1.000000000000000E+000	9	5.1726983E-003	1.7212072E-002	0	3.327386821532340E-001	3.2766042E+000	5.7966954E-001	3.3274844E+000	1.0032487E+001	4.1756372E+007	2.3602952E+008	2.3969466E+008	-7.9967514E+001	0.0000000E+000	0.0000000E+000	0.0000000E+000	7.9967514E+001	0.0000000E+000	0.0000000E+000	0.0000000E+000	-7.9967514E+001	0.0000000E+000	0.0000000E+000	0.0000000E+000	-1.0032487E+001	0.0000000E+000	0.0000000E+000	0.0000000E+000	1.0032487E+001	5.6525388E+000	7.9967514E+001	2.263052313651642E-002	1.2277982E-001	1.7356827E+001
1.4008425E+000	3.0250773E-001	4.3267138E-002	3.0558628E-001	-8.1397076E+000	2.970505994219551E+003	1.4598199E+000	8.399394052307170E+001	2.6258665E+006	5.2640656E+004	1.000000000000000E+000	9	5.1797433E-003	1.6950183E-002	0	3.686323663320939E-001	3.2394314E+000	4.6333006E-001	3.2723982E+000	8.1397076E+000	5.2640668E+007	3.6804384E+008	3.7178934E+008	-8.1860291E+001	0.0000000E+000	0.0000000E+000	0.0000000E+000	8.1860291E+001	0.0000000E+000	0.0000000E+000	0.0000000E+000	-8.1860291E+001	0.0000000E+000	0.0000000E+000	0.0000000E+000	-8.1397076E+000	0.0000000E+000	0.0000000E+000	0.0000000E+000	8.1397076E+000	6.9916277E+000	8.1860291E+001	3.589368417885985E-002	1.2413986E-001	1.7166719E+001
2.0004455E+004	4.1225709E-002	-7.0865937E-003	4.1830357E-002	9.7536745E+000	2.971430982876846E+003	1.4598564E+000	8.425429758832910E+001	-1.1226797E+003	-3.2221653E+001	2.000000000000000E+000	8	4.6607633E-003	1.1142059E-001	0	3.902807745536226E-001	2.3560526E+001	-4.0499945E+000	2.3906084E+001	-9.7536745E+000	-3.2221664E+004	1.8744695E+005	1.9019620E+005	-9.9753677E+001	0.0000000E+000	0.0000000E+000	0.0000000E+000	9.9753677E+001	0.0000000E+000	0.0000000E+000	0.0000000E+000	-9.9753677E+001	0.0000000E+000	0.0000000E+000	0.0000000E+000	9.7536745E+000	0.0000000E+000	0.0000000E+000	0.0000000E+000	-9.7536745E+000	5.8174224E+000	8.0246323E+001	2.164840822152875E-002	1.2802152E-001	1.6647049E+001
1.2683716E+004	4.0856797E-002	-3.7134895E-003	4.1025210E-002	5.1933651E+000	2.971765997292750E+003	1.4598631E+000	9.087132962672631E+001	-3.3790251E+003	-2.7685616E+001	2.000000000000000E+000	8	5.4757106E-003	1.3347185E-001	0	3.987372205028997E-001	2.4275192E+001	-2.2063813E+000	2.4375256E+001	-5.1933651E+000	-2.7685627E+004	3.0460450E+005	3.0586009E+005	-9.5193367E+001	0.0000000E+000	0.0000000E+000	0.0000000E+000	9.5193367E+001	0.0000000E+000	0.0000000E+000	0.0000000E+000	-9.5193367E+001	0.0000000E+000	0.0000000E+000	0.0000000E+000	5.1933651E+000	0.0000000E+000	0.0000000E+000	0.0000000E+000	-5.1933651E+000	1.1002265E+001	8.4806633E+001	8.456445949277080E-003	1.2785673E-001	1.6668657E+001
8.0395156E+003	4.0682144E-002	-4.8039891E-004	4.0684979E-002	6.7655116E-001	2.972134983656972E+003	1.4598645E+000	9.342742703904928E+001	-4.1208637E+004	-5.7454505E+000	2.000000000000000E+000	8	5.3553772E-003	1.3163033E-001	0	4.083131778978109E-001	2.4577383E+001	-2.9022434E-001	2.4579096E+001	-6.7655116E-001	-5.7454561E+003	4.8654822E+005	4.8658213E+005	-9.0676552E+001	0.0000000E+000	0.0000000E+000	0.0000000E+000	9.0676552E+001	0.0000000E+000	0.0000000E+000	0.0000000E+000	-9.0676552E+001	0.0000000E+000	0.0000000E+000	0.0000000E+000	6.7655116E-001	0.0000000E+000	0.0000000E+000	0.0000000E+000	-6.7655116E-001	8.4684090E+001	8.9323448E+001	9.575957394911183E-003	1.2734716E-001	1.6735390E+001
5.0966309E+003	4.0867012E-002	2.4289135E-003	4.0939130E-002	-3.4013488E+000	2.972638222854235E+003	1.4598314E+000	8.146525678341527E+001	1.2856563E+004	4.5255543E+001	2.000000000000000E+000	8	5.1123579E-003	1.2487706E-001	0	4.197010974612997E-001	2.4383478E+001	1.4492216E+000	2.4426508E+001	3.4013488E+000	4.5255582E+004	7.6143463E+005	7.6277831E+005	-8.6598648E+001	0.0000000E+000	0.0000000E+000	0.0000000E+000	8.6598648E+001	0.0000000E+000	0.0000000E+000	0.0000000E+000	-8.6598648E+001	0.0000000E+000	0.0000000E+000	0.0000000E+000	-3.4013488E+000	0.0000000E+000	0.0000000E+000	0.0000000E+000	3.4013488E+000	1.6825224E+001	8.6598648E+001	1.138791956348884E-002	1.2626776E-001	1.6877686E+001
3.2318972E+003	4.1460134E-002	5.4394803E-003	4.1815437E-002	-7.4743919E+000	2.972894342813059E+003	1.4598305E+000	7.957243902694134E+001	9.0532637E+003	1.5319574E+002	2.000000000000000E+000	8	5.2484260E-003	1.2551408E-001	0	4.253622335188190E-001	2.3711414E+001	3.1108861E+000	2.3914614E+001	7.4743919E+000	1.5319581E+005	1.1676696E+006	1.1776763E+006	-8.2525604E+001	0.0000000E+000	0.0000000E+000	0.0000000E+000	8.2525604E+001	0.0000000E+000	0.0000000E+000	0.0000000E+000	-8.2525604E+001	0.0000000E+000	0.0000000E+000	0.0000000E+000	-7.4743919E+000	0.0000000E+000	0.0000000E+000	0.0000000E+000	7.4743919E+000	7.6220765E+000	8.2525604E+001	5.661136057519278E-003	1.2659298E-001	1.6834307E+001
2.0506560E+003	4.2462271E-002	9.5509449E-003	4.3523155E-002	-1.2676445E+001	2.973150052638477E+003	1.4598318E+000	7.618099811526079E+001	8.1260776E+003	3.9132080E+002	2.000000000000000E+000	8	5.2484018E-003	1.2058873E-001	0	4.307734084433317E-001	2.2416224E+001	5.0420318E+000	2.2976274E+001	1.2676445E+001	3.9132075E+005	1.7397618E+006	1.7832283E+006	-7.7323555E+001	0.0000000E+000	0.0000000E+000	0.0000000E+000	7.7323555E+001	0.0000000E+000	0.0000000E+000	0.0000000E+000	-7.7323555E+001	0.0000000E+000	0.0000000E+000	0.0000000E+000	-1.2676445E+001	0.0000000E+000	0.0000000E+000	0.0000000E+000	1.2676445E+001	4.4458714E+000	7.7323555E+001	5.411174924512707E-003	1.2702283E-001	1.6777369E+001
1.3004161E+003	4.4612259E-002	1.4771801E-002	4.6994254E-002	-1.8320498E+001	2.973404082943904E+003	1.4598297E+000	7.898055229975255E+001	8.2852256E+003	8.1861884E+002	2.000000000000000E+000	8	5.2091246E-003	1.1084599E-001	0	4.363465900609609E-001	2.0200621E+001	6.6887345E+000	2.1279198E+001	1.8320498E+001	8.1861875E+005	2.4723075E+006	2.6043120E+006	-7.1679504E+001	0.0000000E+000	0.0000000E+000	0.0000000E+000	7.1679504E+001	0.0000000E+000	0.0000000E+000	0.0000000E+000	-7.1679504E+001	0.0000000E+000	0.0000000E+000	0.0000000E+000	-1.8320498E+001	0.0000000E+000	0.0000000E+000	0.0000000E+000	1.8320498E+001	3.0200961E+000	7.1679504E+001	5.573181617629208E-003	1.2805943E-001	1.6641512E+001
8.2420856E+002	4.8836563E-002	2.1432890E-002	5.3332716E-002	-2.3695217E+001	2.973658350529353E+003	1.4598279E+000	8.230984689564070E+001	9.0095332E+003	1.4550447E+003	2.000000000000000E+000	8	5.1579163E-003	9.6712053E-002	0	4.421601250689758E-001	1.7169502E+001	7.5351748E+000	1.8750217E+001	2.3695217E+001	1.4550449E+006	3.3154363E+006	3.6206730E+006	-6.6304779E+001	0.0000000E+000	0.0000000E+000	0.0000000E+000	6.6304779E+001	0.0000000E+000	0.0000000E+000	0.0000000E+000	-6.6304779E+001	0.0000000E+000	0.0000000E+000	0.0000000E+000	-2.3695217E+001	0.0000000E+000	0.0000000E+000	0.0000000E+000	2.3695217E+001	2.2785804E+000	6.6304779E+001	5.813535008014903E-003	1.2866472E-001	1.6563185E+001
5.2249200E+002	5.6255177E-002	2.9130245E-002	6.3349947E-002	-2.7376177E+001	2.973916166648269E+003	1.4598206E+000	8.609973643125201E+001	1.0456741E+004	2.2110171E+003	2.000000000000000E+000	8	5.1213149E-003	8.0841660E-002	0	4.483262083707477E-001	1.4017481E+001	7.2585788E+000	1.5785333E+001	2.7376177E+001	2.2110170E+006	4.2698285E+006	4.8083295E+006	-6.2623825E+001	0.0000000E+000	0.0000000E+000	0.0000000E+000	6.2623825E+001	0.0000000E+000	0.0000000E+000	0.0000000E+000	-6.2623825E+001	0.0000000E+000	0.0000000E+000	0.0000000E+000	-2.7376177E+001	0.0000000E+000	0.0000000E+000	0.0000000E+000	2.7376177E+001	1.9311604E+000	6.2623825E+001	6.166083301771819E-003	1.2863633E-001	1.6566675E+001
3.3137851E+002	6.7167670E-002	3.5752680E-002	7.6090403E-002	-2.8025928E+001	2.974171273460379E+003	1.4598217E+000	9.071823037850031E+001	1.3433439E+004	2.9658188E+003	2.000000000000000E+000	8	5.0790552E-003	6.6750273E-002	0	4.547547746352297E-001	1.1601135E+001	6.1751685E+000	1.3142262E+001	2.8025928E+001	2.9658190E+006	5.5718100E+006	6.3119845E+006	-6.1974072E+001	0.0000000E+000	0.0000000E+000	0.0000000E+000	6.1974072E+001	0.0000000E+000	0.0000000E+000	0.0000000E+000	-6.1974072E+001	0.0000000E+000	0.0000000E+000	0.0000000E+000	-2.8025928E+001	0.0000000E+000	0.0000000E+000	0.0000000E+000	2.8025928E+001	1.8786751E+000	6.1974075E+001	6.428566264482016E-003	1.2826981E-001	1.6614038E+001
2.1006726E+002	8.0289945E-002	3.9805464E-002	8.9615569E-002	-2.6370903E+001	2.974427085899151E+003	1.4598309E+000	8.239028930333342E+001	1.9033520E+004	3.7552385E+003	2.000000000000000E+000	8	5.0638625E-003	5.6506503E-002	0	4.606093470901880E-001	9.9975643E+000	4.9565077E+000	1.1158775E+001	2.6370903E+001	3.7552388E+006	7.5745355E+006	8.4543130E+006	-6.3629097E+001	0.0000000E+000	0.0000000E+000	0.0000000E+000	6.3629097E+001	0.0000000E+000	0.0000000E+000	0.0000000E+000	-6.3629097E+001	0.0000000E+000	0.0000000E+000	0.0000000E+000	-2.6370903E+001	0.0000000E+000	0.0000000E+000	0.0000000E+000	2.6370903E+001	2.0170584E+000	6.3629097E+001	5.854572454958351E-003	1.2780008E-001	1.6675312E+001
1.3316759E+002	9.2682630E-002	4.1929327E-002	1.0172580E-001	-2.4341845E+001	2.974684040151347E+003	1.4598264E+000	8.393644651618929E+001	2.8503861E+004	4.8425850E+003	2.000000000000000E+000	8	5.0602327E-003	4.9743846E-002	0	4.666004101031208E-001	8.9564543E+000	4.0518718E+000	9.8303480E+000	2.4341845E+001	4.8425845E+006	1.0704286E+007	1.1748718E+007	-6.5658157E+001	0.0000000E+000	0.0000000E+000	0.0000000E+000	6.5658157E+001	0.0000000E+000	0.0000000E+000	0.0000000E+000	-6.5658157E+001	0.0000000E+000	0.0000000E+000	0.0000000E+000	-2.4341845E+001	0.0000000E+000	0.0000000E+000	0.0000000E+000	2.4341845E+001	2.2104487E+000	6.5658157E+001	5.991063012932729E-003	1.2742488E-001	1.6724308E+001
8.4486305E+001	1.0274733E-001	4.5374099E-002	1.1232018E-001	-2.3826664E+001	2.977660474586082E+003	1.4598281E+000	7.527393894680064E+001	4.1516984E+004	6.7752642E+003	2.000000000000000E+000	8	5.1834853E-003	4.6149191E-002	0	5.288359500807308E-001	8.1443224E+000	3.5966027E+000	8.9031200E+000	2.3826664E+001	6.7752635E+006	1.5342241E+007	1.6771659E+007	-6.6173340E+001	0.0000000E+000	0.0000000E+000	0.0000000E+000	6.6173340E+001	0.0000000E+000	0.0000000E+000	0.0000000E+000	-6.6173340E+001	0.0000000E+000	0.0000000E+000	0.0000000E+000	-2.3826664E+001	0.0000000E+000	0.0000000E+000	0.0000000E+000	2.3826664E+001	2.2644489E+000	6.6173340E+001	6.223553997761005E-002	1.2813057E-001	1.6632238E+001
5.3577000E+001	1.1197101E-001	5.2487381E-002	1.2366258E-001	-2.5115240E+001	2.978198568691660E+003	1.4598038E+000	7.734420807470035E+001	5.6596145E+004	1.0195771E+004	2.000000000000000E+000	9	5.2528703E-003	4.2477444E-002	0	5.403966340989371E-001	7.3219886E+000	3.4322453E+000	8.0865211E+000	2.5115240E+001	1.0195771E+007	2.1750576E+007	2.4021684E+007	-6.4884758E+001	0.0000000E+000	0.0000000E+000	0.0000000E+000	6.4884758E+001	0.0000000E+000	0.0000000E+000	0.0000000E+000	-6.4884758E+001	0.0000000E+000	0.0000000E+000	0.0000000E+000	-2.5115240E+001	0.0000000E+000	0.0000000E+000	0.0000000E+000	2.5115240E+001	2.1332939E+000	6.4884758E+001	1.156068401820631E-002	1.2283904E-001	1.7348125E+001
3.3967392E+001	1.2508719E-001	6.5379560E-002	1.4114280E-001	-2.7594805E+001	2.978460516890758E+003	1.4597964E+000	7.881398151521492E+001	7.1666461E+004	1.5377384E+004	2.000000000000000E+000	9	5.2263103E-003	3.7028529E-002	0	5.461314064660784E-001	6.2790704E+000	3.2818937E+000	7.0850229E+000	2.7594805E+001	1.5377382E+007	2.9420718E+007	3.3197026E+007	-6.2405197E+001	0.0000000E+000	0.0000000E+000	0.0000000E+000	6.2405197E+001	0.0000000E+000	0.0000000E+000	0.0000000E+000	-6.2405197E+001	0.0000000E+000	0.0000000E+000	0.0000000E+000	-2.7594805E+001	0.0000000E+000	0.0000000E+000	0.0000000E+000	2.7594805E+001	1.9132460E+000	6.2405197E+001	5.734772367141261E-003	1.2250681E-001	1.7394997E+001
2.1551722E+001	1.4640798E-001	8.3219692E-002	1.6840670E-001	-2.9614313E+001	2.978701013622151E+003	1.4598010E+000	7.772692349778960E+001	8.8738492E+004	2.1669332E+004	2.000000000000000E+000	9	5.2048485E-003	3.0906422E-002	0	5.513239262000786E-001	5.1623335E+000	2.9343197E+000	5.9380064E+000	2.9614313E+001	2.1669334E+007	3.8122752E+007	4.3850932E+007	-6.0385689E+001	0.0000000E+000	0.0000000E+000	0.0000000E+000	6.0385689E+001	0.0000000E+000	0.0000000E+000	0.0000000E+000	-6.0385689E+001	0.0000000E+000	0.0000000E+000	0.0000000E+000	-2.9614313E+001	0.0000000E+000	0.0000000E+000	0.0000000E+000	2.9614313E+001	1.7592949E+000	6.0385689E+001	5.192519734000256E-003	1.2217250E-001	1.7442703E+001
1.3658218E+001	1.8027328E-001	9.8158561E-002	2.0526461E-001	-2.8568233E+001	2.978977781395297E+003	1.4598037E+000	8.022712022346575E+001	1.1871290E+005	2.7147266E+004	2.000000000000000E+000	9	5.1867254E-003	2.5268484E-002	0	5.574917821473528E-001	4.2786150E+000	2.3297002E+000	4.8717604E+000	2.8568233E+001	2.7147268E+007	4.9857364E+007	5.6769100E+007	-6.1431767E+001	0.0000000E+000	0.0000000E+000	0.0000000E+000	6.1431767E+001	0.0000000E+000	0.0000000E+000	0.0000000E+000	-6.1431767E+001	0.0000000E+000	0.0000000E+000	0.0000000E+000	-2.8568233E+001	0.0000000E+000	0.0000000E+000	0.0000000E+000	2.8568233E+001	1.8365518E+000	6.1431763E+001	6.167855947274203E-003	1.2197917E-001	1.7470417E+001
8.6613073E+000	2.2259568E-001	1.0051380E-001	2.4423730E-001	-2.4301710E+001	2.979264595168948E+003	1.4598073E+000	8.275980178894174E+001	1.8281464E+005	3.0962668E+004	2.000000000000000E+000	9	5.1823878E-003	2.1218657E-002	0	5.640852963300546E-001	3.7315798E+000	1.6850069E+000	4.0943785E+000	2.4301710E+001	3.0962674E+007	6.8569256E+007	7.5235832E+007	-6.5698288E+001	0.0000000E+000	0.0000000E+000	0.0000000E+000	6.5698288E+001	0.0000000E+000	0.0000000E+000	0.0000000E+000	-6.5698288E+001	0.0000000E+000	0.0000000E+000	0.0000000E+000	-2.4301710E+001	0.0000000E+000	0.0000000E+000	0.0000000E+000	2.4301710E+001	2.2145782E+000	6.5698288E+001	6.593514182701710E-003	1.2177990E-001	1.7499088E+001
5.4940224E+000	2.6055458E-001	8.7598309E-002	2.7488571E-001	-1.8582615E+001	2.979691321695907E+003	1.4598098E+000	7.995900715593126E+001	3.3069984E+005	3.3583121E+004	2.000000000000000E+000	9	5.1774522E-003	1.8834926E-002	0	5.735632489474847E-001	3.4482155E+000	1.1592880E+000	3.6378756E+000	1.8582615E+001	3.3583116E+007	9.9890480E+007	1.0538470E+008	-7.1417389E+001	0.0000000E+000	0.0000000E+000	0.0000000E+000	7.1417389E+001	0.0000000E+000	0.0000000E+000	0.0000000E+000	-7.1417389E+001	0.0000000E+000	0.0000000E+000	0.0000000E+000	-1.8582615E+001	0.0000000E+000	0.0000000E+000	0.0000000E+000	1.8582615E+001	2.9744248E+000	7.1417389E+001	9.477952617430119E-003	1.2153062E-001	1.7535042E+001
3.4799554E+000	2.8672159E-001	6.9947734E-002	2.9513040E-001	-1.3709911E+001	2.980336579193201E+003	1.4598160E+000	8.128085312901911E+001	6.5384194E+005	3.6727570E+004	2.000000000000000E+000	9	5.1720855E-003	1.7524747E-002	0	5.881318822441299E-001	3.2917929E+000	8.0305594E-001	3.3883328E+000	1.3709911E+001	3.6727580E+007	1.5054936E+008	1.5496459E+008	-7.6290085E+001	0.0000000E+000	0.0000000E+000	0.0000000E+000	7.6290085E+001	0.0000000E+000	0.0000000E+000	0.0000000E+000	-7.6290085E+001	0.0000000E+000	0.0000000E+000	0.0000000E+000	-1.3709911E+001	0.0000000E+000	0.0000000E+000	0.0000000E+000	1.3709911E+001	4.0990834E+000	7.6290085E+001	1.456863329664526E-002	1.2088341E-001	1.7629074E+001
2.2094176E+000	2.9930398E-001	5.1834255E-002	3.0375922E-001	-9.8251820E+000	2.981327648333609E+003	1.4598178E+000	8.363659938200794E+001	1.3897141E+006	4.0466930E+004	2.000000000000000E+000	9	5.1716738E-003	1.7025569E-002	0	6.111567857597222E-001	3.2437961E+000	5.6176919E-001	3.2920811E+000	9.8251820E+000	4.0466920E+007	2.3366619E+008	2.3714438E+008	-8.0174820E+001	0.0000000E+000	0.0000000E+000	0.0000000E+000	8.0174820E+001	0.0000000E+000	0.0000000E+000	0.0000000E+000	-8.0174820E+001	0.0000000E+000	0.0000000E+000	0.0000000E+000	-9.8251820E+000	0.0000000E+000	0.0000000E+000	0.0000000E+000	9.8251820E+000	5.7742505E+000	8.0174820E+001	2.302490351559228E-002	1.2147773E-001	1.7542870E+001
1.4008425E+000	3.0233568E-001	4.2720750E-002	3.0533904E-001	-8.0427837E+000	2.982866105179986E+003	1.4598179E+000	8.446874120849269E+001	2.6594508E+006	5.2060102E+004	2.000000000000000E+000	9	5.1756399E-003	1.6950469E-002	0	6.472544283200337E-001	3.2428343E+000	4.5822018E-001	3.2750480E+000	8.0427837E+000	5.2060120E+007	3.6843050E+008	3.7209043E+008	-8.1957214E+001	0.0000000E+000	0.0000000E+000	0.0000000E+000	8.1957214E+001	0.0000000E+000	0.0000000E+000	0.0000000E+000	-8.1957214E+001	0.0000000E+000	0.0000000E+000	0.0000000E+000	-8.0427837E+000	0.0000000E+000	0.0000000E+000	0.0000000E+000	8.0427837E+000	7.0770216E+000	8.1957214E+001	3.609764256031145E-002	1.2266158E-001	1.7373560E+001
2.0004455E+004	4.1098688E-002	-7.0954147E-003	4.1706678E-002	9.7951794E+000	2.983609992255326E+003	1.4598534E+000	8.142072264981336E+001	-1.1212841E+003	-3.2453384E+001	3.000000000000000E+000	8	4.5869686E-003	1.0998163E-001	0	6.640788236655875E-001	2.3627445E+001	-4.0791211E+000	2.3976976E+001	-9.7951794E+000	-3.2453393E+004	1.8797936E+005	1.9076022E+005	-9.9795181E+001	0.0000000E+000	0.0000000E+000	0.0000000E+000	9.9795181E+001	0.0000000E+000	0.0000000E+000	0.0000000E+000	-9.9795181E+001	0.0000000E+000	0.0000000E+000	0.0000000E+000	9.7951794E+000	0.0000000E+000	0.0000000E+000	0.0000000E+000	-9.7951794E+000	5.7922883E+000	8.0204819E+001	1.682439534555380E-002	1.2574908E-001	1.6947815E+001
1.2683716E+004	4.0788956E-002	-3.6493894E-003	4.0951885E-002	5.1126423E+000	2.983943987231163E+003	1.4598486E+000	8.696065590810495E+001	-3.4383762E+003	-2.7305241E+001	3.000000000000000E+000	8	5.4871310E-003	1.3398971E-001	0	6.721467187124855E-001	2.4321747E+001	-2.1760676E+000	2.4418900E+001	-5.1126423E+000	-2.7305229E+004	3.0518866E+005	3.0640772E+005	-9.5112640E+001	0.0000000E+000	0.0000000E+000	0.0000000E+000	9.5112640E+001	0.0000000E+000	0.0000000E+000	0.0000000E+000	-9.5112640E+001	0.0000000E+000	0.0000000E+000	0.0000000E+000	5.1126423E+000	0.0000000E+000	0.0000000E+000	0.0000000E+000	-5.1126423E+000	1.1176927E+001	8.4887360E+001	8.067895046898088E-003	1.2541902E-001	1.6992304E+001
8.0395156E+003	4.0746473E-002	-4.2336798E-004	4.0748671E-002	5.9529883E-001	2.984312979515395E+003	1.4598635E+000	8.662850427048440E+001	-4.6759758E+004	-5.0475588E+000	3.000000000000000E+000	8	5.2578039E-003	1.2903008E-001	0	6.810259547320165E-001	2.4539354E+001	-2.5497121E-001	2.4540678E+001	-5.9529883E-001	-5.0475581E+003	4.8579534E+005	4.8582156E+005	-9.0595299E+001	0.0000000E+000	0.0000000E+000	0.0000000E+000	9.0595299E+001	0.0000000E+000	0.0000000E+000	0.0000000E+000	-9.0595299E+001	0.0000000E+000	0.0000000E+000	0.0000000E+000	5.9529883E-001	0.0000000E+000	0.0000000E+000	0.0000000E+000	-5.9529883E-001	9.6243637E+001	8.9404701E+001	8.879236019531001E-003	1.2549971E-001	1.6981724E+001
5.0966309E+003	4.0896446E-002	2.4538611E-003	4.0969998E-002	-3.4337342E+000	2.984816228872660E+003	1.4598258E+000	7.932822769338887E+001	1.2725854E+004	4.5651501E+001	3.000000000000000E+000	8	5.1177433E-003	1.2491442E-001	0	6.921153657319314E-001	2.4364285E+001	1.4619014E+000	2.4408104E+001	3.4337342E+000	4.5651457E+004	7.6083525E+005	7.6220363E+005	-8.6566269E+001	0.0000000E+000	0.0000000E+000	0.0000000E+000	8.6566269E+001	0.0000000E+000	0.0000000E+000	0.0000000E+000	-8.6566269E+001	0.0000000E+000	0.0000000E+000	0.0000000E+000	-3.4337342E+000	0.0000000E+000	0.0000000E+000	0.0000000E+000	3.4337342E+000	1.6666162E+001	8.6566269E+001	1.108941099991489E-002	1.2507436E-001	1.7038595E+001
3.2318972E+003	4.1502282E-002	5.6014648E-003	4.1878585E-002	-7.6866264E+000	2.985072344218148E+003	1.4598264E+000	7.530246729666703E+001	8.7914600E+003	1.5728242E+002	3.000000000000000E+000	8	5.2549602E-003	1.2548085E-001	0	6.974726205729842E-001	2.3663992E+001	3.1938729E+000	2.3878553E+001	7.6866264E+000	1.5728252E+005	1.1653345E+006	1.1759006E+006	-8.2313370E+001	0.0000000E+000	0.0000000E+000	0.0000000E+000	8.2313370E+001	0.0000000E+000	0.0000000E+000	0.0000000E+000	-8.2313370E+001	0.0000000E+000	0.0000000E+000	0.0000000E+000	-7.6866264E+000	0.0000000E+000	0.0000000E+000	0.0000000E+000	7.6866264E+000	7.4091840E+000	8.2313370E+001	5.357254841052761E-003	1.2545845E-001	1.6986444E+001
2.0506560E+003	4.2526077E-002	9.7528556E-003	4.3630097E-002	-1.2916748E+001	2.985328073350232E+003	1.4598219E+000	8.525477827728928E+001	7.9578457E+003	3.9763699E+002	3.000000000000000E+000	8	5.2483878E-003	1.2029283E-001	0	7.035287679215703E-001	2.2339989E+001	5.1234136E+000	2.2919958E+001	1.2916748E+001	3.9763694E+005	1.7338450E+006	1.7788574E+006	-7.7083252E+001	0.0000000E+000	0.0000000E+000	0.0000000E+000	7.7083252E+001	0.0000000E+000	0.0000000E+000	0.0000000E+000	-7.7083252E+001	0.0000000E+000	0.0000000E+000	0.0000000E+000	-1.2916748E+001	0.0000000E+000	0.0000000E+000	0.0000000E+000	1.2916748E+001	4.3603721E+000	7.7083252E+001	6.056147348586061E-003	1.2640728E-001	1.6858839E+001
1.3004161E+003	4.4723164E-002	1.5070630E-002	4.7194123E-002	-1.8622580E+001	2.985582052402300E+003	1.4598174E+000	8.652130586695091E+001	8.1209409E+003	8.2812018E+002	3.000000000000000E+000	8	5.2119098E-003	1.1043557E-001	0	7.096328232681677E-001	2.0079676E+001	6.7663679E+000	2.1189079E+001	1.8622580E+001	8.2812031E+005	2.4575053E+006	2.5932828E+006	-7.1377419E+001	0.0000000E+000	0.0000000E+000	0.0000000E+000	7.1377419E+001	0.0000000E+000	0.0000000E+000	0.0000000E+000	-7.1377419E+001	0.0000000E+000	0.0000000E+000	0.0000000E+000	-1.8622580E+001	0.0000000E+000	0.0000000E+000	0.0000000E+000	1.8622580E+001	2.9675710E+000	7.1377419E+001	6.104055346597415E-003	1.2726253E-001	1.6745438E+001
8.2420856E+002	4.9214680E-002	2.1922059E-002	5.3876352E-002	-2.4009979E+001	2.985836318974441E+003	1.4598228E+000	8.628920126259914E+001	8.8084941E+003	1.4583708E+003	3.000000000000000E+000	8	5.1676561E-003	9.5916964E-002	0	7.157273953286798E-001	1.6955021E+001	7.5524001E+000	1.8561020E+001	2.4009979E+001	1.4583709E+006	3.2740198E+006	3.5841388E+006	-6.5990021E+001	0.0000000E+000	0.0000000E+000	0.0000000E+000	6.5990021E+001	0.0000000E+000	0.0000000E+000	0.0000000E+000	-6.5990021E+001	0.0000000E+000	0.0000000E+000	0.0000000E+000	-2.4009979E+001	0.0000000E+000	0.0000000E+000	0.0000000E+000	2.4009979E+001	2.2449844E+000	6.5990021E+001	6.094572060512116E-003	1.2726301E-001	1.6745499E+001
5.2249200E+002	5.6503072E-002	2.9378328E-002	6.3684247E-002	-2.7471821E+001	2.986093156933319E+003	1.4598237E+000	8.951571293921805E+001	1.0368439E+004	2.2064980E+003	3.000000000000000E+000	8	5.1151486E-003	8.0320470E-002	0	7.221137933838930E-001	1.3931825E+001	7.2437425E+000	1.5702470E+001	2.7471821E+001	2.2064978E+006	4.2437375E+006	4.7830890E+006	-6.2528179E+001	0.0000000E+000	0.0000000E+000	0.0000000E+000	6.2528179E+001	0.0000000E+000	0.0000000E+000	0.0000000E+000	-6.2528179E+001	0.0000000E+000	0.0000000E+000	0.0000000E+000	-2.7471821E+001	0.0000000E+000	0.0000000E+000	0.0000000E+000	2.7471821E+001	1.9232910E+000	6.2528183E+001	6.386398055213238E-003	1.2697425E-001	1.6783602E+001
3.3137851E+002	6.7844450E-002	3.6223374E-002	7.6909050E-002	-2.8098562E+001	2.986346260118662E+003	1.4598317E+000	8.996297337418173E+001	1.3258882E+004	2.9412356E+003	3.000000000000000E+000	8	5.0846511E-003	6.6112518E-002	0	7.284387698072129E-001	1.1469894E+001	6.1239834E+000	1.3002371E+001	2.8098562E+001	2.9412358E+006	5.5087775E+006	6.2447975E+006	-6.1901436E+001	0.0000000E+000	0.0000000E+000	0.0000000E+000	6.1901436E+001	0.0000000E+000	0.0000000E+000	0.0000000E+000	-6.1901436E+001	0.0000000E+000	0.0000000E+000	0.0000000E+000	-2.8098562E+001	0.0000000E+000	0.0000000E+000	0.0000000E+000	2.8098562E+001	1.8729467E+000	6.1901436E+001	6.324976423319861E-003	1.2691945E-001	1.6791033E+001
2.1006726E+002	8.0828153E-002	3.9733984E-002	9.0066530E-002	-2.6178083E+001	2.986602077784119E+003	1.4598241E+000	8.732124330228440E+001	1.9067760E+004	3.7110518E+003	3.000000000000000E+000	8	5.0630472E-003	5.6214526E-002	0	7.346438577534226E-001	9.9640474E+000	4.8981857E+000	1.1102903E+001	2.6178083E+001	3.7110523E+006	7.5491410E+006	8.4119820E+006	-6.3821915E+001	0.0000000E+000	0.0000000E+000	0.0000000E+000	6.3821915E+001	0.0000000E+000	0.0000000E+000	0.0000000E+000	-6.3821915E+001	0.0000000E+000	0.0000000E+000	0.0000000E+000	-2.6178083E+001	0.0000000E+000	0.0000000E+000	0.0000000E+000	2.6178083E+001	2.0342324E+000	6.3821915E+001	6.205087946209664E-003	1.2637646E-001	1.6862999E+001
1.3316759E+002	9.3194649E-002	4.2017538E-002	1.0222875E-001	-2.4268604E+001	2.986859042169628E+003	1.4598267E+000	8.803573450805460E+001	2.8444021E+004	4.8051411E+003	3.000000000000000E+000	8	5.0484454E-003	4.9383815E-002	0	7.409277600925167E-001	8.9175367E+000	4.0205412E+000	9.7819843E+000	2.4268604E+001	4.8051400E+006	1.0657774E+007	1.1690916E+007	-6.5731400E+001	0.0000000E+000	0.0000000E+000	0.0000000E+000	6.5731400E+001	0.0000000E+000	0.0000000E+000	0.0000000E+000	-6.5731400E+001	0.0000000E+000	0.0000000E+000	0.0000000E+000	-2.4268604E+001	0.0000000E+000	0.0000000E+000	0.0000000E+000	2.4268604E+001	2.2179940E+000	6.5731400E+001	6.283902339094150E-003	1.2602474E-001	1.6910124E+001
8.4486305E+001	1.0302670E-001	4.5049768E-002	1.1244547E-001	-2.3617981E+001	2.989836504124440E+003	1.4598238E+000	7.749009825811250E+001	4.1815879E+004	6.7118530E+003	3.000000000000000E+000	8	5.1781340E-003	4.6050180E-002	0	8.050177099364449E-001	8.1482792E+000	3.5629413E+000	8.8931999E+000	2.3617981E+001	6.7118530E+006	1.5349693E+007	1.6752971E+007	-6.6382019E+001	0.0000000E+000	0.0000000E+000	0.0000000E+000	6.6382019E+001	0.0000000E+000	0.0000000E+000	0.0000000E+000	-6.6382019E+001	0.0000000E+000	0.0000000E+000	0.0000000E+000	-2.3617981E+001	0.0000000E+000	0.0000000E+000	0.0000000E+000	2.3617981E+001	2.2869530E+000	6.6382019E+001	6.408994984392824E-002	1.2688887E-001	1.6794899E+001
5.3577000E+001	1.1249910E-001	5.2154705E-002	1.2400065E-001	-2.4872490E+001	2.990373602976601E+003	1.4597989E+000	7.976994998377469E+001	5.6957148E+004	1.0075981E+004	3.000000000000000E+000	9	5.2537918E-003	4.2369068E-002	0	8.169189178734488E-001	7.3164625E+000	3.3919199E+000	8.0644741E+000	2.4872490E+001	1.0075980E+007	2.1734160E+007	2.3956192E+007	-6.5127510E+001	0.0000000E+000	0.0000000E+000	0.0000000E+000	6.5127510E+001	0.0000000E+000	0.0000000E+000	0.0000000E+000	-6.5127510E+001	0.0000000E+000	0.0000000E+000	0.0000000E+000	-2.4872490E+001	0.0000000E+000	0.0000000E+000	0.0000000E+000	2.4872490E+001	2.1570268E+000	6.5127510E+001	1.190120793700389E-002	1.2139378E-001	1.7554546E+001
3.3967392E+001	1.2546705E-001	6.5545850E-002	1.4155649E-001	-2.7583235E+001	2.990635516055700E+003	1.4598035E+000	8.060898893228766E+001	7.1484641E+004	1.5326521E+004	3.000000000000000E+000	9	5.2303090E-003	3.6948565E-002	0	8.227835146774253E-001	6.2613811E+000	3.2710383E+000	7.0643177E+000	2.7583235E+001	1.5326521E+007	2.9337834E+007	3.3100012E+007	-6.2416763E+001	0.0000000E+000	0.0000000E+000	0.0000000E+000	6.2416763E+001	0.0000000E+000	0.0000000E+000	0.0000000E+000	-6.2416763E+001	0.0000000E+000	0.0000000E+000	0.0000000E+000	-2.7583235E+001	0.0000000E+000	0.0000000E+000	0.0000000E+000	2.7583235E+001	1.9141876E+000	6.2416763E+001	5.864596803976441E-003	1.2097213E-001	1.7615843E+001
2.1551722E+001	1.4658418E-001	8.3076134E-002	1.6848907E-001	-2.9542261E+001	2.990876010973749E+003	1.4597932E+000	7.850016018899090E+001	8.8891836E+004	2.1610807E+004	3.000000000000000E+000	9	5.1960964E-003	3.0839369E-002	0	8.280276506750617E-001	5.1634936E+000	2.9263940E+000	5.9351029E+000	2.9542261E+001	2.1610804E+007	3.8131320E+007	4.3829492E+007	-6.0457741E+001	0.0000000E+000	0.0000000E+000	0.0000000E+000	6.0457741E+001	0.0000000E+000	0.0000000E+000	0.0000000E+000	-6.0457741E+001	0.0000000E+000	0.0000000E+000	0.0000000E+000	-2.9542261E+001	0.0000000E+000	0.0000000E+000	0.0000000E+000	2.9542261E+001	1.7644560E+000	6.0457741E+001	5.244135997636401E-003	1.2066383E-001	1.7660604E+001
1.3658218E+001	1.8051231E-001	9.8785296E-002	2.0577471E-001	-2.8689667E+001	2.991152770773610E+003	1.4597988E+000	7.857611058128180E+001	1.1795973E+005	2.7185316E+004	3.000000000000000E+000	9	5.1844013E-003	2.5194550E-002	0	8.340684030745956E-001	4.2630734E+000	2.3329654E+000	4.8596835E+000	2.8689667E+001	2.7185316E+007	4.9676264E+007	5.6628372E+007	-6.1310333E+001	0.0000000E+000	0.0000000E+000	0.0000000E+000	6.1310333E+001	0.0000000E+000	0.0000000E+000	0.0000000E+000	-6.1310333E+001	0.0000000E+000	0.0000000E+000	0.0000000E+000	-2.8689667E+001	0.0000000E+000	0.0000000E+000	0.0000000E+000	2.8689667E+001	1.8273196E+000	6.1310333E+001	6.040752399533944E-003	1.2046238E-001	1.7690275E+001
8.6613073E+000	2.2311756E-001	1.0207859E-001	2.4535991E-001	-2.4584583E+001	2.991439578600563E+003	1.4598101E+000	8.050473402786926E+001	1.8001223E+005	3.1157607E+004	3.000000000000000E+000	9	5.1821847E-003	2.1120748E-002	0	8.404821219151409E-001	3.7061803E+000	1.6956158E+000	4.0756454E+000	2.4584583E+001	3.1157606E+007	6.8102536E+007	7.4891600E+007	-6.5415421E+001	0.0000000E+000	0.0000000E+000	0.0000000E+000	6.5415421E+001	0.0000000E+000	0.0000000E+000	0.0000000E+000	-6.5415421E+001	0.0000000E+000	0.0000000E+000	0.0000000E+000	-2.4584583E+001	0.0000000E+000	0.0000000E+000	0.0000000E+000	2.4584583E+001	2.1857431E+000	6.5415421E+001	6.413718840545313E-003	1.2028047E-001	1.7717304E+001
5.4940224E+000	2.6183566E-001	8.9077026E-002	2.7657300E-001	-1.8788410E+001	2.991866348700845E+003	1.4598123E+000	8.091494899513006E+001	3.2521006E+005	3.3734621E+004	3.000000000000000E+000	9	5.1771444E-003	1.8718908E-002	0	8.500743666087588E-001	3.4230182E+000	1.1645179E+000	3.6156819E+000	1.8788410E+001	3.3734616E+007	9.9160552E+007	1.0474178E+008	-7.1211594E+001	0.0000000E+000	0.0000000E+000	0.0000000E+000	7.1211594E+001	0.0000000E+000	0.0000000E+000	0.0000000E+000	-7.1211594E+001	0.0000000E+000	0.0000000E+000	0.0000000E+000	-1.8788410E+001	0.0000000E+000	0.0000000E+000	0.0000000E+000	1.8788410E+001	2.9394298E+000	7.1211594E+001	9.592244693617857E-003	1.1983500E-001	1.7783218E+001
3.4799554E+000	2.8832832E-001	7.0428610E-002	2.9680535E-001	-1.3726583E+001	2.992512637878172E+003	1.4598148E+000	7.921279609675386E+001	6.4937763E+005	3.6563863E+004	3.000000000000000E+000	9	5.1760185E-003	1.7439101E-002	0	8.642950257262819E-001	3.2729838E+000	7.9947644E-001	3.3692114E+000	1.3726583E+001	3.6563872E+007	1.4968915E+008	1.5409010E+008	-7.6273415E+001	0.0000000E+000	0.0000000E+000	0.0000000E+000	7.6273415E+001	0.0000000E+000	0.0000000E+000	0.0000000E+000	-7.6273415E+001	0.0000000E+000	0.0000000E+000	0.0000000E+000	-1.3726583E+001	0.0000000E+000	0.0000000E+000	0.0000000E+000	1.3726583E+001	4.0939088E+000	7.6273415E+001	1.422065911752313E-002	1.1951787E-001	1.7830465E+001
2.2094176E+000	2.9888970E-001	5.1938925E-002	3.0336893E-001	-9.8580122E+000	2.993503483845256E+003	1.4598148E+000	8.152921129487670E+001	1.3869135E+006	4.0653047E+004	3.000000000000000E+000	9	5.1743253E-003	1.7056214E-002	0	8.867347174515824E-001	3.2476468E+000	5.6435293E-001	3.2963166E+000	9.8580122E+000	4.0653040E+007	2.3394358E+008	2.3744950E+008	-8.0141991E+001	0.0000000E+000	0.0000000E+000	0.0000000E+000	8.0141991E+001	0.0000000E+000	0.0000000E+000	0.0000000E+000	-8.0141991E+001	0.0000000E+000	0.0000000E+000	0.0000000E+000	-9.8580122E+000	0.0000000E+000	0.0000000E+000	0.0000000E+000	9.8580122E+000	5.7546377E+000	8.0141991E+001	2.243969172530047E-002	1.2040491E-001	1.7699104E+001
1.4008425E+000	3.0794048E-001	4.4609506E-002	3.1115487E-001	-8.2427578E+000	2.995042289145029E+003	1.4598162E+000	8.298848911605691E+001	2.5468503E+006	5.2348594E+004	3.000000000000000E+000	9	5.1744273E-003	1.6629748E-002	0	9.222078082493494E-001	3.1806331E+000	4.6075937E-001	3.2138336E+000	8.2427578E+000	5.2348604E+007	3.6136358E+008	3.6513562E+008	-8.1757240E+001	0.0000000E+000	0.0000000E+000	0.0000000E+000	8.1757240E+001	0.0000000E+000	0.0000000E+000	0.0000000E+000	-8.1757240E+001	0.0000000E+000	0.0000000E+000	0.0000000E+000	-8.2427578E+000	0.0000000E+000	0.0000000E+000	0.0000000E+000	8.2427578E+000	6.9030237E+000	8.1757240E+001	3.547309079776706E-002	1.2049600E-001	1.7685760E+001
2.0004455E+004	4.1164942E-002	-7.0440224E-003	4.1763268E-002	9.7102375E+000	2.995968003748960E+003	1.4598559E+000	7.991929835655547E+001	-1.1294647E+003	-3.2131069E+001	4.000000000000000E+000	8	4.6344697E-003	1.1097000E-001	0	9.427584920339518E-001	2.3601442E+001	-4.0386090E+000	2.3944487E+001	-9.7102375E+000	-3.2131064E+004	1.8777248E+005	1.9050173E+005	-9.9710236E+001	0.0000000E+000	0.0000000E+000	0.0000000E+000	9.9710236E+001	0.0000000E+000	0.0000000E+000	0.0000000E+000	-9.9710236E+001	0.0000000E+000	0.0000000E+000	0.0000000E+000	9.7102375E+000	0.0000000E+000	0.0000000E+000	0.0000000E+000	-9.7102375E+000	5.8439541E+000	8.0289764E+001	2.055068378460234E-002	1.2402107E-001	1.7184010E+001
1.2683716E+004	4.0814959E-002	-3.6178187E-003	4.0974986E-002	5.0654321E+000	2.996464996252544E+003	1.4598513E+000	7.810795936662846E+001	-3.4683811E+003	-2.7038511E+001	4.000000000000000E+000	8	5.0023589E-003	1.2208324E-001	0	9.535415671104657E-001	2.4309820E+001	-2.1548109E+000	2.4405134E+001	-5.0654321E+000	-2.7038500E+004	3.0503900E+005	3.0623500E+005	-9.5065430E+001	0.0000000E+000	0.0000000E+000	0.0000000E+000	9.5065430E+001	0.0000000E+000	0.0000000E+000	0.0000000E+000	-9.5065430E+001	0.0000000E+000	0.0000000E+000	0.0000000E+000	5.0654321E+000	0.0000000E+000	0.0000000E+000	0.0000000E+000	-5.0654321E+000	1.1281649E+001	8.4934570E+001	1.078307507651388E-002	1.2366764E-001	1.7233009E+001
8.0395156E+003	4.0723529E-002	-4.4617226E-004	4.0725973E-002	6.2771487E-001	2.996833962750083E+003	1.4598573E+000	8.377638854306529E+001	-4.4369824E+004	-5.3253713E+000	4.000000000000000E+000	8	5.2672857E-003	1.2933481E-001	0	9.621278672930234E-001	2.4552881E+001	-2.6900455E-001	2.4554356E+001	-6.2771487E-001	-5.3253813E+003	4.8606319E+005	4.8609238E+005	-9.0627716E+001	0.0000000E+000	0.0000000E+000	0.0000000E+000	9.0627716E+001	0.0000000E+000	0.0000000E+000	0.0000000E+000	-9.0627716E+001	0.0000000E+000	0.0000000E+000	0.0000000E+000	6.2771487E-001	0.0000000E+000	0.0000000E+000	0.0000000E+000	-6.2771487E-001	9.1273109E+001	8.9372284E+001	8.586300182557682E-003	1.2423826E-001	1.7154003E+001
5.0966309E+003	4.0907558E-002	2.4586048E-003	4.0981375E-002	-3.4394238E+000	2.997337206827375E+003	1.4598268E+000	8.929104345046255E+001	1.2701302E+004	4.5714359E+001	4.000000000000000E+000	8	5.1297075E-003	1.2517168E-001	0	9.746098641740432E-001	2.4357376E+001	1.4639144E+000	2.4401329E+001	3.4394238E+000	4.5714340E+004	7.6061950E+005	7.6199200E+005	-8.6560577E+001	0.0000000E+000	0.0000000E+000	0.0000000E+000	8.6560577E+001	0.0000000E+000	0.0000000E+000	0.0000000E+000	-8.6560577E+001	0.0000000E+000	0.0000000E+000	0.0000000E+000	-3.4394238E+000	0.0000000E+000	0.0000000E+000	0.0000000E+000	3.4394238E+000	1.6638525E+001	8.6560577E+001	1.248199688101981E-002	1.2469258E-001	1.7090788E+001
3.2318972E+003	4.1455876E-002	5.6938487E-003	4.1845065E-002	-7.8204846E+000	2.997593316519531E+003	1.4598311E+000	9.190713160734023E+001	8.6488164E+003	1.6013271E+002	4.000000000000000E+000	8	5.2527655E-003	1.2552892E-001	0	9.811482828359670E-001	2.3675413E+001	3.2517521E+000	2.3897680E+001	7.8204846E+000	1.6013277E+005	1.1658970E+006	1.1768425E+006	-8.2179512E+001	0.0000000E+000	0.0000000E+000	0.0000000E+000	8.2179512E+001	0.0000000E+000	0.0000000E+000	0.0000000E+000	-8.2179512E+001	0.0000000E+000	0.0000000E+000	0.0000000E+000	-7.8204846E+000	0.0000000E+000	0.0000000E+000	0.0000000E+000	7.8204846E+000	7.2808180E+000	8.2179512E+001	6.538418661923839E-003	1.2511453E-001	1.7033249E+001
2.0506560E+003	4.2611007E-002	9.9201351E-003	4.3750510E-002	-1.3105412E+001	2.997849074504964E+003	1.4598324E+000	9.196742649102559E+001	7.8236553E+003	4.0223392E+002	4.000000000000000E+000	8	5.2610403E-003	1.2025095E-001	0	9.876820060928531E-001	2.2261559E+001	5.1826434E+000	2.2856876E+001	1.3105412E+001	4.0223375E+005	1.7277579E+006	1.7739615E+006	-7.6894592E+001	0.0000000E+000	0.0000000E+000	0.0000000E+000	7.6894592E+001	0.0000000E+000	0.0000000E+000	0.0000000E+000	-7.6894592E+001	0.0000000E+000	0.0000000E+000	0.0000000E+000	-1.3105412E+001	0.0000000E+000	0.0000000E+000	0.0000000E+000	1.3105412E+001	4.2954059E+000	7.6894592E+001	6.533723256886059E-003	1.2524953E-001	1.7014919E+001
1.3004161E+003	4.4956438E-002	1.5204079E-002	4.7457825E-002	-1.8685322E+001	2.998103058250374E+003	1.4598317E+000	8.445925073922886E+001	8.0496626E+003	8.2619434E+002	4.000000000000000E+000	8	5.2191867E-003	1.0997526E-001	0	9.936406941031979E-001	1.9960720E+001	6.7506323E+000	2.1071341E+001	1.8685322E+001	8.2619419E+005	2.4429468E+006	2.5788730E+006	-7.1314682E+001	0.0000000E+000	0.0000000E+000	0.0000000E+000	7.1314682E+001	0.0000000E+000	0.0000000E+000	0.0000000E+000	-7.1314682E+001	0.0000000E+000	0.0000000E+000	0.0000000E+000	-1.8685322E+001	0.0000000E+000	0.0000000E+000	0.0000000E+000	1.8685322E+001	2.9568670E+000	7.1314682E+001	5.958688010344826E-003	1.2504767E-001	1.7042370E+001
8.2420856E+002	4.9251880E-002	2.2140611E-002	5.3999577E-002	-2.4205746E+001	2.998359327009253E+003	1.4598317E+000	8.055796271300844E+001	8.7215439E+003	1.4661956E+003	4.000000000000000E+000	8	5.1682461E-003	9.5709011E-002	0	9.993752744149599E-001	1.6890484E+001	7.5929203E+000	1.8518663E+001	2.4205746E+001	1.4661958E+006	3.2615583E+006	3.5759603E+006	-6.5794250E+001	0.0000000E+000	0.0000000E+000	0.0000000E+000	6.5794250E+001	0.0000000E+000	0.0000000E+000	0.0000000E+000	-6.5794250E+001	0.0000000E+000	0.0000000E+000	0.0000000E+000	-2.4205746E+001	0.0000000E+000	0.0000000E+000	0.0000000E+000	2.4205746E+001	2.2245042E+000	6.5794250E+001	5.734580311761994E-003	1.2485185E-001	1.7069101E+001
5.2249200E+002	5.6813620E-002	2.9860215E-002	6.4182706E-002	-2.7725607E+001	2.998616143741463E+003	1.4598269E+000	7.823662065423636E+001	1.0201113E+004	2.2079915E+003	4.000000000000000E+000	8	5.1202495E-003	7.9776153E-002	0	1.004956516985946E+000	1.3791656E+001	7.2486458E+000	1.5580521E+001	2.7725607E+001	2.2079913E+006	4.2010405E+006	4.7459420E+006	-6.2274391E+001	0.0000000E+000	0.0000000E+000	0.0000000E+000	6.2274391E+001	0.0000000E+000	0.0000000E+000	0.0000000E+000	-6.2274391E+001	0.0000000E+000	0.0000000E+000	0.0000000E+000	-2.7725607E+001	0.0000000E+000	0.0000000E+000	0.0000000E+000	2.7725607E+001	1.9026527E+000	6.2274391E+001	5.581242570986356E-003	1.2449568E-001	1.7117821E+001
3.3137851E+002	6.8041049E-002	3.6512863E-002	7.7218994E-002	-2.8219339E+001	2.998871269593568E+003	1.4598258E+000	7.742062051217039E+001	1.3153760E+004	2.9409890E+003	4.000000000000000E+000	8	5.0799954E-003	6.5786861E-002	0	1.010443184146692E+000	1.1410974E+001	6.1234703E+000	1.2950182E+001	2.8219339E+001	2.9409888E+006	5.4804785E+006	6.2197315E+006	-6.1780663E+001	0.0000000E+000	0.0000000E+000	0.0000000E+000	6.1780663E+001	0.0000000E+000	0.0000000E+000	0.0000000E+000	-6.1780663E+001	0.0000000E+000	0.0000000E+000	0.0000000E+000	-2.8219339E+001	0.0000000E+000	0.0000000E+000	0.0000000E+000	2.8219339E+001	1.8634816E+000	6.1780663E+001	5.486667160746084E-003	1.2434707E-001	1.7138250E+001
2.1006726E+002	8.1601962E-002	4.0804569E-002	9.1235369E-002	-2.6567066E+001	2.999127088965659E+003	1.4598216E+000	8.687716378636610E+001	1.8567480E+004	3.7140188E+003	4.000000000000000E+000	8	5.0655105E-003	5.5521347E-002	0	1.016616756782482E+000	9.8033419E+000	4.9021020E+000	1.0960662E+001	2.6567066E+001	3.7140185E+006	7.4273840E+006	8.3042140E+006	-6.3432934E+001	0.0000000E+000	0.0000000E+000	0.0000000E+000	6.3432934E+001	0.0000000E+000	0.0000000E+000	0.0000000E+000	-6.3432934E+001	0.0000000E+000	0.0000000E+000	0.0000000E+000	-2.6567066E+001	0.0000000E+000	0.0000000E+000	0.0000000E+000	2.6567066E+001	1.9998242E+000	6.3432938E+001	6.173572635789659E-003	1.2403394E-001	1.7181419E+001
1.3316759E+002	9.3357228E-002	4.2321689E-002	1.0250218E-001	-2.4386242E+001	2.999386006071334E+003	1.4598197E+000	8.636944703895382E+001	2.8239605E+004	4.8141362E+003	4.000000000000000E+000	8	5.0525581E-003	4.9292199E-002	0	1.022828569906397E+000	8.8854971E+000	4.0280681E+000	9.7558899E+000	2.4386242E+001	4.8141365E+006	1.0619481E+007	1.1659729E+007	-6.5613754E+001	0.0000000E+000	0.0000000E+000	0.0000000E+000	6.5613754E+001	0.0000000E+000	0.0000000E+000	0.0000000E+000	-6.5613754E+001	0.0000000E+000	0.0000000E+000	0.0000000E+000	-2.4386242E+001	0.0000000E+000	0.0000000E+000	0.0000000E+000	2.4386242E+001	2.2058957E+000	6.5613754E+001	6.211813123915055E-003	1.2391574E-001	1.7197763E+001
8.4486305E+001	1.0361411E-001	4.4904903E-002	1.1292624E-001	-2.3431231E+001	3.002363508692753E+003	1.4598166E+000	7.672363332770449E+001	4.1950777E+004	6.6334253E+003	4.000000000000000E+000	8	5.1786238E-003	4.5858465E-002	0	1.086285464172522E+000	8.1251097E+000	3.5213082E+000	8.8553381E+000	2.3431231E+001	6.6334250E+006	1.5306047E+007	1.6681649E+007	-6.6568771E+001	0.0000000E+000	0.0000000E+000	0.0000000E+000	6.6568771E+001	0.0000000E+000	0.0000000E+000	0.0000000E+000	-6.6568771E+001	0.0000000E+000	0.0000000E+000	0.0000000E+000	-2.3431231E+001	0.0000000E+000	0.0000000E+000	0.0000000E+000	2.3431231E+001	2.3074121E+000	6.6568771E+001	6.345689426612511E-002	1.2457584E-001	1.7106564E+001
5.3577000E+001	1.1284576E-001	5.2352060E-002	1.2439816E-001	-2.4887802E+001	3.002900602024936E+003	1.4597933E+000	7.854993262641364E+001	5.6742434E+004	1.0049572E+004	4.000000000000000E+000	9	5.2563953E-003	4.2254604E-002	0	1.098004532243927E+000	7.2921786E+000	3.3830299E+000	8.0387039E+000	2.4887802E+001	1.0049572E+007	2.1662024E+007	2.3879640E+007	-6.5112198E+001	0.0000000E+000	0.0000000E+000	0.0000000E+000	6.5112198E+001	0.0000000E+000	0.0000000E+000	0.0000000E+000	-6.5112198E+001	0.0000000E+000	0.0000000E+000	0.0000000E+000	-2.4887802E+001	0.0000000E+000	0.0000000E+000	0.0000000E+000	2.4887802E+001	2.1555171E+000	6.5112198E+001	1.171906807140521E-002	1.1928455E-001	1.7864817E+001
3.3967392E+001	1.2562904E-001	6.5879665E-002	1.4185481E-001	-2.7672443E+001	3.003162507157380E+003	1.4597986E+000	7.969418367087395E+001	7.1122422E+004	1.5339853E+004	4.000000000000000E+000	9	5.2297018E-003	3.6866579E-002	0	1.103802397724291E+000	6.2431235E+000	3.2738838E+000	7.0494614E+000	2.7672443E+001	1.5339852E+007	2.9252288E+007	3.3030402E+007	-6.2327557E+001	0.0000000E+000	0.0000000E+000	0.0000000E+000	6.2327557E+001	0.0000000E+000	0.0000000E+000	0.0000000E+000	-6.2327557E+001	0.0000000E+000	0.0000000E+000	0.0000000E+000	-2.7672443E+001	0.0000000E+000	0.0000000E+000	0.0000000E+000	2.7672443E+001	1.9069471E+000	6.2327560E+001	5.797865480363429E-003	1.1905420E-001	1.7899511E+001
2.1551722E+001	1.4686084E-001	8.3667420E-002	1.6902173E-001	-2.9670401E+001	3.003403003755418E+003	1.4597912E+000	7.758404557690926E+001	8.8263625E+004	2.1627656E+004	4.000000000000000E+000	9	5.2025747E-003	3.0780509E-002	0	1.108985369675212E+000	5.1406841E+000	2.9286759E+000	5.9163990E+000	2.9670401E+001	2.1627660E+007	3.7962876E+007	4.3691368E+007	-6.0329597E+001	0.0000000E+000	0.0000000E+000	0.0000000E+000	6.0329597E+001	0.0000000E+000	0.0000000E+000	0.0000000E+000	-6.0329597E+001	0.0000000E+000	0.0000000E+000	0.0000000E+000	-2.9670401E+001	0.0000000E+000	0.0000000E+000	0.0000000E+000	2.9670401E+001	1.7552930E+000	6.0329597E+001	5.182971950921544E-003	1.1884122E-001	1.7931408E+001
1.3658218E+001	1.8058969E-001	9.9626943E-002	2.0624782E-001	-2.8884453E+001	3.003679767181908E+003	1.4598000E+000	7.736839386471490E+001	1.1696321E+005	2.7291295E+004	4.000000000000000E+000	9	5.1809479E-003	2.5120012E-002	0	1.114933353505202E+000	4.2453570E+000	2.3420601E+000	4.8485360E+000	2.8884453E+001	2.7291296E+007	4.9469820E+007	5.6498476E+007	-6.1115547E+001	0.0000000E+000	0.0000000E+000	0.0000000E+000	6.1115547E+001	0.0000000E+000	0.0000000E+000	0.0000000E+000	-6.1115547E+001	0.0000000E+000	0.0000000E+000	0.0000000E+000	-2.8884453E+001	0.0000000E+000	0.0000000E+000	0.0000000E+000	2.8884453E+001	1.8126591E+000	6.1115547E+001	5.947983829990067E-003	1.1857995E-001	1.7971132E+001
8.6613073E+000	2.2406796E-001	1.0338318E-001	2.4676818E-001	-2.4768227E+001	3.003966586902228E+003	1.4598097E+000	7.913312732795625E+001	1.7774064E+005	3.1196672E+004	4.000000000000000E+000	9	5.1827775E-003	2.1002617E-002	0	1.121238059463064E+000	3.6796072E+000	1.6977416E+000	4.0523863E+000	2.4768227E+001	3.1196674E+007	6.7614232E+007	7.4464200E+007	-6.5231773E+001	0.0000000E+000	0.0000000E+000	0.0000000E+000	6.5231773E+001	0.0000000E+000	0.0000000E+000	0.0000000E+000	-6.5231773E+001	0.0000000E+000	0.0000000E+000	0.0000000E+000	-2.4768227E+001	0.0000000E+000	0.0000000E+000	0.0000000E+000	2.4768227E+001	2.1673541E+000	6.5231773E+001	6.304705957861589E-003	1.1839953E-001	1.7998756E+001
5.4940224E+000	2.6311156E-001	9.0764031E-002	2.7832678E-001	-1.9032595E+001	3.004393320095856E+003	1.4598085E+000	7.998590471766235E+001	3.1916550E+005	3.3941691E+004	4.000000000000000E+000	9	5.1755290E-003	1.8595153E-002	0	1.130719348509007E+000	3.3964868E+000	1.1716659E+000	3.5928991E+000	1.9032595E+001	3.3941692E+007	9.8391968E+007	1.0408178E+008	-7.0967407E+001	0.0000000E+000	0.0000000E+000	0.0000000E+000	7.0967407E+001	0.0000000E+000	0.0000000E+000	0.0000000E+000	-7.0967407E+001	0.0000000E+000	0.0000000E+000	0.0000000E+000	-1.9032595E+001	0.0000000E+000	0.0000000E+000	0.0000000E+000	1.9032595E+001	2.8988528E+000	7.0967407E+001	9.481289045943031E-003	1.1828985E-001	1.8015415E+001
3.4799554E+000	2.8851438E-001	7.1811385E-002	2.9731703E-001	-1.3976940E+001	3.005038625006491E+003	1.4598138E+000	7.887210257904233E+001	6.3687344E+005	3.7153539E+004	4.000000000000000E+000	9	5.1769465E-003	1.7412210E-002	0	1.144857280482994E+000	3.2638326E+000	8.1236976E-001	3.3634131E+000	1.3976940E+001	3.7153552E+007	1.4927062E+008	1.5382491E+008	-7.6023056E+001	0.0000000E+000	0.0000000E+000	0.0000000E+000	7.6023056E+001	0.0000000E+000	0.0000000E+000	0.0000000E+000	-7.6023056E+001	0.0000000E+000	0.0000000E+000	0.0000000E+000	-1.3976940E+001	0.0000000E+000	0.0000000E+000	0.0000000E+000	1.3976940E+001	4.0176692E+000	7.6023056E+001	1.413793197398716E-002	1.1879531E-001	1.7938892E+001
2.2094176E+000	2.9947761E-001	5.4371789E-002	3.0437332E-001	-1.0290275E+001	3.006029554626890E+003	1.4598165E+000	8.130388549723054E+001	1.3248561E+006	4.2276863E+004	4.000000000000000E+000	9	5.1724412E-003	1.6993741E-002	0	1.167236843925413E+000	3.2325940E+000	5.8689511E-001	3.2854390E+000	1.0290275E+001	4.2276872E+007	2.3285925E+008	2.3666594E+008	-7.9709724E+001	0.0000000E+000	0.0000000E+000	0.0000000E+000	7.9709724E+001	0.0000000E+000	0.0000000E+000	0.0000000E+000	-7.9709724E+001	0.0000000E+000	0.0000000E+000	0.0000000E+000	-1.0290275E+001	0.0000000E+000	0.0000000E+000	0.0000000E+000	1.0290275E+001	5.5079594E+000	7.9709724E+001	2.237956344241887E-002	1.2025589E-001	1.7721079E+001
1.4008425E+000	3.0945063E-001	4.4214468E-002	3.1259337E-001	-8.1314154E+000	3.007568314193326E+003	1.4598131E+000	8.182512833099197E+001	2.5696053E+006	5.1408590E+004	4.000000000000000E+000	9	5.1769619E-003	1.6561329E-002	0	1.202211621423794E+000	3.1668818E+000	4.5248574E-001	3.1990442E+000	8.1314154E+000	5.1408596E+007	3.5980125E+008	3.6345533E+008	-8.1868584E+001	0.0000000E+000	0.0000000E+000	0.0000000E+000	8.1868584E+001	0.0000000E+000	0.0000000E+000	0.0000000E+000	-8.1868584E+001	0.0000000E+000	0.0000000E+000	0.0000000E+000	-8.1314154E+000	0.0000000E+000	0.0000000E+000	0.0000000E+000	8.1314154E+000	6.9988542E+000	8.1868584E+001	3.497477749838107E-002	1.1889390E-001	1.7924000E+001
2.0004455E+004	4.1243028E-002	-6.9876802E-003	4.1830789E-002	9.6161308E+000	3.008494986237303E+003	1.4598510E+000	8.079743904872534E+001	-1.1385718E+003	-3.1771252E+001	5.000000000000000E+000	8	4.6130666E-003	1.1027921E-001	0	1.223009601421409E+000	2.3569937E+001	-3.9933822E+000	2.3905836E+001	-9.6161308E+000	-3.1771264E+004	1.8752184E+005	1.9019425E+005	-9.9616135E+001	0.0000000E+000	0.0000000E+000	0.0000000E+000	9.9616135E+001	0.0000000E+000	0.0000000E+000	0.0000000E+000	-9.9616135E+001	0.0000000E+000	0.0000000E+000	0.0000000E+000	9.6161308E+000	0.0000000E+000	0.0000000E+000	0.0000000E+000	-9.6161308E+000	5.9022489E+000	8.0383865E+001	2.079797999761501E-002	1.2301050E-001	1.7325066E+001
1.2683716E+004	4.0880024E-002	-3.6207815E-003	4.1040059E-002	5.0615320E+000	3.008991982660882E+003	1.4598496E+000	8.357826543292528E+001	-3.4655430E+003	-2.6974907E+001	5.000000000000000E+000	8	5.0107022E-003	1.2209295E-001	0	1.234547962257266E+000	2.4271420E+001	-2.1497421E+000	2.4366436E+001	-5.0615320E+000	-2.6974902E+004	3.0455716E+005	3.0574941E+005	-9.5061531E+001	0.0000000E+000	0.0000000E+000	0.0000000E+000	9.5061531E+001	0.0000000E+000	0.0000000E+000	0.0000000E+000	-9.5061531E+001	0.0000000E+000	0.0000000E+000	0.0000000E+000	5.0615320E+000	0.0000000E+000	0.0000000E+000	0.0000000E+000	-5.0615320E+000	1.1290387E+001	8.4938469E+001	1.153836083585702E-002	1.2376216E-001	1.7219810E+001
8.0395156E+003	4.0722385E-002	-4.3049856E-004	4.0724661E-002	6.0568237E-001	3.009361968625148E+003	1.4598610E+000	8.947475354924164E+001	-4.5985250E+004	-5.1386261E+000	5.000000000000000E+000	8	5.2688611E-003	1.2937765E-001	0	1.243743629748752E+000	2.4553774E+001	-2.5957134E-001	2.4555145E+001	-6.0568237E-001	-5.1386255E+003	4.8608084E+005	4.8610800E+005	-9.0605682E+001	0.0000000E+000	0.0000000E+000	0.0000000E+000	9.0605682E+001	0.0000000E+000	0.0000000E+000	0.0000000E+000	-9.0605682E+001	0.0000000E+000	0.0000000E+000	0.0000000E+000	6.0568237E-001	0.0000000E+000	0.0000000E+000	0.0000000E+000	-6.0568237E-001	9.4593544E+001	8.9394318E+001	9.195667491485482E-003	1.2482986E-001	1.7072792E+001
5.0966309E+003	4.0933806E-002	2.5434680E-003	4.1012753E-002	-3.5555663E+000	3.009865188649092E+003	1.4598265E+000	8.233654350927999E+001	1.2277521E+004	4.7219936E+001	5.000000000000000E+000	8	5.1334412E-003	1.2516695E-001	0	1.255252906803250E+000	2.4335726E+001	1.5121276E+000	2.4382660E+001	3.5555663E+000	4.7219918E+004	7.5994344E+005	7.6140906E+005	-8.6444435E+001	0.0000000E+000	0.0000000E+000	0.0000000E+000	8.6444435E+001	0.0000000E+000	0.0000000E+000	0.0000000E+000	-8.6444435E+001	0.0000000E+000	0.0000000E+000	0.0000000E+000	-3.5555663E+000	0.0000000E+000	0.0000000E+000	0.0000000E+000	3.5555663E+000	1.6093699E+001	8.6444435E+001	1.150927705449867E-002	1.2398812E-001	1.7187883E+001
3.2318972E+003	4.1442383E-002	5.7263230E-003	4.1836131E-002	-7.8670597E+000	3.010121340314581E+003	1.4598275E+000	7.466420920404133E+001	8.5997686E+003	1.6111478E+002	5.000000000000000E+000	8	5.2571576E-003	1.2566070E-001	0	1.260565507231050E+000	2.3677818E+001	3.2716951E+000	2.3902784E+001	7.8670597E+000	1.6111477E+005	1.1660155E+006	1.1770939E+006	-8.2132942E+001	0.0000000E+000	0.0000000E+000	0.0000000E+000	8.2132942E+001	0.0000000E+000	0.0000000E+000	0.0000000E+000	-8.2132942E+001	0.0000000E+000	0.0000000E+000	0.0000000E+000	-7.8670597E+000	0.0000000E+000	0.0000000E+000	0.0000000E+000	7.8670597E+000	7.2371716E+000	8.2132942E+001	5.312600427799685E-003	1.2395828E-001	1.7192045E+001
2.0506560E+003	4.2645548E-002	9.9148965E-003	4.3782964E-002	-1.3088487E+001	3.010377076406658E+003	1.4598331E+000	7.597573110591284E+001	7.8277896E+003	4.0142572E+002	5.000000000000000E+000	8	5.2552172E-003	1.2002881E-001	0	1.265962656277071E+000	2.2246586E+001	5.1722307E+000	2.2839933E+001	1.3088487E+001	4.0142569E+005	1.7265958E+006	1.7726465E+006	-7.6911514E+001	0.0000000E+000	0.0000000E+000	0.0000000E+000	7.6911514E+001	0.0000000E+000	0.0000000E+000	0.0000000E+000	-7.6911514E+001	0.0000000E+000	0.0000000E+000	0.0000000E+000	-1.3088487E+001	0.0000000E+000	0.0000000E+000	0.0000000E+000	1.3088487E+001	4.3011594E+000	7.6911514E+001	5.397149046020511E-003	1.2360845E-001	1.7240835E+001
1.3004161E+003	4.4918276E-002	1.5233731E-002	4.7431193E-002	-1.8734020E+001	3.010631063618741E+003	1.4598224E+000	8.148161492668582E+001	8.0339941E+003	8.2873553E+002	5.000000000000000E+000	8	5.2130590E-003	1.0990782E-001	0	1.271711347446869E+000	1.9966181E+001	6.7713952E+000	2.1083172E+001	1.8734020E+001	8.2873569E+005	2.4436148E+006	2.5803210E+006	-7.1265976E+001	0.0000000E+000	0.0000000E+000	0.0000000E+000	7.1265976E+001	0.0000000E+000	0.0000000E+000	0.0000000E+000	-7.1265976E+001	0.0000000E+000	0.0000000E+000	0.0000000E+000	-1.8734020E+001	0.0000000E+000	0.0000000E+000	0.0000000E+000	1.8734020E+001	2.9486065E+000	7.1265976E+001	5.748691169798370E-003	1.2332956E-001	1.7279566E+001
8.2420856E+002	4.9391787E-002	2.2076655E-002	5.4101083E-002	-2.4083220E+001	3.010885330084202E+003	1.4598236E+000	8.268617374320164E+001	8.7468105E+003	1.4564794E+003	5.000000000000000E+000	8	5.1623285E-003	9.5420055E-002	0	1.277551436652477E+000	1.6874962E+001	7.5426044E+000	1.8483917E+001	2.4083220E+001	1.4564798E+006	3.2585610E+006	3.5692510E+006	-6.5916779E+001	0.0000000E+000	0.0000000E+000	0.0000000E+000	6.5916779E+001	0.0000000E+000	0.0000000E+000	0.0000000E+000	-6.5916779E+001	0.0000000E+000	0.0000000E+000	0.0000000E+000	-2.4083220E+001	0.0000000E+000	0.0000000E+000	0.0000000E+000	2.4083220E+001	2.2372859E+000	6.5916779E+001	5.840089205607635E-003	1.2301417E-001	1.7323898E+001
5.2249200E+002	5.6750875E-002	2.9939430E-002	6.4164095E-002	-2.7814287E+001	3.011141148309700E+003	1.4598211E+000	7.946997982761808E+001	1.0174122E+004	2.2151333E+003	5.000000000000000E+000	8	5.1131668E-003	7.9688914E-002	0	1.283198622546881E+000	1.3784417E+001	7.2720919E+000	1.5585040E+001	2.7814287E+001	2.2151330E+006	4.1988360E+006	4.7473190E+006	-6.2185715E+001	0.0000000E+000	0.0000000E+000	0.0000000E+000	6.2185715E+001	0.0000000E+000	0.0000000E+000	0.0000000E+000	-6.2185715E+001	0.0000000E+000	0.0000000E+000	0.0000000E+000	-2.7814287E+001	0.0000000E+000	0.0000000E+000	0.0000000E+000	2.7814287E+001	1.8955230E+000	6.2185715E+001	5.647185894404938E-003	1.2267453E-001	1.7371801E+001
3.3137851E+002	6.8407089E-002	3.6622219E-002	7.7593274E-002	-2.8162687E+001	3.011395267175089E+003	1.4598119E+000	7.676895747554373E+001	1.3114481E+004	2.9214084E+003	5.000000000000000E+000	8	5.0832722E-003	6.5511763E-002	0	1.288617633760979E+000	1.1361952E+001	6.0827017E+000	1.2887715E+001	2.8162687E+001	2.9214088E+006	5.4569340E+006	6.1897300E+006	-6.1837311E+001	0.0000000E+000	0.0000000E+000	0.0000000E+000	6.1837311E+001	0.0000000E+000	0.0000000E+000	0.0000000E+000	-6.1837311E+001	0.0000000E+000	0.0000000E+000	0.0000000E+000	-2.8162687E+001	0.0000000E+000	0.0000000E+000	0.0000000E+000	2.8162687E+001	1.8679122E+000	6.1837311E+001	5.419011214097269E-003	1.2273850E-001	1.7362530E+001
2.1006726E+002	8.1442006E-002	4.0308014E-002	9.0870984E-002	-2.6332146E+001	3.011651081933858E+003	1.4598235E+000	7.838870275688330E+001	1.8796215E+004	3.6983049E+003	5.000000000000000E+000	8	5.0652963E-003	5.5741623E-002	0	1.294187907951540E+000	9.8627491E+000	4.8813610E+000	1.1004613E+001	2.6332146E+001	3.6983045E+006	7.4723930E+006	8.3375125E+006	-6.3667854E+001	0.0000000E+000	0.0000000E+000	0.0000000E+000	6.3667854E+001	0.0000000E+000	0.0000000E+000	0.0000000E+000	-6.3667854E+001	0.0000000E+000	0.0000000E+000	0.0000000E+000	-2.6332146E+001	0.0000000E+000	0.0000000E+000	0.0000000E+000	2.6332146E+001	2.0204916E+000	6.3667854E+001	5.570274190561664E-003	1.2245171E-001	1.7403471E+001
1.3316759E+002	9.4012402E-002	4.2276029E-002	1.0308053E-001	-2.4212765E+001	3.011908046372744E+003	1.4598233E+000	7.782712947211132E+001	2.8270107E+004	4.7551313E+003	5.000000000000000E+000	8	5.0611058E-003	4.9098562E-002	0	1.299743131466791E+000	8.8477316E+000	3.9786975E+000	9.7011538E+000	2.4212765E+001	4.7551320E+006	1.0574345E+007	1.1594311E+007	-6.5787231E+001	0.0000000E+000	0.0000000E+000	0.0000000E+000	6.5787231E+001	0.0000000E+000	0.0000000E+000	0.0000000E+000	-6.5787231E+001	0.0000000E+000	0.0000000E+000	0.0000000E+000	-2.4212765E+001	0.0000000E+000	0.0000000E+000	0.0000000E+000	2.4212765E+001	2.2237756E+000	6.5787231E+001	5.555223515250729E-003	1.2212639E-001	1.7449823E+001
8.4486305E+001	1.0376927E-001	4.5074496E-002	1.1313607E-001	-2.3478792E+001	3.014884472114136E+003	1.4598116E+000	7.106308848392572E+001	4.1792938E+004	6.6338022E+003	5.000000000000000E+000	8	5.1733926E-003	4.5727175E-002	0	1.358497021974112E+000	8.1071186E+000	3.5215082E+000	8.8389139E+000	2.3478792E+001	6.6338015E+006	1.5272156E+007	1.6650708E+007	-6.6521210E+001	0.0000000E+000	0.0000000E+000	0.0000000E+000	6.6521210E+001	0.0000000E+000	0.0000000E+000	0.0000000E+000	-6.6521210E+001	0.0000000E+000	0.0000000E+000	0.0000000E+000	-2.3478792E+001	0.0000000E+000	0.0000000E+000	0.0000000E+000	2.3478792E+001	2.3021724E+000	6.6521210E+001	5.875389050732061E-002	1.2280808E-001	1.7352684E+001
5.3577000E+001	1.1325070E-001	5.2654974E-002	1.2489302E-001	-2.4935682E+001	3.015422580486353E+003	1.4597821E+000	7.373303414509762E+001	5.6416008E+004	1.0027779E+004	5.000000000000000E+000	9	5.2558901E-003	4.2083137E-002	0	1.369518233913674E+000	7.2604666E+000	3.3756938E+000	8.0068521E+000	2.4935682E+001	1.0027781E+007	2.1567820E+007	2.3785022E+007	-6.5064316E+001	0.0000000E+000	0.0000000E+000	0.0000000E+000	6.5064316E+001	0.0000000E+000	0.0000000E+000	0.0000000E+000	-6.5064316E+001	0.0000000E+000	0.0000000E+000	0.0000000E+000	-2.4935682E+001	0.0000000E+000	0.0000000E+000	0.0000000E+000	2.4935682E+001	2.1508074E+000	6.5064316E+001	1.102121193956251E-002	1.1729068E-001	1.8168228E+001
3.3967392E+001	1.2604997E-001	6.6079453E-002	1.4232036E-001	-2.7664978E+001	3.015684535512133E+003	1.4597921E+000	7.669582841989904E+001	7.0907391E+004	1.5285874E+004	5.000000000000000E+000	9	5.2249338E-003	3.6712483E-002	0	1.375099027722283E+000	6.2231264E+000	3.2623637E+000	7.0264015E+000	2.7664978E+001	1.5285874E+007	2.9158592E+007	3.2922354E+007	-6.2335022E+001	0.0000000E+000	0.0000000E+000	0.0000000E+000	6.2335022E+001	0.0000000E+000	0.0000000E+000	0.0000000E+000	-6.2335022E+001	0.0000000E+000	0.0000000E+000	0.0000000E+000	-2.7664978E+001	0.0000000E+000	0.0000000E+000	0.0000000E+000	2.7664978E+001	1.9075516E+000	6.2335022E+001	5.580793808608320E-003	1.1709800E-001	1.8198374E+001
2.1551722E+001	1.4717592E-001	8.4397137E-002	1.6965739E-001	-2.9831852E+001	3.015925034110187E+003	1.4597890E+000	7.863801400408138E+001	8.7500477E+004	2.1653109E+004	5.000000000000000E+000	9	5.1988163E-003	3.0643027E-002	0	1.380352453311649E+000	5.1131816E+000	2.9321227E+000	5.8942318E+000	2.9831852E+001	2.1653112E+007	3.7759776E+007	4.3527668E+007	-6.0168148E+001	0.0000000E+000	0.0000000E+000	0.0000000E+000	6.0168148E+001	0.0000000E+000	0.0000000E+000	0.0000000E+000	-6.0168148E+001	0.0000000E+000	0.0000000E+000	0.0000000E+000	-2.9831852E+001	0.0000000E+000	0.0000000E+000	0.0000000E+000	2.9831852E+001	1.7438498E+000	6.0168152E+001	5.253425589366145E-003	1.1694489E-001	1.8222122E+001
1.3658218E+001	1.8169864E-001	1.0049341E-001	2.0763747E-001	-2.8945990E+001	3.016201740203353E+003	1.4597975E+000	7.865818047726728E+001	1.1595474E+005	2.7161402E+004	5.000000000000000E+000	9	5.1878621E-003	2.4985192E-002	0	1.386398341593698E+000	4.2144432E+000	2.3309133E+000	4.8160863E+000	2.8945990E+001	2.7161404E+007	4.9109588E+007	5.6120348E+007	-6.1054008E+001	0.0000000E+000	0.0000000E+000	0.0000000E+000	6.1054008E+001	0.0000000E+000	0.0000000E+000	0.0000000E+000	-6.1054008E+001	0.0000000E+000	0.0000000E+000	0.0000000E+000	-2.8945990E+001	0.0000000E+000	0.0000000E+000	0.0000000E+000	2.8945990E+001	1.8080652E+000	6.1054008E+001	6.045888282048884E-003	1.1687725E-001	1.8232878E+001
8.6613073E+000	2.2518173E-001	1.0456168E-001	2.4827395E-001	-2.4907494E+001	3.016488602217010E+003	1.4598051E+000	7.830558047588733E+001	1.7573736E+005	3.1170725E+004	5.000000000000000E+000	9	5.1804758E-003	2.0865966E-002	0	1.392638035064797E+000	3.6531780E+000	1.6963295E+000	4.0278087E+000	2.4907494E+001	3.1170726E+007	6.7128584E+007	7.4012576E+007	-6.5092506E+001	0.0000000E+000	0.0000000E+000	0.0000000E+000	6.5092506E+001	0.0000000E+000	0.0000000E+000	0.0000000E+000	-6.5092506E+001	0.0000000E+000	0.0000000E+000	0.0000000E+000	-2.4907494E+001	0.0000000E+000	0.0000000E+000	0.0000000E+000	2.4907494E+001	2.1535780E+000	6.5092506E+001	6.239693471099095E-003	1.1679419E-001	1.8246037E+001
5.4940224E+000	2.6414779E-001	9.1712750E-002	2.7961633E-001	-1.9147123E+001	3.016915329783951E+003	1.4598063E+000	7.729988351317118E+001	3.1586391E+005	3.3980859E+004	5.000000000000000E+000	9	5.1781815E-003	1.8518882E-002	0	1.401800810402681E+000	3.3784845E+000	1.1730179E+000	3.5763290E+000	1.9147123E+001	3.3980860E+007	9.7870464E+007	1.0360177E+008	-7.0852875E+001	0.0000000E+000	0.0000000E+000	0.0000000E+000	7.0852875E+001	0.0000000E+000	0.0000000E+000	0.0000000E+000	-7.0852875E+001	0.0000000E+000	0.0000000E+000	0.0000000E+000	-1.9147123E+001	0.0000000E+000	0.0000000E+000	0.0000000E+000	1.9147123E+001	2.8801644E+000	7.0852875E+001	9.162775337884677E-003	1.1729764E-001	1.8167753E+001
3.4799554E+000	2.8831744E-001	6.9640003E-002	2.9660863E-001	-1.3579099E+001	3.017560634267909E+003	1.4598075E+000	8.148109986702845E+001	6.5673119E+005	3.6202426E+004	5.000000000000000E+000	9	5.1761633E-003	1.7451156E-002	0	1.416406399042136E+000	3.2772031E+000	7.9157352E-001	3.3714461E+000	1.3579099E+001	3.6202436E+007	1.4988213E+008	1.5419230E+008	-7.6420898E+001	0.0000000E+000	0.0000000E+000	0.0000000E+000	7.6420898E+001	0.0000000E+000	0.0000000E+000	0.0000000E+000	-7.6420898E+001	0.0000000E+000	0.0000000E+000	0.0000000E+000	-1.3579099E+001	0.0000000E+000	0.0000000E+000	0.0000000E+000	1.3579099E+001	4.1401124E+000	7.6420898E+001	1.460558863945471E-002	1.1860675E-001	1.7967257E+001
2.2094176E+000	3.0234188E-001	5.4181725E-002	3.0715838E-001	-1.0159947E+001	3.018552529861699E+003	1.4598094E+000	8.114858252219062E+001	1.3295035E+006	4.1368559E+004	5.000000000000000E+000	9	5.1759272E-003	1.6851004E-002	0	1.438764988332712E+000	3.2045979E+000	5.7428581E-001	3.2556493E+000	1.0159947E+001	4.1368572E+007	2.3084256E+008	2.3452003E+008	-7.9840050E+001	0.0000000E+000	0.0000000E+000	0.0000000E+000	7.9840050E+001	0.0000000E+000	0.0000000E+000	0.0000000E+000	-7.9840050E+001	0.0000000E+000	0.0000000E+000	0.0000000E+000	-1.0159947E+001	0.0000000E+000	0.0000000E+000	0.0000000E+000	1.0159947E+001	5.5801449E+000	7.9840050E+001	2.235858929057599E-002	1.1850536E-001	1.7982677E+001
1.4008425E+000	3.1172374E-001	4.3802917E-002	3.1478626E-001	-7.9987388E+000	3.020090990681420E+003	1.4598117E+000	7.958653928118716E+001	2.5937480E+006	5.0222965E+004	5.000000000000000E+000	9	5.1716026E-003	1.6428934E-002	0	1.472776314016384E+000	3.1458526E+000	4.4205013E-001	3.1767588E+000	7.9987388E+000	5.0222980E+007	3.5741203E+008	3.6092342E+008	-8.2001259E+001	0.0000000E+000	0.0000000E+000	0.0000000E+000	8.2001259E+001	0.0000000E+000	0.0000000E+000	0.0000000E+000	-8.2001259E+001	0.0000000E+000	0.0000000E+000	0.0000000E+000	-7.9987388E+000	0.0000000E+000	0.0000000E+000	0.0000000E+000	7.9987388E+000	7.1165066E+000	8.2001259E+001	3.401132568367160E-002	1.1756082E-001	1.8127214E+001
2.0004455E+004	4.1111391E-002	-6.9771428E-003	4.1699246E-002	9.6320696E+000	3.021016997205370E+003	1.4598447E+000	7.748576257976990E+001	-1.1402913E+003	-3.1923803E+001	6.000000000000000E+000	8	4.6356018E-003	1.1116752E-001	0	1.492707514478091E+000	2.3643173E+001	-4.0125570E+000	2.3981249E+001	-9.6320696E+000	-3.1923813E+004	1.8810450E+005	1.9079422E+005	-9.9632072E+001	0.0000000E+000	0.0000000E+000	0.0000000E+000	9.9632072E+001	0.0000000E+000	0.0000000E+000	0.0000000E+000	-9.9632072E+001	0.0000000E+000	0.0000000E+000	0.0000000E+000	9.6320696E+000	0.0000000E+000	0.0000000E+000	0.0000000E+000	-9.6320696E+000	5.8922963E+000	8.0367928E+001	1.993120046170715E-002	1.2249266E-001	1.7398157E+001
1.2683716E+004	4.0930107E-002	-3.5024404E-003	4.1079689E-002	4.8909569E+000	3.021512988935618E+003	1.4598483E+000	7.218621082360019E+001	-3.5826375E+003	-2.6042944E+001	6.000000000000000E+000	8	5.0164238E-003	1.2211446E-001	0	1.502653004368762E+000	2.4254292E+001	-2.0754700E+000	2.4342930E+001	-4.8909569E+000	-2.6042967E+004	3.0434225E+005	3.0545447E+005	-9.4890961E+001	0.0000000E+000	0.0000000E+000	0.0000000E+000	9.4890961E+001	0.0000000E+000	0.0000000E+000	0.0000000E+000	-9.4890961E+001	0.0000000E+000	0.0000000E+000	0.0000000E+000	4.8909569E+000	0.0000000E+000	0.0000000E+000	0.0000000E+000	-4.8909569E+000	1.1686168E+001	8.5109039E+001	9.945489890671455E-003	1.2394646E-001	1.7194174E+001
8.0395156E+003	4.0693257E-002	-4.2785582E-004	4.0695507E-002	6.0239536E-001	3.021880986233111E+003	1.4598465E+000	8.310661534031011E+001	-4.6269289E+004	-5.1144009E+000	6.000000000000000E+000	8	5.2665612E-003	1.2941383E-001	0	1.511148284882387E+000	2.4571379E+001	-2.5834766E-001	2.4572737E+001	-6.0239536E-001	-5.1143901E+003	4.8642938E+005	4.8645625E+005	-9.0602394E+001	0.0000000E+000	0.0000000E+000	0.0000000E+000	9.0602394E+001	0.0000000E+000	0.0000000E+000	0.0000000E+000	-9.0602394E+001	0.0000000E+000	0.0000000E+000	0.0000000E+000	6.0239536E-001	0.0000000E+000	0.0000000E+000	0.0000000E+000	-6.0239536E-001	9.5109741E+001	8.9397606E+001	8.495280513624248E-003	1.2364332E-001	1.7236288E+001
5.0966309E+003	4.0852241E-002	2.4665992E-003	4.0926639E-002	-3.4552414E+000	3.022384229723713E+003	1.4598190E+000	7.696090551411258E+001	1.2660136E+004	4.5985760E+001	6.000000000000000E+000	8	4.9976828E-003	1.2211320E-001	0	1.521906638974289E+000	2.4389547E+001	1.4726055E+000	2.4433964E+001	3.4552414E+000	4.5985719E+004	7.6162413E+005	7.6301113E+005	-8.6544762E+001	0.0000000E+000	0.0000000E+000	0.0000000E+000	8.6544762E+001	0.0000000E+000	0.0000000E+000	0.0000000E+000	-8.6544762E+001	0.0000000E+000	0.0000000E+000	0.0000000E+000	-3.4552414E+000	0.0000000E+000	0.0000000E+000	0.0000000E+000	3.4552414E+000	1.6562172E+001	8.6544762E+001	1.075835409190251E-002	1.2236211E-001	1.7416105E+001
3.2318972E+003	4.1539945E-002	5.7937102E-003	4.1942034E-002	-7.9400063E+000	3.022640349869209E+003	1.4598150E+000	8.027813260015671E+001	8.4997432E+003	1.6218861E+002	6.000000000000000E+000	8	5.1316358E-003	1.2235067E-001	0	1.527617985363639E+000	2.3613859E+001	3.2935009E+000	2.3842430E+001	7.9400063E+000	1.6218853E+005	1.1628656E+006	1.1741216E+006	-8.2059998E+001	0.0000000E+000	0.0000000E+000	0.0000000E+000	8.2059998E+001	0.0000000E+000	0.0000000E+000	0.0000000E+000	-8.2059998E+001	0.0000000E+000	0.0000000E+000	0.0000000E+000	-7.9400063E+000	0.0000000E+000	0.0000000E+000	0.0000000E+000	7.9400063E+000	7.1698346E+000	8.2059998E+001	5.711346389350114E-003	1.2196579E-001	1.7472603E+001
2.0506560E+003	4.2699620E-002	9.9929990E-003	4.3853365E-002	-1.3171880E+001	3.022896059801322E+003	1.4598243E+000	8.636589836846075E+001	7.7666099E+003	4.0328989E+002	6.000000000000000E+000	8	5.1308363E-003	1.1699983E-001	0	1.533752601477159E+000	2.2203333E+001	5.1962490E+000	2.2803267E+001	1.3171880E+001	4.0328994E+005	1.7232388E+006	1.7698008E+006	-7.6828117E+001	0.0000000E+000	0.0000000E+000	0.0000000E+000	7.6828117E+001	0.0000000E+000	0.0000000E+000	0.0000000E+000	-7.6828117E+001	0.0000000E+000	0.0000000E+000	0.0000000E+000	-1.3171880E+001	0.0000000E+000	0.0000000E+000	0.0000000E+000	1.3171880E+001	4.2729535E+000	7.6828117E+001	6.134616113520286E-003	1.2183818E-001	1.7491127E+001
1.3004161E+003	4.5008678E-002	1.5333425E-002	4.7548871E-002	-1.8812799E+001	3.023150092373355E+003	1.4598247E+000	8.898905468552316E+001	7.9817593E+003	8.3003528E+002	6.000000000000000E+000	8	5.0878497E-003	1.0700253E-001	0	1.540032078822865E+000	1.9907459E+001	6.7820148E+000	2.1030993E+001	1.8812799E+001	8.3003519E+005	2.4364283E+006	2.5739350E+006	-7.1187202E+001	0.0000000E+000	0.0000000E+000	0.0000000E+000	7.1187202E+001	0.0000000E+000	0.0000000E+000	0.0000000E+000	-7.1187202E+001	0.0000000E+000	0.0000000E+000	0.0000000E+000	-1.8812799E+001	0.0000000E+000	0.0000000E+000	0.0000000E+000	1.8812799E+001	2.9353309E+000	7.1187202E+001	6.279477345705109E-003	1.2176913E-001	1.7501055E+001
8.2420856E+002	4.9496859E-002	2.2225766E-002	5.4257937E-002	-2.4181696E+001	3.023404356625499E+003	1.4598304E+000	8.843363639277051E+001	8.6881289E+003	1.4578511E+003	6.000000000000000E+000	8	5.0395401E-003	9.2881158E-002	0	1.546278054495580E+000	1.6813227E+001	7.5497084E+000	1.8430483E+001	2.4181696E+001	1.4578510E+006	3.2466395E+006	3.5589320E+006	-6.5818306E+001	0.0000000E+000	0.0000000E+000	0.0000000E+000	6.5818306E+001	0.0000000E+000	0.0000000E+000	0.0000000E+000	-6.5818306E+001	0.0000000E+000	0.0000000E+000	0.0000000E+000	-2.4181696E+001	0.0000000E+000	0.0000000E+000	0.0000000E+000	2.4181696E+001	2.2270036E+000	6.5818306E+001	6.245975672715121E-003	1.2175166E-001	1.7503702E+001
5.2249200E+002	5.7215720E-002	2.9872293E-002	6.4544499E-002	-2.7569035E+001	3.023661157384369E+003	1.4598169E+000	8.366324676757610E+001	1.0196988E+004	2.1841909E+003	6.000000000000000E+000	8	4.9997373E-003	7.7461869E-002	0	1.552246050400996E+000	1.3733995E+001	7.1705108E+000	1.5493187E+001	2.7569035E+001	2.1841910E+006	4.1834770E+006	4.7193400E+006	-6.2430965E+001	0.0000000E+000	0.0000000E+000	0.0000000E+000	6.2430965E+001	0.0000000E+000	0.0000000E+000	0.0000000E+000	-6.2430965E+001	0.0000000E+000	0.0000000E+000	0.0000000E+000	-2.7569035E+001	0.0000000E+000	0.0000000E+000	0.0000000E+000	2.7569035E+001	1.9153441E+000	6.2430969E+001	5.967995905415968E-003	1.2154056E-001	1.7533779E+001
3.3137851E+002	6.8493992E-002	3.6586199E-002	7.7652924E-002	-2.8108992E+001	3.023916255849821E+003	1.4598206E+000	7.801150660745445E+001	1.3127394E+004	2.9140532E+003	6.000000000000000E+000	8	4.9604597E-003	6.3879885E-002	0	1.557773999185201E+000	1.1358914E+001	6.0673866E+000	1.2877815E+001	2.8108992E+001	2.9140533E+006	5.4554755E+006	6.1849755E+006	-6.1891006E+001	0.0000000E+000	0.0000000E+000	0.0000000E+000	6.1891006E+001	0.0000000E+000	0.0000000E+000	0.0000000E+000	-6.1891006E+001	0.0000000E+000	0.0000000E+000	0.0000000E+000	-2.8108992E+001	0.0000000E+000	0.0000000E+000	0.0000000E+000	2.8108992E+001	1.8721265E+000	6.1891006E+001	5.527948784205483E-003	1.2136789E-001	1.7558813E+001
2.1006726E+002	8.2064472E-002	4.0454917E-002	9.1494143E-002	-2.6241686E+001	3.024172076315255E+003	1.4598126E+000	8.051164803462598E+001	1.8727959E+004	3.6613943E+003	6.000000000000000E+000	8	4.9384004E-003	5.3975042E-002	0	1.563495256761061E+000	9.8032169E+000	4.8326435E+000	1.0929662E+001	2.6241686E+001	3.6613940E+006	7.4272900E+006	8.2807270E+006	-6.3758316E+001	0.0000000E+000	0.0000000E+000	0.0000000E+000	6.3758316E+001	0.0000000E+000	0.0000000E+000	0.0000000E+000	-6.3758316E+001	0.0000000E+000	0.0000000E+000	0.0000000E+000	-2.6241686E+001	0.0000000E+000	0.0000000E+000	0.0000000E+000	2.6241686E+001	2.0285413E+000	6.3758316E+001	5.721257575859617E-003	1.2132861E-001	1.7564308E+001
1.3316759E+002	9.4101086E-002	4.2300455E-002	1.0317142E-001	-2.4204941E+001	3.024429044354110E+003	1.4598137E+000	7.926531060114547E+001	2.8253781E+004	4.7494990E+003	6.000000000000000E+000	8	4.9360269E-003	4.7842965E-002	0	1.569153215487288E+000	8.8404779E+000	3.9739847E+000	9.6926060E+000	2.4204941E+001	4.7494995E+006	1.0565678E+007	1.1584097E+007	-6.5795059E+001	0.0000000E+000	0.0000000E+000	0.0000000E+000	6.5795059E+001	0.0000000E+000	0.0000000E+000	0.0000000E+000	-6.5795059E+001	0.0000000E+000	0.0000000E+000	0.0000000E+000	-2.4204941E+001	0.0000000E+000	0.0000000E+000	0.0000000E+000	2.4204941E+001	2.2245879E+000	6.5795059E+001	5.657958726227319E-003	1.2133849E-001	1.7562904E+001
8.4486305E+001	1.0382174E-001	4.5435727E-002	1.1332855E-001	-2.3635729E+001	3.027406498895565E+003	1.4598178E+000	7.245748891336572E+001	4.1460672E+004	6.6642710E+003	6.000000000000000E+000	8	5.1860814E-003	4.5761473E-002	0	1.629080681994930E+000	8.0836906E+000	3.5376823E+000	8.8239021E+000	2.3635729E+001	6.6642705E+006	1.5228023E+007	1.6622430E+007	-6.6364273E+001	0.0000000E+000	0.0000000E+000	0.0000000E+000	6.6364273E+001	0.0000000E+000	0.0000000E+000	0.0000000E+000	-6.6364273E+001	0.0000000E+000	0.0000000E+000	0.0000000E+000	-2.3635729E+001	0.0000000E+000	0.0000000E+000	0.0000000E+000	2.3635729E+001	2.2850244E+000	6.6364273E+001	5.992746650764191E-002	1.2148134E-001	1.7542349E+001
5.3577000E+001	1.1309958E-001	5.2666049E-002	1.2476069E-001	-2.4969553E+001	3.027943581854415E+003	1.4597937E+000	7.774652994173805E+001	5.6404141E+004	1.0051178E+004	6.000000000000000E+000	9	5.2572535E-003	4.2138703E-002	0	1.640679664311995E+000	7.2661691E+000	3.3835707E+000	8.0153456E+000	2.4969553E+001	1.0051178E+007	2.1584762E+007	2.3810252E+007	-6.5030449E+001	0.0000000E+000	0.0000000E+000	0.0000000E+000	6.5030449E+001	0.0000000E+000	0.0000000E+000	0.0000000E+000	-6.5030449E+001	0.0000000E+000	0.0000000E+000	0.0000000E+000	-2.4969553E+001	0.0000000E+000	0.0000000E+000	0.0000000E+000	2.4969553E+001	2.1474855E+000	6.5030449E+001	1.159898231706524E-002	1.1614716E-001	1.8347393E+001
3.3967392E+001	1.2573381E-001	6.6123068E-002	1.4206073E-001	-2.7739761E+001	3.028205536293521E+003	1.4597936E+000	8.008318712321990E+001	7.0860617E+004	1.5351926E+004	6.000000000000000E+000	9	5.2206847E-003	3.6749668E-002	0	1.646506927191062E+000	6.2302289E+000	3.2764606E+000	7.0392432E+000	2.7739761E+001	1.5351926E+007	2.9191870E+007	3.2982524E+007	-6.2260239E+001	0.0000000E+000	0.0000000E+000	0.0000000E+000	6.2260239E+001	0.0000000E+000	0.0000000E+000	0.0000000E+000	-6.2260239E+001	0.0000000E+000	0.0000000E+000	0.0000000E+000	-2.7739761E+001	0.0000000E+000	0.0000000E+000	0.0000000E+000	2.7739761E+001	1.9015120E+000	6.2260239E+001	5.827262879066986E-003	1.1600598E-001	1.8369720E+001
2.1551722E+001	1.4708157E-001	8.4577672E-002	1.6966547E-001	-2.9900591E+001	3.028446039424904E+003	1.4597851E+000	8.167819030196830E+001	8.7313703E+004	2.1697361E+004	6.000000000000000E+000	9	5.2054254E-003	3.0680524E-002	0	1.651963555116981E+000	5.1094165E+000	2.9381149E+000	5.8939509E+000	2.9900591E+001	2.1697362E+007	3.7731972E+007	4.3525592E+007	-6.0099411E+001	0.0000000E+000	0.0000000E+000	0.0000000E+000	6.0099411E+001	0.0000000E+000	0.0000000E+000	0.0000000E+000	-6.0099411E+001	0.0000000E+000	0.0000000E+000	0.0000000E+000	-2.9900591E+001	0.0000000E+000	0.0000000E+000	0.0000000E+000	2.9900591E+001	1.7390118E+000	6.0099411E+001	5.456627925919166E-003	1.1601023E-001	1.8368834E+001
1.3658218E+001	1.8125638E-001	1.0078443E-001	2.0739184E-001	-2.9075480E+001	3.028722790984713E+003	1.4597973E+000	7.809006190966004E+001	1.1561991E+005	2.7304623E+004	6.000000000000000E+000	9	5.1869364E-003	2.5010319E-002	0	1.657966762461187E+000	4.2141495E+000	2.3432038E+000	4.8217902E+000	2.9075480E+001	2.7304622E+007	4.9106168E+007	5.6186816E+007	-6.0924522E+001	0.0000000E+000	0.0000000E+000	0.0000000E+000	6.0924522E+001	0.0000000E+000	0.0000000E+000	0.0000000E+000	-6.0924522E+001	0.0000000E+000	0.0000000E+000	0.0000000E+000	-2.9075480E+001	0.0000000E+000	0.0000000E+000	0.0000000E+000	2.9075480E+001	1.7984562E+000	6.0924522E+001	6.003207344205785E-003	1.1635812E-001	1.8314219E+001
8.6613073E+000	2.2414018E-001	1.0418678E-001	2.4717142E-001	-2.4930355E+001	3.029009599611702E+003	1.4598036E+000	7.680893755708297E+001	1.7636973E+005	3.1336666E+004	6.000000000000000E+000	9	5.1783961E-003	2.0950627E-002	0	1.664086058550401E+000	3.6687934E+000	1.7053603E+000	4.0457754E+000	2.4930355E+001	3.1336672E+007	6.7415528E+007	7.4342720E+007	-6.5069641E+001	0.0000000E+000	0.0000000E+000	0.0000000E+000	6.5069641E+001	0.0000000E+000	0.0000000E+000	0.0000000E+000	-6.5069641E+001	0.0000000E+000	0.0000000E+000	0.0000000E+000	-2.4930355E+001	0.0000000E+000	0.0000000E+000	0.0000000E+000	2.4930355E+001	2.1513302E+000	6.5069641E+001	6.119296089213799E-003	1.1707866E-001	1.8201664E+001
5.4940224E+000	2.6255935E-001	8.9922100E-002	2.7753091E-001	-1.8905457E+001	3.029436326485331E+003	1.4598106E+000	8.037110625824694E+001	3.2215378E+005	3.3819984E+004	6.000000000000000E+000	9	5.1782848E-003	1.8658407E-002	0	1.673612867134767E+000	3.4088259E+000	1.1674646E+000	3.6032023E+000	1.8905457E+001	3.3819988E+007	9.8749408E+007	1.0438026E+008	-7.1094543E+001	0.0000000E+000	0.0000000E+000	0.0000000E+000	7.1094543E+001	0.0000000E+000	0.0000000E+000	0.0000000E+000	-7.1094543E+001	0.0000000E+000	0.0000000E+000	0.0000000E+000	-1.8905457E+001	0.0000000E+000	0.0000000E+000	0.0000000E+000	1.8905457E+001	2.9198534E+000	7.1094543E+001	9.526808584365609E-003	1.1815091E-001	1.8036654E+001
3.4799554E+000	2.8775880E-001	7.0653245E-002	2.9630560E-001	-1.3794912E+001	3.030081625662613E+003	1.4598063E+000	8.058696316789850E+001	6.4731300E+005	3.6804324E+004	6.000000000000000E+000	9	5.1758452E-003	1.7467929E-002	0	1.688058061865853E+000	3.2775469E+000	8.0473411E-001	3.3748941E+000	1.3794912E+001	3.6804332E+007	1.4989782E+008	1.5434998E+008	-7.6205086E+001	0.0000000E+000	0.0000000E+000	0.0000000E+000	7.6205086E+001	0.0000000E+000	0.0000000E+000	0.0000000E+000	-7.6205086E+001	0.0000000E+000	0.0000000E+000	0.0000000E+000	-1.3794912E+001	0.0000000E+000	0.0000000E+000	0.0000000E+000	1.3794912E+001	4.0728321E+000	7.6205086E+001	1.444519473108641E-002	1.1827465E-001	1.8017677E+001
2.2094176E+000	3.0395249E-001	5.4255623E-002	3.0875683E-001	-1.0120725E+001	3.031072474883040E+003	1.4598110E+000	7.872563830550463E+001	1.3276928E+006	4.0997176E+004	6.000000000000000E+000	9	5.1724878E-003	1.6752627E-002	0	1.709726183349911E+000	3.1883981E+000	5.6913018E-001	3.2387948E+000	1.0120725E+001	4.0997188E+007	2.2967562E+008	2.3330594E+008	-7.9879272E+001	0.0000000E+000	0.0000000E+000	0.0000000E+000	7.9879272E+001	0.0000000E+000	0.0000000E+000	0.0000000E+000	-7.9879272E+001	0.0000000E+000	0.0000000E+000	0.0000000E+000	-1.0120725E+001	0.0000000E+000	0.0000000E+000	0.0000000E+000	1.0120725E+001	5.6022301E+000	7.9879272E+001	2.166812148405772E-002	1.1733171E-001	1.8162592E+001
1.4008425E+000	3.1383717E-001	4.4458687E-002	3.1697059E-001	-8.0629635E+000	3.032611281062796E+003	1.4598105E+000	7.828498294565590E+001	2.5554900E+006	5.0274703E+004	6.000000000000000E+000	9	5.1720585E-003	1.6317155E-002	0	1.743188798777388E+000	3.1236796E+000	4.4250557E-001	3.1548669E+000	8.0629635E+000	5.0274712E+007	3.5489286E+008	3.5843616E+008	-8.1937035E+001	0.0000000E+000	0.0000000E+000	0.0000000E+000	8.1937035E+001	0.0000000E+000	0.0000000E+000	0.0000000E+000	-8.1937035E+001	0.0000000E+000	0.0000000E+000	0.0000000E+000	-8.0629635E+000	0.0000000E+000	0.0000000E+000	0.0000000E+000	8.0629635E+000	7.0590739E+000	8.1937035E+001	3.346261542747753E-002	1.1614846E-001	1.8347610E+001