EC-Lab ASCII FILE
Nb header lines : 55                          

Open Circuit Voltage

Run on channel : 1 (SN 81504)
User : 
CE vs. WE compliance from -10 V to 10 V
Electrode connection : standard
Potential control : Ewe
Ewe ctrl range : min = -2.50 V, max = 2.50 V
Safety Limits :
	Do not start on E overload
Acquisition started on : 05/08/2026 00:43:10.981
Loaded Setting File :  C:\PEM-WE_measurements\2026\372_IV_IV IrOx, 5 min Pt, 30 min C, etched cathode\new station\Loopeis new\1,46 V different time gaps open cell\Loopeis 1,46V_180s_4_PEIS from 650Hz to 100Hz.mps
Saved on :
	File : L_29_Loopeis 1,46V_180s_4_PEIS from 650Hz to 100Hz_10_OCV_C01.mpr
	Directory : C:\PEM-WE_measurements\2026\372_IV_IV IrOx, 5 min Pt, 30 min C, etched cathode\new station\Loopeis new\1,46 V different time gaps open cell\
	Host : 192.168.0.2
Device : SP-150e (SN .005491)
Address : 192.168.0.91
EC-LAB for windows v11.71 (software)
Internet server v28.00 (firmware)
Command interpretor v14.01 (firmware)
Electrode material : 
Initial state : 
Electrolyte : 
Comments : 
Current amplifier : SP-150eB-20A
Electrode surface area : 0.001 cm²
Characteristic mass : 0.001 g
Equivalent Weight : 0.000 g/eq.
Density : 0.000 g/cm3
Volume (V) : 0.001 cm³
Record Analogic IN 1
Text export
   Mode : Standard
   Time format : Elapsed
Cycle Definition : Charge/Discharge alternance
External device configuration :
   device type : Temperature Probe
   device name : Other
   Analog IN 1 : 
      unit : T/Â°C
      max : 100.000 at 2.000 V
      min : 0.000 at 1.460 V
tR (h:m:s)          0:03:0.0000         
dER/dt (mV/h)       1.0                 
record              <Ewe>               
dER (mV)            10.00               
dtR (s)             0.5000              
E range min (V)     -2.500              
E range max (V)     2.500               

mode	error	time/s	<Ewe/V>	Analog IN 1/V	
3	0	9.454373826598021E+002	1.2184206E+000	-2.7038385E+002
3	0	9.459373826471710E+002	1.1665549E+000	-2.7037677E+002
3	0	9.464373826345400E+002	7.8700101E-001	-2.7038742E+002
3	0	9.469373826219089E+002	4.1559812E-001	-2.7039447E+002
3	0	9.474373826092778E+002	3.4486538E-001	-2.7038031E+002
3	0	9.479373825966468E+002	3.3337358E-001	-2.7038031E+002
3	0	9.484373825840157E+002	3.2574108E-001	-2.7038742E+002
3	0	9.489373825713847E+002	3.1971312E-001	-2.7037326E+002
3	0	9.494373825587536E+002	3.1509361E-001	-2.7036972E+002
3	0	9.499373825461225E+002	3.1151959E-001	-2.7036972E+002
3	0	9.504373825334915E+002	3.0867147E-001	-2.7038385E+002
3	0	9.509373825208604E+002	3.0633885E-001	-2.7035913E+002
3	0	9.514373825082293E+002	3.0441737E-001	-2.7038742E+002
3	0	9.519373824955983E+002	3.0279267E-001	-2.7039093E+002
3	0	9.524373824829672E+002	3.0138060E-001	-2.7038031E+002
3	0	9.529373824703362E+002	3.0012411E-001	-2.7035559E+002
3	0	9.534373824577051E+002	2.9899958E-001	-2.7038742E+002
3	0	9.539373824450740E+002	2.9797730E-001	-2.7038742E+002
3	0	9.544373824324430E+002	2.9700351E-001	-2.7039093E+002
3	0	9.549373824198119E+002	2.9608408E-001	-2.7039093E+002
3	0	9.554373824071808E+002	2.9525420E-001	-2.7036972E+002
3	0	9.559373823945498E+002	2.9449540E-001	-2.7038031E+002
3	0	9.564373823819187E+002	2.9376701E-001	-2.7036267E+002
3	0	9.569373823692877E+002	2.9306766E-001	-2.7037677E+002
3	0	9.574373823566566E+002	2.9238498E-001	-2.7037677E+002
3	0	9.579373823440255E+002	2.9171661E-001	-2.7039801E+002
3	0	9.584373823313945E+002	2.9104304E-001	-2.7038031E+002
3	0	9.589373823187634E+002	2.9037431E-001	-2.7037677E+002
3	0	9.594373823061323E+002	2.8975525E-001	-2.7036618E+002
3	0	9.599373822935013E+002	2.8916538E-001	-2.7035913E+002
3	0	9.604373822808702E+002	2.8858736E-001	-2.7036267E+002
3	0	9.609373822682392E+002	2.8801519E-001	-2.7037326E+002
3	0	9.614373822556081E+002	2.8745002E-001	-2.7035559E+002
3	0	9.619373822429770E+002	2.8689840E-001	-2.7039093E+002
3	0	9.624373822303460E+002	2.8632012E-001	-2.7036618E+002
3	0	9.629373822177149E+002	2.8574303E-001	-2.7038385E+002
3	0	9.634373822050839E+002	2.8520671E-001	-2.7036972E+002
3	0	9.639373821924528E+002	2.8469285E-001	-2.7035559E+002
3	0	9.644373821798217E+002	2.8418526E-001	-2.7037326E+002
3	0	9.649373821671907E+002	2.8367543E-001	-2.7038742E+002
3	0	9.654373821545596E+002	2.8317443E-001	-2.7036618E+002
3	0	9.659373821419285E+002	2.8266802E-001	-2.7037326E+002
3	0	9.664373821292975E+002	2.8215390E-001	-2.7037326E+002
3	0	9.669373821166664E+002	2.8162199E-001	-2.7033438E+002
3	0	9.674373821040354E+002	2.8113073E-001	-2.7039093E+002
3	0	9.679373820914043E+002	2.8066850E-001	-2.7036972E+002
3	0	9.684373820787732E+002	2.8020296E-001	-2.7038385E+002
3	0	9.689373820661422E+002	2.7974138E-001	-2.7036972E+002
3	0	9.694373820535111E+002	2.7928612E-001	-2.7038031E+002
3	0	9.699373820408800E+002	2.7882695E-001	-2.7039447E+002
3	0	9.704373820282490E+002	2.7834669E-001	-2.7037326E+002
3	0	9.709373820156179E+002	2.7785629E-001	-2.7036618E+002
3	0	9.714373820029869E+002	2.7740890E-001	-2.7037677E+002
3	0	9.719373819903558E+002	2.7697930E-001	-2.7037677E+002
3	0	9.724373819777247E+002	2.7655110E-001	-2.7036267E+002
3	0	9.729373819650937E+002	2.7612019E-001	-2.7037326E+002
3	0	9.734373819524626E+002	2.7570215E-001	-2.7037326E+002
3	0	9.739373819398315E+002	2.7526933E-001	-2.7040860E+002
3	0	9.744373819272005E+002	2.7482274E-001	-2.7035559E+002
3	0	9.749373819145694E+002	2.7437484E-001	-2.7040860E+002
3	0	9.754373819019384E+002	2.7395955E-001	-2.7036267E+002
3	0	9.759373818893073E+002	2.7357045E-001	-2.7038031E+002
3	0	9.764373818766762E+002	2.7317393E-001	-2.7036618E+002
3	0	9.769373818640452E+002	2.7277502E-001	-2.7041568E+002
3	0	9.774373818514141E+002	2.7238500E-001	-2.7037326E+002
3	0	9.779373818387830E+002	2.7199391E-001	-2.7036618E+002
3	0	9.784373818261520E+002	2.7157944E-001	-2.7035913E+002
3	0	9.789373818135209E+002	2.7115414E-001	-2.7038385E+002
3	0	9.794373818008899E+002	2.7077448E-001	-2.7038385E+002
3	0	9.799373817882588E+002	2.7040583E-001	-2.7039093E+002
3	0	9.804373817756277E+002	2.7004015E-001	-2.7039447E+002
3	0	9.809373817629967E+002	2.6968542E-001	-2.7037326E+002
3	0	9.814373817503656E+002	2.6932728E-001	-2.7037677E+002
3	0	9.819373817377345E+002	2.6895735E-001	-2.7037677E+002
3	0	9.824373817251035E+002	2.6857105E-001	-2.7038742E+002
3	0	9.829373817124724E+002	2.6818672E-001	-2.7037677E+002
3	0	9.834373816998414E+002	2.6783633E-001	-2.7036972E+002
3	0	9.839373816872103E+002	2.6750025E-001	-2.7036267E+002
3	0	9.844373816745792E+002	2.6716608E-001	-2.7037326E+002
3	0	9.849373816619482E+002	2.6683617E-001	-2.7041214E+002
3	0	9.854373816493171E+002	2.6650262E-001	-2.7037677E+002
3	0	9.859373816366860E+002	2.6616821E-001	-2.7037326E+002
3	0	9.864373816240550E+002	2.6582128E-001	-2.7038742E+002
3	0	9.869373816114239E+002	2.6545912E-001	-2.7038031E+002
3	0	9.874373815987929E+002	2.6513338E-001	-2.7038031E+002
3	0	9.879373815861618E+002	2.6483294E-001	-2.7037677E+002
3	0	9.884373815735307E+002	2.6453266E-001	-2.7039801E+002
3	0	9.889373815608997E+002	2.6422751E-001	-2.7035913E+002
3	0	9.894373815482686E+002	2.6393026E-001	-2.7039093E+002
3	0	9.899373815356375E+002	2.6362148E-001	-2.7036618E+002
3	0	9.904373815230065E+002	2.6329941E-001	-2.7036267E+002
3	0	9.909373815103754E+002	2.6296523E-001	-2.7039093E+002
3	0	9.914373814977444E+002	2.6267120E-001	-2.7038385E+002
3	0	9.919373814851133E+002	2.6239485E-001	-2.7036972E+002
3	0	9.924373814724822E+002	2.6211983E-001	-2.7038385E+002
3	0	9.929373814598512E+002	2.6183611E-001	-2.7036618E+002
3	0	9.934373814472201E+002	2.6156318E-001	-2.7039093E+002
3	0	9.939373814345890E+002	2.6127985E-001	-2.7037326E+002
3	0	9.944373814219580E+002	2.6097873E-001	-2.7038385E+002
3	0	9.949373814093269E+002	2.6066852E-001	-2.7036972E+002
3	0	9.954373813966959E+002	2.6039639E-001	-2.7035205E+002
3	0	9.959373813840648E+002	2.6014265E-001	-2.7037326E+002
3	0	9.964373813714337E+002	2.5989178E-001	-2.7037677E+002
3	0	9.969373813588027E+002	2.5965008E-001	-2.7036972E+002
3	0	9.974373813461716E+002	2.5939524E-001	-2.7038031E+002
3	0	9.979373813335405E+002	2.5914040E-001	-2.7038385E+002
3	0	9.984373813209095E+002	2.5886583E-001	-2.7040506E+002
3	0	9.989373813082784E+002	2.5857905E-001	-2.7035913E+002
3	0	9.994373812956474E+002	2.5833437E-001	-2.7039447E+002
3	0	9.999373812830163E+002	2.5810376E-001	-2.7037326E+002
3	0	1.000437381270385E+003	2.5787759E-001	-2.7038031E+002
3	0	1.000937381257754E+003	2.5764352E-001	-2.7039093E+002
3	0	1.001437381245123E+003	2.5740749E-001	-2.7039093E+002
3	0	1.001937381232492E+003	2.5717044E-001	-2.7037326E+002
3	0	1.002437381219861E+003	2.5691229E-001	-2.7038031E+002
3	0	1.002937381207230E+003	2.5665098E-001	-2.7038031E+002
3	0	1.003437381194599E+003	2.5642359E-001	-2.7035559E+002
3	0	1.003937381181968E+003	2.5621742E-001	-2.7040155E+002
3	0	1.004437381169337E+003	2.5600451E-001	-2.7039093E+002
3	0	1.004937381156706E+003	2.5579193E-001	-2.7038385E+002
3	0	1.005437381144075E+003	2.5558177E-001	-2.7039093E+002
3	0	1.005937381131444E+003	2.5536266E-001	-2.7037677E+002
3	0	1.006437381118812E+003	2.5511608E-001	-2.7037326E+002
3	0	1.006937381106181E+003	2.5487241E-001	-2.7035205E+002
3	0	1.007437381093550E+003	2.5466335E-001	-2.7037326E+002
3	0	1.007937381080919E+003	2.5447094E-001	-2.7038385E+002
3	0	1.008437381068288E+003	2.5428483E-001	-2.7040860E+002
3	0	1.008937381055657E+003	2.5409028E-001	-2.7038742E+002
3	0	1.009437381043026E+003	2.5389251E-001	-2.7035559E+002
3	0	1.009937381030395E+003	2.5369760E-001	-2.7041214E+002
3	0	1.010437381017764E+003	2.5347620E-001	-2.7039093E+002
3	0	1.010937381005133E+003	2.5324127E-001	-2.7040155E+002
3	0	1.011437380992502E+003	2.5305265E-001	-2.7033789E+002
3	0	1.011937380979871E+003	2.5287709E-001	-2.7038742E+002
3	0	1.012437380967240E+003	2.5269738E-001	-2.7035559E+002
3	0	1.012937380954609E+003	2.5251600E-001	-2.7038385E+002
3	0	1.013437380941978E+003	2.5233966E-001	-2.7037326E+002
3	0	1.013937380929347E+003	2.5214759E-001	-2.7038385E+002
3	0	1.014437380916715E+003	2.5194401E-001	-2.7035205E+002
3	0	1.014937380904084E+003	2.5172237E-001	-2.7038385E+002
3	0	1.015437380891453E+003	2.5154242E-001	-2.7037677E+002
3	0	1.015937380878822E+003	2.5137681E-001	-2.7040506E+002
3	0	1.016437380866191E+003	2.5121549E-001	-2.7039093E+002
3	0	1.016937380853560E+003	2.5105122E-001	-2.7040860E+002
3	0	1.017437380840929E+003	2.5088266E-001	-2.7036618E+002
3	0	1.017937380828298E+003	2.5070000E-001	-2.7037326E+002
3	0	1.018437380815667E+003	2.5050220E-001	-2.7037677E+002
3	0	1.018937380803036E+003	2.5029099E-001	-2.7037677E+002
3	0	1.019437380790405E+003	2.5011683E-001	-2.7038031E+002
3	0	1.019937380777774E+003	2.4996234E-001	-2.7038385E+002
3	0	1.020437380765143E+003	2.4981061E-001	-2.7039801E+002
3	0	1.020937380752512E+003	2.4964933E-001	-2.7038385E+002
3	0	1.021437380739881E+003	2.4949273E-001	-2.7039801E+002
3	0	1.021937380727250E+003	2.4932462E-001	-2.7035913E+002
3	0	1.022437380714618E+003	2.4913976E-001	-2.7039801E+002
3	0	1.022937380701987E+003	2.4893832E-001	-2.7038742E+002
3	0	1.023437380689356E+003	2.4878336E-001	-2.7037326E+002
3	0	1.023937380676725E+003	2.4864356E-001	-2.7038031E+002
3	0	1.024437380664094E+003	2.4849696E-001	-2.7036618E+002
3	0	1.024937380651463E+003	2.4835025E-001	-2.7037677E+002
3	0	1.025437380638832E+003	2.4820313E-001	-2.7038385E+002
3	0	1.025937380626201E+003	2.4805197E-001	-2.7036267E+002
3	0	1.026437380613570E+003	2.4788055E-001	-2.7037677E+002
3	0	1.026937380600939E+003	2.4769308E-001	-2.7038742E+002
3	0	1.027437380588308E+003	2.4755223E-001	-2.7036618E+002
3	0	1.027937380575677E+003	2.4743088E-001	-2.7036972E+002
3	0	1.028437380563046E+003	2.4730289E-001	-2.7037326E+002
3	0	1.028937380550415E+003	2.4716702E-001	-2.7036267E+002
3	0	1.029437380537784E+003	2.4704093E-001	-2.7037677E+002
3	0	1.029937380525153E+003	2.4689691E-001	-2.7035913E+002
3	0	1.030437380512521E+003	2.4673668E-001	-2.7036972E+002
3	0	1.030937380499890E+003	2.4656698E-001	-2.7035913E+002
3	0	1.031437380487259E+003	2.4643399E-001	-2.7038742E+002
3	0	1.031937380474628E+003	2.4631669E-001	-2.7039093E+002
3	0	1.032437380461997E+003	2.4619596E-001	-2.7039447E+002
3	0	1.032937380449366E+003	2.4607338E-001	-2.7036618E+002
3	0	1.033437380436735E+003	2.4594672E-001	-2.7038385E+002
3	0	1.033937380424104E+003	2.4581595E-001	-2.7041214E+002
3	0	1.034437380411473E+003	2.4566606E-001	-2.7036267E+002
3	0	1.034937380398842E+003	2.4549937E-001	-2.7036618E+002
3	0	1.035437380386211E+003	2.4537677E-001	-2.7036618E+002
3	0	1.035937380373580E+003	2.4526365E-001	-2.7037677E+002
3	0	1.036437380360949E+003	2.4515235E-001	-2.7036972E+002
3	0	1.036937380348318E+003	2.4503402E-001	-2.7038385E+002
3	0	1.037437380335687E+003	2.4491352E-001	-2.7036618E+002
3	0	1.037937380323056E+003	2.4478599E-001	-2.7036618E+002
3	0	1.038437380310424E+003	2.4462874E-001	-2.7037326E+002
3	0	1.038937380297793E+003	2.4446346E-001	-2.7039093E+002
3	0	1.039437380285162E+003	2.4434409E-001	-2.7036972E+002
3	0	1.039937380272531E+003	2.4425071E-001	-2.7036972E+002
3	0	1.040437380259900E+003	2.4414325E-001	-2.7039093E+002
3	0	1.040937380247269E+003	2.4403636E-001	-2.7037326E+002
3	0	1.041437380234638E+003	2.4392128E-001	-2.7035559E+002
3	0	1.041937380222007E+003	2.4380250E-001	-2.7040155E+002
3	0	1.042437380209376E+003	2.4365580E-001	-2.7037677E+002
3	0	1.042937380196745E+003	2.4350540E-001	-2.7039447E+002
3	0	1.043437380184114E+003	2.4339569E-001	-2.7037326E+002
3	0	1.043937380171483E+003	2.4329913E-001	-2.7040155E+002
3	0	1.044437380158852E+003	2.4320279E-001	-2.7037677E+002
3	0	1.044937380146221E+003	2.4310416E-001	-2.7038742E+002
3	0	1.045437380133590E+003	2.4300148E-001	-2.7038385E+002
3	0	1.045937380120959E+003	2.4289237E-001	-2.7036972E+002
3	0	1.046437380108327E+003	2.4276155E-001	-2.7036267E+002
3	0	1.046937380095696E+003	2.4261512E-001	-2.7038031E+002
3	0	1.047437380083065E+003	2.4250723E-001	-2.7040860E+002
3	0	1.047937380070434E+003	2.4241675E-001	-2.7037677E+002
3	0	1.048437380057803E+003	2.4232174E-001	-2.7036267E+002
3	0	1.048937380045172E+003	2.4222729E-001	-2.7037677E+002
3	0	1.049437380032541E+003	2.4212863E-001	-2.7036267E+002
3	0	1.049937380019910E+003	2.4202441E-001	-2.7035205E+002
3	0	1.050437380007279E+003	2.4189964E-001	-2.7039447E+002
3	0	1.050937379994648E+003	2.4176070E-001	-2.7035559E+002
3	0	1.051437379982017E+003	2.4165954E-001	-2.7037326E+002
3	0	1.051937379969386E+003	2.4157779E-001	-2.7036267E+002
3	0	1.052437379956755E+003	2.4149735E-001	-2.7037326E+002
3	0	1.052937379944124E+003	2.4140814E-001	-2.7037677E+002
3	0	1.053437379931493E+003	2.4131551E-001	-2.7038742E+002
3	0	1.053937379918862E+003	2.4121529E-001	-2.7039093E+002
3	0	1.054437379906230E+003	2.4108261E-001	-2.7039447E+002
3	0	1.054937379893599E+003	2.4095172E-001	-2.7035205E+002
3	0	1.055437379880968E+003	2.4086548E-001	-2.7035913E+002
3	0	1.055937379868337E+003	2.4078885E-001	-2.7035913E+002
3	0	1.056437379855706E+003	2.4070841E-001	-2.7038385E+002
3	0	1.056937379843075E+003	2.4062580E-001	-2.7036267E+002
3	0	1.057437379830444E+003	2.4053808E-001	-2.7039093E+002
3	0	1.057937379817813E+003	2.4044107E-001	-2.7037326E+002
3	0	1.058437379805182E+003	2.4032411E-001	-2.7038031E+002
3	0	1.058937379792551E+003	2.4019226E-001	-2.7038385E+002
3	0	1.059437379779920E+003	2.4009821E-001	-2.7039801E+002
3	0	1.059937379767289E+003	2.4001312E-001	-2.7037677E+002
3	0	1.060437379754658E+003	2.3992780E-001	-2.7037326E+002
3	0	1.060937379742027E+003	2.3983194E-001	-2.7038031E+002
3	0	1.061437379729396E+003	2.3974310E-001	-2.7039093E+002
3	0	1.061937379716765E+003	2.3964120E-001	-2.7035205E+002
3	0	1.062437379704133E+003	2.3952477E-001	-2.7037677E+002
3	0	1.062937379691502E+003	2.3939130E-001	-2.7038742E+002
3	0	1.063437379678871E+003	2.3930119E-001	-2.7036267E+002
3	0	1.063937379666240E+003	2.3922496E-001	-2.7039447E+002
3	0	1.064437379653609E+003	2.3914923E-001	-2.7036972E+002
3	0	1.064937379640978E+003	2.3907332E-001	-2.7039093E+002
3	0	1.065437379628347E+003	2.3899499E-001	-2.7038742E+002
3	0	1.065937379615716E+003	2.3890130E-001	-2.7036267E+002
3	0	1.066437379603085E+003	2.3878458E-001	-2.7039093E+002
3	0	1.066937379590454E+003	2.3865628E-001	-2.7036972E+002
3	0	1.067437379577823E+003	2.3857203E-001	-2.7037677E+002
3	0	1.067937379565192E+003	2.3850374E-001	-2.7039447E+002
3	0	1.068437379552561E+003	2.3843332E-001	-2.7039093E+002
3	0	1.068937379539930E+003	2.3835589E-001	-2.7037677E+002
3	0	1.069437379527299E+003	2.3828579E-001	-2.7039093E+002
3	0	1.069937379514668E+003	2.3820180E-001	-2.7037677E+002
3	0	1.070437379502036E+003	2.3809056E-001	-2.7038031E+002
3	0	1.070937379489405E+003	2.3797230E-001	-2.7036267E+002
3	0	1.071437379476774E+003	2.3789258E-001	-2.7039093E+002
3	0	1.071937379464143E+003	2.3782891E-001	-2.7036972E+002
3	0	1.072437379451512E+003	2.3775631E-001	-2.7038031E+002
3	0	1.072937379438881E+003	2.3768644E-001	-2.7038385E+002
3	0	1.073437379426250E+003	2.3760843E-001	-2.7038031E+002
3	0	1.073937379413619E+003	2.3751941E-001	-2.7038742E+002
3	0	1.074437379400988E+003	2.3740548E-001	-2.7041214E+002
3	0	1.074937379388357E+003	2.3728248E-001	-2.7038742E+002
3	0	1.075437379375726E+003	2.3720624E-001	-2.7038385E+002
3	0	1.075937379363095E+003	2.3714618E-001	-2.7035913E+002
3	0	1.076437379350464E+003	2.3708133E-001	-2.7037326E+002
3	0	1.076937379337833E+003	2.3701304E-001	-2.7036972E+002
3	0	1.077437379325202E+003	2.3694214E-001	-2.7038385E+002
3	0	1.077937379312571E+003	2.3686503E-001	-2.7038742E+002
3	0	1.078437379299939E+003	2.3675850E-001	-2.7037326E+002
3	0	1.078937379287308E+003	2.3664063E-001	-2.7036618E+002
3	0	1.079437379274677E+003	2.3656486E-001	-2.7037326E+002
3	0	1.079937379262046E+003	2.3649821E-001	-2.7037677E+002
3	0	1.080437379249415E+003	2.3643172E-001	-2.7037677E+002
3	0	1.080937379236784E+003	2.3635787E-001	-2.7037326E+002
3	0	1.081437379224153E+003	2.3628978E-001	-2.7038385E+002
3	0	1.081937379211522E+003	2.3620561E-001	-2.7038742E+002
3	0	1.082437379198891E+003	2.3610285E-001	-2.7038742E+002
3	0	1.082937379186260E+003	2.3598763E-001	-2.7037677E+002
3	0	1.083437379173629E+003	2.3591149E-001	-2.7036267E+002
3	0	1.083937379160998E+003	2.3585348E-001	-2.7036618E+002
3	0	1.084437379148367E+003	2.3579146E-001	-2.7037677E+002
3	0	1.084937379135736E+003	2.3573680E-001	-2.7038385E+002
3	0	1.085437379123105E+003	2.3566911E-001	-2.7037677E+002
3	0	1.085937379110474E+003	2.3559996E-001	-2.7038742E+002
3	0	1.086437379097842E+003	2.3550999E-001	-2.7036618E+002
3	0	1.086937379085211E+003	2.3540685E-001	-2.7040506E+002
3	0	1.087437379072580E+003	2.3534352E-001	-2.7038742E+002
3	0	1.087937379059949E+003	2.3528792E-001	-2.7036618E+002
3	0	1.088437379047318E+003	2.3523878E-001	-2.7036972E+002
3	0	1.088937379034687E+003	2.3518111E-001	-2.7038385E+002
3	0	1.089437379022056E+003	2.3512533E-001	-2.7039093E+002
3	0	1.089937379009425E+003	2.3505631E-001	-2.7038385E+002
3	0	1.090437378996794E+003	2.3495883E-001	-2.7034851E+002
3	0	1.090937378984163E+003	2.3485148E-001	-2.7036618E+002
3	0	1.091437378971532E+003	2.3478444E-001	-2.7038742E+002
3	0	1.091937378958901E+003	2.3473097E-001	-2.7038031E+002
3	0	1.092437378946270E+003	2.3467523E-001	-2.7038742E+002
3	0	1.092937378933639E+003	2.3462187E-001	-2.7037677E+002
3	0	1.093437378921008E+003	2.3457228E-001	-2.7037326E+002
3	0	1.093937378908377E+003	2.3450711E-001	-2.7037677E+002
3	0	1.094437378895746E+003	2.3442052E-001	-2.7038385E+002
3	0	1.094937378883114E+003	2.3431505E-001	-2.7035559E+002
3	0	1.095437378870483E+003	2.3425265E-001	-2.7037677E+002
3	0	1.095937378857852E+003	2.3420826E-001	-2.7038031E+002
3	0	1.096437378845221E+003	2.3415768E-001	-2.7037326E+002
3	0	1.096937378832590E+003	2.3410350E-001	-2.7038031E+002
3	0	1.097437378819959E+003	2.3404396E-001	-2.7038742E+002
3	0	1.097937378807328E+003	2.3398380E-001	-2.7039801E+002
3	0	1.098437378794697E+003	2.3389263E-001	-2.7038385E+002
3	0	1.098937378782066E+003	2.3378360E-001	-2.7038385E+002
3	0	1.099437378769435E+003	2.3371832E-001	-2.7039093E+002
3	0	1.099937378756804E+003	2.3366784E-001	-2.7038031E+002
3	0	1.100437378744173E+003	2.3361850E-001	-2.7037326E+002
3	0	1.100937378731542E+003	2.3356183E-001	-2.7038742E+002
3	0	1.101437378718911E+003	2.3350379E-001	-2.7036972E+002
3	0	1.101937378706280E+003	2.3344006E-001	-2.7038742E+002
3	0	1.102437378693649E+003	2.3334381E-001	-2.7038742E+002
3	0	1.102937378681017E+003	2.3323917E-001	-2.7037326E+002
3	0	1.103437378668386E+003	2.3317508E-001	-2.7038742E+002
3	0	1.103937378655755E+003	2.3312227E-001	-2.7037677E+002
3	0	1.104437378643124E+003	2.3307095E-001	-2.7037326E+002
3	0	1.104937378630493E+003	2.3301363E-001	-2.7036618E+002
3	0	1.105437378617862E+003	2.3293966E-001	-2.7036972E+002
3	0	1.105937378605231E+003	2.3287790E-001	-2.7038742E+002
3	0	1.106437378592600E+003	2.3281163E-001	-2.7040155E+002
3	0	1.106937378579969E+003	2.3272383E-001	-2.7038385E+002
3	0	1.107437378567338E+003	2.3267552E-001	-2.7038031E+002
3	0	1.107937378554707E+003	2.3263262E-001	-2.7037677E+002
3	0	1.108437378542076E+003	2.3258124E-001	-2.7036972E+002
3	0	1.108937378529445E+003	2.3252508E-001	-2.7036267E+002
3	0	1.109437378516814E+003	2.3247521E-001	-2.7040506E+002
3	0	1.109937378504183E+003	2.3241180E-001	-2.7036972E+002
3	0	1.110437378491552E+003	2.3232323E-001	-2.7038385E+002
3	0	1.110937378478920E+003	2.3222995E-001	-2.7037677E+002
3	0	1.111437378466289E+003	2.3217753E-001	-2.7038031E+002
3	0	1.111937378453658E+003	2.3213629E-001	-2.7038031E+002
3	0	1.112437378441027E+003	2.3209088E-001	-2.7037326E+002
3	0	1.112937378428396E+003	2.3204406E-001	-2.7036618E+002
3	0	1.113437378415765E+003	2.3199588E-001	-2.7038031E+002
3	0	1.113937378403134E+003	2.3193981E-001	-2.7036972E+002
3	0	1.114437378390503E+003	2.3185901E-001	-2.7038031E+002
3	0	1.114937378377872E+003	2.3177116E-001	-2.7038031E+002
3	0	1.115437378365241E+003	2.3172660E-001	-2.7039093E+002
3	0	1.115937378352610E+003	2.3168233E-001	-2.7037326E+002
3	0	1.116437378339979E+003	2.3163702E-001	-2.7035205E+002
3	0	1.116937378327348E+003	2.3158988E-001	-2.7036267E+002
3	0	1.117437378314717E+003	2.3154603E-001	-2.7038742E+002
3	0	1.117937378302086E+003	2.3149034E-001	-2.7035913E+002
3	0	1.118437378289455E+003	2.3140794E-001	-2.7038742E+002
3	0	1.118937378276823E+003	2.3131260E-001	-2.7036972E+002
3	0	1.119437378264192E+003	2.3126639E-001	-2.7037677E+002
3	0	1.119937378251561E+003	2.3122421E-001	-2.7037677E+002
3	0	1.120437378238930E+003	2.3118693E-001	-2.7038031E+002
3	0	1.120937378226299E+003	2.3115189E-001	-2.7042627E+002
3	0	1.121437378213668E+003	2.3110589E-001	-2.7038742E+002
3	0	1.121937378201037E+003	2.3105609E-001	-2.7036618E+002
3	0	1.122437378188406E+003	2.3098385E-001	-2.7034851E+002
3	0	1.122937378175775E+003	2.3089346E-001	-2.7038385E+002
3	0	1.123437378163144E+003	2.3084889E-001	-2.7037677E+002
3	0	1.123937378150513E+003	2.3081432E-001	-2.7039093E+002
3	0	1.124437378137882E+003	2.3077154E-001	-2.7037677E+002
3	0	1.124937378125251E+003	2.3073080E-001	-2.7039093E+002
3	0	1.124937778125241E+003	2.3063625E-001	-2.7036972E+002