EC-Lab ASCII FILE
Nb header lines : 55                          

Open Circuit Voltage

Run on channel : 1 (SN 81504)
User : 
CE vs. WE compliance from -10 V to 10 V
Electrode connection : standard
Potential control : Ewe
Ewe ctrl range : min = -2.50 V, max = 2.50 V
Safety Limits :
	Do not start on E overload
Acquisition started on : 05/10/2026 06:49:56.074
Loaded Setting File :  C:\PEM-WE_measurements\2026\372_IV_IV IrOx, 5 min Pt, 30 min C, etched cathode\new station\Loopeis new\1,46 V different time gaps closed cell\Loopeis 1,46V_120s_4_PEIS from 650Hz to 100Hz.mps
Saved on :
	File : L_24_Loopeis 1,46V_120s_4_PEIS from 650Hz to 100Hz_04_OCV_C01.mpr
	Directory : C:\PEM-WE_measurements\2026\372_IV_IV IrOx, 5 min Pt, 30 min C, etched cathode\new station\Loopeis new\1,46 V different time gaps closed cell\
	Host : 192.168.0.2
Device : SP-150e (SN .005491)
Address : 192.168.0.91
EC-LAB for windows v11.71 (software)
Internet server v28.00 (firmware)
Command interpretor v14.01 (firmware)
Electrode material : 
Initial state : 
Electrolyte : 
Comments : 
Current amplifier : SP-150eB-20A
Electrode surface area : 0.001 cm²
Characteristic mass : 0.001 g
Equivalent Weight : 0.000 g/eq.
Density : 0.000 g/cm3
Volume (V) : 0.001 cm³
Record Analogic IN 1
Text export
   Mode : Standard
   Time format : Elapsed
Cycle Definition : Charge/Discharge alternance
External device configuration :
   device type : Temperature Probe
   device name : Other
   Analog IN 1 : 
      unit : T/Â°C
      max : 100.000 at 2.000 V
      min : 0.000 at 1.460 V
tR (h:m:s)          0:02:0.0000         
dER/dt (mV/h)       1.0                 
record              <Ewe>               
dER (mV)            10.00               
dtR (s)             0.5000              
E range min (V)     -2.500              
E range max (V)     2.500               

mode	error	time/s	<Ewe/V>	Analog IN 1/V	
3	0	2.101965979437227E+002	1.1235036E+000	-2.7036972E+002
3	0	2.106965979310917E+002	1.2585627E+000	-2.7037326E+002
3	0	2.111965979184606E+002	1.2555475E+000	-2.7036972E+002
3	0	2.116965979058295E+002	1.2458909E+000	-2.7038031E+002
3	0	2.121965978931985E+002	1.2272928E+000	-2.7038031E+002
3	0	2.126965978805674E+002	1.1962500E+000	-2.7038385E+002
3	0	2.131965978679364E+002	1.1458274E+000	-2.7034143E+002
3	0	2.136965978553053E+002	1.0542260E+000	-2.7035913E+002
3	0	2.141965978426742E+002	7.9715776E-001	-2.7036267E+002
3	0	2.146965978300432E+002	5.2385134E-001	-2.7041919E+002
3	0	2.151965978174121E+002	4.2159918E-001	-2.7036267E+002
3	0	2.156965978047810E+002	3.8910928E-001	-2.7038385E+002
3	0	2.161965977921500E+002	3.7980968E-001	-2.7036972E+002
3	0	2.166965977795189E+002	3.7604204E-001	-2.7041214E+002
3	0	2.171965977668879E+002	3.7360308E-001	-2.7036267E+002
3	0	2.176965977542568E+002	3.7231889E-001	-2.7037326E+002
3	0	2.181965977416257E+002	3.7116039E-001	-2.7039093E+002
3	0	2.186965977289947E+002	3.7001070E-001	-2.7039801E+002
3	0	2.191965977163636E+002	3.6891750E-001	-2.7039801E+002
3	0	2.196965977037326E+002	3.6798561E-001	-2.7036267E+002
3	0	2.201965976911015E+002	3.6714086E-001	-2.7037677E+002
3	0	2.206965976784704E+002	3.6627257E-001	-2.7040506E+002
3	0	2.211965976658394E+002	3.6555973E-001	-2.7038385E+002
3	0	2.216965976532083E+002	3.6566061E-001	-2.7039447E+002
3	0	2.221965976405772E+002	3.6570820E-001	-2.7039801E+002
3	0	2.226965976279462E+002	3.6566472E-001	-2.7038385E+002
3	0	2.231965976153151E+002	3.6553332E-001	-2.7036267E+002
3	0	2.236965976026841E+002	3.6547098E-001	-2.7040860E+002
3	0	2.241965975900530E+002	3.6521682E-001	-2.7037677E+002
3	0	2.246965975774219E+002	3.6478260E-001	-2.7038031E+002
3	0	2.251965975647909E+002	3.6446071E-001	-2.7037326E+002
3	0	2.256965975521598E+002	3.6480868E-001	-2.7036618E+002
3	0	2.261965975395287E+002	3.6504552E-001	-2.7038742E+002
3	0	2.266965975268977E+002	3.6516732E-001	-2.7036972E+002
3	0	2.271965975142666E+002	3.6516553E-001	-2.7038742E+002
3	0	2.276965975016356E+002	3.6513862E-001	-2.7038385E+002
3	0	2.281965974890045E+002	3.6503688E-001	-2.7037677E+002
3	0	2.286965974763734E+002	3.6474699E-001	-2.7038031E+002
3	0	2.291965974637424E+002	3.6446592E-001	-2.7039447E+002
3	0	2.296965974511113E+002	3.6482152E-001	-2.7039447E+002
3	0	2.301965974384802E+002	3.6508745E-001	-2.7038031E+002
3	0	2.306965974258492E+002	3.6521512E-001	-2.7039093E+002
3	0	2.311965974132181E+002	3.6528793E-001	-2.7036972E+002
3	0	2.316965974005871E+002	3.6541229E-001	-2.7037677E+002
3	0	2.321965973879560E+002	3.6554432E-001	-2.7037326E+002
3	0	2.326965973753249E+002	3.6564943E-001	-2.7038031E+002
3	0	2.331965973626939E+002	3.6589009E-001	-2.7036972E+002
3	0	2.336965973500628E+002	3.6678565E-001	-2.7038031E+002
3	0	2.341965973374317E+002	3.6770645E-001	-2.7038031E+002
3	0	2.346965973248007E+002	3.6856127E-001	-2.7038742E+002
3	0	2.351965973121696E+002	3.6929420E-001	-2.7038031E+002
3	0	2.356965972995386E+002	3.6996460E-001	-2.7038742E+002
3	0	2.361965972869075E+002	3.7042809E-001	-2.7039801E+002
3	0	2.366965972742764E+002	3.7065524E-001	-2.7036618E+002
3	0	2.371965972616454E+002	3.7089154E-001	-2.7039093E+002
3	0	2.376965972490143E+002	3.7163720E-001	-2.7037677E+002
3	0	2.381965972363832E+002	3.7227958E-001	-2.7036618E+002
3	0	2.386965972237522E+002	3.7272158E-001	-2.7038742E+002
3	0	2.391965972111211E+002	3.7301761E-001	-2.7038031E+002
3	0	2.396965971984901E+002	3.7326565E-001	-2.7039447E+002
3	0	2.401965971858590E+002	3.7336507E-001	-2.7036972E+002
3	0	2.406965971732279E+002	3.7318048E-001	-2.7035559E+002
3	0	2.411965971605969E+002	3.7304312E-001	-2.7038385E+002
3	0	2.416965971479658E+002	3.7345582E-001	-2.7039093E+002
3	0	2.421965971353347E+002	3.7379557E-001	-2.7037677E+002
3	0	2.426965971227037E+002	3.7392873E-001	-2.7038031E+002
3	0	2.431965971100726E+002	3.7391159E-001	-2.7035913E+002
3	0	2.436965970974416E+002	3.7386221E-001	-2.7038742E+002
3	0	2.441965970848105E+002	3.7364122E-001	-2.7038385E+002
3	0	2.446965970721794E+002	3.7321410E-001	-2.7037326E+002
3	0	2.451965970595484E+002	3.7277609E-001	-2.7038031E+002
3	0	2.456965970469173E+002	3.7286505E-001	-2.7039093E+002
3	0	2.461965970342862E+002	3.7291151E-001	-2.7038031E+002
3	0	2.466965970216552E+002	3.7280205E-001	-2.7035205E+002
3	0	2.471965970090241E+002	3.7258831E-001	-2.7038031E+002
3	0	2.476965969963931E+002	3.7229645E-001	-2.7038742E+002
3	0	2.481965969837620E+002	3.7184390E-001	-2.7038385E+002
3	0	2.486965969711309E+002	3.7126398E-001	-2.7039093E+002
3	0	2.491965969584999E+002	3.7071884E-001	-2.7039447E+002
3	0	2.496965969458688E+002	3.7066656E-001	-2.7035913E+002
3	0	2.501965969332377E+002	3.7054589E-001	-2.7037326E+002
3	0	2.506965969206067E+002	3.7032151E-001	-2.7037326E+002
3	0	2.511965969079756E+002	3.7001389E-001	-2.7040506E+002
3	0	2.516965968953446E+002	3.6982617E-001	-2.7038742E+002
3	0	2.521965968827135E+002	3.6957425E-001	-2.7037677E+002
3	0	2.526965968700824E+002	3.6924183E-001	-2.7036267E+002
3	0	2.531965968574514E+002	3.6908862E-001	-2.7039093E+002
3	0	2.536965968448203E+002	3.6957589E-001	-2.7038742E+002
3	0	2.541965968321892E+002	3.7009686E-001	-2.7038385E+002
3	0	2.546965968195582E+002	3.7059081E-001	-2.7038385E+002
3	0	2.551965968069271E+002	3.7097380E-001	-2.7035913E+002
3	0	2.556965967942961E+002	3.7129691E-001	-2.7036972E+002
3	0	2.561965967816650E+002	3.7149239E-001	-2.7038385E+002
3	0	2.566965967690339E+002	3.7144092E-001	-2.7036972E+002
3	0	2.571965967564029E+002	3.7140298E-001	-2.7040506E+002
3	0	2.576965967437718E+002	3.7179503E-001	-2.7039447E+002
3	0	2.581965967311407E+002	3.7209564E-001	-2.7037326E+002
3	0	2.586965967185097E+002	3.7227318E-001	-2.7039093E+002
3	0	2.591965967058786E+002	3.7225682E-001	-2.7036972E+002
3	0	2.596965966932476E+002	3.7216437E-001	-2.7036972E+002
3	0	2.601965966806165E+002	3.7191185E-001	-2.7035205E+002
3	0	2.606965966679854E+002	3.7148526E-001	-2.7038031E+002
3	0	2.611965966553544E+002	3.7107664E-001	-2.7038385E+002
3	0	2.616965966427233E+002	3.7112784E-001	-2.7038031E+002
3	0	2.621965966300922E+002	3.7108836E-001	-2.7037677E+002
3	0	2.626965966174612E+002	3.7096348E-001	-2.7041568E+002
3	0	2.631965966048301E+002	3.7063956E-001	-2.7036972E+002
3	0	2.636965965921991E+002	3.7036416E-001	-2.7038385E+002
3	0	2.641965965795680E+002	3.6992285E-001	-2.7038742E+002
3	0	2.646965965669369E+002	3.6926469E-001	-2.7040506E+002
3	0	2.651965965543059E+002	3.6863905E-001	-2.7037677E+002
3	0	2.656965965416748E+002	3.6853206E-001	-2.7038385E+002
3	0	2.661965965290437E+002	3.6836907E-001	-2.7038385E+002
3	0	2.666965965164127E+002	3.6809891E-001	-2.7036972E+002
3	0	2.671965965037816E+002	3.6773512E-001	-2.7039801E+002
3	0	2.676965964911506E+002	3.6729854E-001	-2.7038031E+002
3	0	2.681965964785195E+002	3.6678213E-001	-2.7037326E+002
3	0	2.686965964658884E+002	3.6609879E-001	-2.7038031E+002
3	0	2.691965964532574E+002	3.6544302E-001	-2.7036972E+002
3	0	2.696965964406263E+002	3.6526263E-001	-2.7037677E+002
3	0	2.701965964279952E+002	3.6507514E-001	-2.7036618E+002
3	0	2.706965964153642E+002	3.6480939E-001	-2.7037677E+002
3	0	2.711965964027331E+002	3.6443374E-001	-2.7037326E+002
3	0	2.716965963901021E+002	3.6409631E-001	-2.7036972E+002
3	0	2.721965963774710E+002	3.6370352E-001	-2.7036267E+002
3	0	2.726965963648399E+002	3.6327663E-001	-2.7036972E+002
3	0	2.731965963522089E+002	3.6297223E-001	-2.7038031E+002
3	0	2.736965963395778E+002	3.6321232E-001	-2.7038031E+002
3	0	2.741965963269467E+002	3.6351532E-001	-2.7039801E+002
3	0	2.746965963143157E+002	3.6380178E-001	-2.7040506E+002
3	0	2.751965963016846E+002	3.6398011E-001	-2.7038031E+002
3	0	2.756965962890536E+002	3.6416474E-001	-2.7037677E+002
3	0	2.761965962764225E+002	3.6421016E-001	-2.7038385E+002
3	0	2.766965962637914E+002	3.6407018E-001	-2.7038385E+002
3	0	2.771965962511604E+002	3.6389282E-001	-2.7038742E+002
3	0	2.776965962385293E+002	3.6411178E-001	-2.7036618E+002
3	0	2.781965962258982E+002	3.6424154E-001	-2.7039801E+002
3	0	2.786965962132672E+002	3.6423728E-001	-2.7036618E+002
3	0	2.791965962006361E+002	3.6409429E-001	-2.7036972E+002
3	0	2.796965961880051E+002	3.6391845E-001	-2.7038031E+002
3	0	2.801965961753740E+002	3.6361751E-001	-2.7036972E+002
3	0	2.806965961627429E+002	3.6314133E-001	-2.7037677E+002
3	0	2.811965961501119E+002	3.6271894E-001	-2.7038385E+002
3	0	2.816965961374808E+002	3.6267161E-001	-2.7038031E+002
3	0	2.821965961248497E+002	3.6258462E-001	-2.7041214E+002
3	0	2.826965961122187E+002	3.6241424E-001	-2.7039801E+002
3	0	2.831965960995876E+002	3.6209503E-001	-2.7035205E+002
3	0	2.836965960869566E+002	3.6175540E-001	-2.7037677E+002
3	0	2.841965960743255E+002	3.6131242E-001	-2.7038031E+002
3	0	2.846965960616944E+002	3.6071131E-001	-2.7038385E+002
3	0	2.851965960490634E+002	3.6016914E-001	-2.7036618E+002
3	0	2.856965960364323E+002	3.5999358E-001	-2.7039447E+002
3	0	2.861965960238012E+002	3.5981929E-001	-2.7038742E+002
3	0	2.866965960111702E+002	3.5959241E-001	-2.7039447E+002
3	0	2.871965959985391E+002	3.5924521E-001	-2.7036972E+002
3	0	2.876965959859081E+002	3.5886329E-001	-2.7037677E+002
3	0	2.881965959732770E+002	3.5844192E-001	-2.7037326E+002
3	0	2.886965959606459E+002	3.5782990E-001	-2.7037326E+002
3	0	2.891965959480149E+002	3.5722610E-001	-2.7035913E+002
3	0	2.896965959353838E+002	3.5702688E-001	-2.7039093E+002
3	0	2.901965959227527E+002	3.5682032E-001	-2.7036267E+002
3	0	2.906965959101217E+002	3.5655722E-001	-2.7038031E+002
3	0	2.911965958974906E+002	3.5621682E-001	-2.7038742E+002
3	0	2.916965958848596E+002	3.5583869E-001	-2.7036618E+002
3	0	2.921965958722285E+002	3.5549697E-001	-2.7036972E+002
3	0	2.926965958595974E+002	3.5511899E-001	-2.7037326E+002
3	0	2.931965958469664E+002	3.5481432E-001	-2.7036618E+002
3	0	2.936965958343353E+002	3.5496703E-001	-2.7037677E+002
3	0	2.941965958217043E+002	3.5522199E-001	-2.7039093E+002
3	0	2.946965958090732E+002	3.5546452E-001	-2.7038385E+002
3	0	2.951965957964421E+002	3.5569349E-001	-2.7039801E+002
3	0	2.956965957838111E+002	3.5583508E-001	-2.7039093E+002
3	0	2.961965957711800E+002	3.5591435E-001	-2.7037326E+002
3	0	2.966965957585489E+002	3.5578781E-001	-2.7039093E+002
3	0	2.971965957459179E+002	3.5562167E-001	-2.7035205E+002
3	0	2.976965957332868E+002	3.5576528E-001	-2.7037677E+002
3	0	2.981965957206558E+002	3.5588205E-001	-2.7038031E+002
3	0	2.986965957080247E+002	3.5589835E-001	-2.7038742E+002
3	0	2.991965956953936E+002	3.5580000E-001	-2.7036972E+002
3	0	2.996965956827626E+002	3.5567579E-001	-2.7037326E+002
3	0	3.001965956701315E+002	3.5545707E-001	-2.7038385E+002
3	0	3.006965956575004E+002	3.5508031E-001	-2.7036972E+002
3	0	3.011965956448694E+002	3.5470012E-001	-2.7038742E+002
3	0	3.016965956322383E+002	3.5465151E-001	-2.7036972E+002
3	0	3.021965956196073E+002	3.5459435E-001	-2.7038742E+002
3	0	3.026965956069762E+002	3.5446373E-001	-2.7038742E+002
3	0	3.031965955943451E+002	3.5423064E-001	-2.7036618E+002
3	0	3.036965955817141E+002	3.5393292E-001	-2.7039447E+002
3	0	3.041965955690830E+002	3.5354885E-001	-2.7036618E+002
3	0	3.046965955564519E+002	3.5302940E-001	-2.7035205E+002
3	0	3.051965955438209E+002	3.5254440E-001	-2.7036972E+002
3	0	3.056965955311898E+002	3.5238454E-001	-2.7035913E+002
3	0	3.061965955185588E+002	3.5224906E-001	-2.7035205E+002
3	0	3.066965955059277E+002	3.5204151E-001	-2.7036618E+002
3	0	3.071965954932966E+002	3.5178322E-001	-2.7036618E+002
3	0	3.076965954806656E+002	3.5141486E-001	-2.7034851E+002
3	0	3.081965954680345E+002	3.5099190E-001	-2.7036972E+002
3	0	3.086965954554034E+002	3.5044774E-001	-2.7038031E+002
3	0	3.091965954427724E+002	3.4995770E-001	-2.7037677E+002
3	0	3.096965954301413E+002	3.4977654E-001	-2.7037326E+002
3	0	3.101965954175103E+002	3.4957811E-001	-2.7038742E+002
3	0	3.106965954048792E+002	3.4935760E-001	-2.7038031E+002
3	0	3.111965953922481E+002	3.4906176E-001	-2.7035205E+002
3	0	3.116965953796171E+002	3.4875801E-001	-2.7038385E+002
3	0	3.121965953669860E+002	3.4846285E-001	-2.7038742E+002
3	0	3.126965953543549E+002	3.4812361E-001	-2.7036267E+002
3	0	3.131965953417239E+002	3.4782025E-001	-2.7040155E+002
3	0	3.136965953290928E+002	3.4794003E-001	-2.7037677E+002
3	0	3.141965953164618E+002	3.4812608E-001	-2.7037677E+002
3	0	3.146965953038307E+002	3.4832966E-001	-2.7037677E+002
3	0	3.151965952911996E+002	3.4848461E-001	-2.7036972E+002
3	0	3.156965952785686E+002	3.4861347E-001	-2.7036618E+002
3	0	3.161965952659375E+002	3.4868822E-001	-2.7038385E+002
3	0	3.166965952533064E+002	3.4859183E-001	-2.7037677E+002
3	0	3.171965952406754E+002	3.4845567E-001	-2.7038742E+002
3	0	3.176965952280443E+002	3.4858638E-001	-2.7039093E+002
3	0	3.181965952154133E+002	3.4867141E-001	-2.7038385E+002
3	0	3.186965952027822E+002	3.4869337E-001	-2.7038742E+002
3	0	3.191965951901511E+002	3.4860805E-001	-2.7035913E+002
3	0	3.196965951775201E+002	3.4845665E-001	-2.7038742E+002
3	0	3.201965951648890E+002	3.4823158E-001	-2.7038385E+002
3	0	3.206965951522579E+002	3.4782270E-001	-2.7039093E+002
3	0	3.211965951396269E+002	3.4745467E-001	-2.7038742E+002
3	0	3.216965951269958E+002	3.4738982E-001	-2.7038385E+002
3	0	3.221965951143648E+002	3.4728956E-001	-2.7040506E+002
3	0	3.226965951017337E+002	3.4714386E-001	-2.7037326E+002
3	0	3.231965950891026E+002	3.4691048E-001	-2.7040155E+002
3	0	3.236965950764716E+002	3.4664455E-001	-2.7038031E+002
3	0	3.241965950638405E+002	3.4631410E-001	-2.7038742E+002
3	0	3.246965950512094E+002	3.4582022E-001	-2.7036972E+002
3	0	3.251965950385784E+002	3.4534362E-001	-2.7038385E+002
3	0	3.256965950259473E+002	3.4518567E-001	-2.7036972E+002
3	0	3.261965950133163E+002	3.4503672E-001	-2.7039447E+002
3	0	3.266965950006852E+002	3.4484807E-001	-2.7039447E+002
3	0	3.271965949880541E+002	3.4461138E-001	-2.7039093E+002
3	0	3.276965949754231E+002	3.4431049E-001	-2.7037677E+002
3	0	3.281965949627920E+002	3.4393716E-001	-2.7038742E+002
3	0	3.286965949501609E+002	3.4347498E-001	-2.7036267E+002
3	0	3.291965949375299E+002	3.4301153E-001	-2.7037677E+002
3	0	3.296965949248988E+002	3.4283537E-001	-2.7039447E+002
3	0	3.297199949243077E+002	3.4275997E-001	-2.7040506E+002