EC-Lab ASCII FILE
Nb header lines : 55                          

Open Circuit Voltage

Run on channel : 1 (SN 81504)
User : 
CE vs. WE compliance from -10 V to 10 V
Electrode connection : standard
Potential control : Ewe
Ewe ctrl range : min = -2.50 V, max = 2.50 V
Safety Limits :
	Do not start on E overload
Acquisition started on : 05/10/2026 04:38:51.126
Loaded Setting File :  C:\PEM-WE_measurements\2026\372_IV_IV IrOx, 5 min Pt, 30 min C, etched cathode\new station\Loopeis new\1,46 V different time gaps closed cell\Loopeis 1,46V_90s_4_PEIS from 650Hz to 100Hz.mps
Saved on :
	File : L_19_Loopeis 1,46V_90s_4_PEIS from 650Hz to 100Hz_12_OCV_C01.mpr
	Directory : C:\PEM-WE_measurements\2026\372_IV_IV IrOx, 5 min Pt, 30 min C, etched cathode\new station\Loopeis new\1,46 V different time gaps closed cell\
	Host : 192.168.0.2
Device : SP-150e (SN .005491)
Address : 192.168.0.91
EC-LAB for windows v11.71 (software)
Internet server v28.00 (firmware)
Command interpretor v14.01 (firmware)
Electrode material : 
Initial state : 
Electrolyte : 
Comments : 
Current amplifier : SP-150eB-20A
Electrode surface area : 0.001 cm²
Characteristic mass : 0.001 g
Equivalent Weight : 0.000 g/eq.
Density : 0.000 g/cm3
Volume (V) : 0.001 cm³
Record Analogic IN 1
Text export
   Mode : Standard
   Time format : Elapsed
Cycle Definition : Charge/Discharge alternance
External device configuration :
   device type : Temperature Probe
   device name : Other
   Analog IN 1 : 
      unit : T/Â°C
      max : 100.000 at 2.000 V
      min : 0.000 at 1.460 V
tR (h:m:s)          0:01:30.0000        
dER/dt (mV/h)       1.0                 
record              <Ewe>               
dER (mV)            10.00               
dtR (s)             0.5000              
E range min (V)     -2.500              
E range max (V)     2.500               

mode	error	time/s	<Ewe/V>	Analog IN 1/V	
3	0	7.223539917107701E+002	1.1377671E+000	-2.7038385E+002
3	0	7.228539916981390E+002	1.2611741E+000	-2.7038742E+002
3	0	7.233539916855079E+002	1.2628841E+000	-2.7036972E+002
3	0	7.238539916728769E+002	1.2626941E+000	-2.7036267E+002
3	0	7.243539916602458E+002	1.2611753E+000	-2.7039093E+002
3	0	7.248539916476147E+002	1.2581400E+000	-2.7036972E+002
3	0	7.253539916349837E+002	1.2528391E+000	-2.7035913E+002
3	0	7.258539916223526E+002	1.2435873E+000	-2.7036972E+002
3	0	7.263539916097216E+002	1.2282393E+000	-2.7038031E+002
3	0	7.268539915970905E+002	1.2037827E+000	-2.7038385E+002
3	0	7.273539915844594E+002	1.1637419E+000	-2.7038385E+002
3	0	7.278539915718284E+002	1.0913351E+000	-2.7035913E+002
3	0	7.283539915591973E+002	9.3441331E-001	-2.7039093E+002
3	0	7.288539915465662E+002	6.8009561E-001	-2.7038385E+002
3	0	7.293539915339352E+002	5.7831210E-001	-2.7042273E+002
3	0	7.298539915213041E+002	5.4291224E-001	-2.7038385E+002
3	0	7.303539915086731E+002	5.2903533E-001	-2.7039093E+002
3	0	7.308539914960420E+002	5.2618462E-001	-2.7037677E+002
3	0	7.313539914834109E+002	5.2781159E-001	-2.7037326E+002
3	0	7.318539914707799E+002	5.3102118E-001	-2.7037677E+002
3	0	7.323539914581488E+002	5.3514630E-001	-2.7039801E+002
3	0	7.328539914455178E+002	5.3987736E-001	-2.7035559E+002
3	0	7.333539914328867E+002	5.4477859E-001	-2.7036267E+002
3	0	7.338539914202556E+002	5.4924595E-001	-2.7037326E+002
3	0	7.343539914076246E+002	5.5385339E-001	-2.7037677E+002
3	0	7.348539913949935E+002	5.5989748E-001	-2.7040506E+002
3	0	7.353539913823624E+002	5.6626087E-001	-2.7036972E+002
3	0	7.358539913697314E+002	5.7229984E-001	-2.7036972E+002
3	0	7.363539913571003E+002	5.7791442E-001	-2.7039093E+002
3	0	7.368539913444693E+002	5.8332819E-001	-2.7035913E+002
3	0	7.373539913318382E+002	5.8808821E-001	-2.7038385E+002
3	0	7.378539913192071E+002	5.9182072E-001	-2.7039447E+002
3	0	7.383539913065761E+002	5.9490800E-001	-2.7038031E+002
3	0	7.388539912939450E+002	5.9905946E-001	-2.7036618E+002
3	0	7.393539912813139E+002	6.0313064E-001	-2.7036972E+002
3	0	7.398539912686829E+002	6.0642511E-001	-2.7036267E+002
3	0	7.403539912560518E+002	6.0898644E-001	-2.7034851E+002
3	0	7.408539912434208E+002	6.1127222E-001	-2.7038031E+002
3	0	7.413539912307897E+002	6.1287552E-001	-2.7038385E+002
3	0	7.418539912181586E+002	6.1367935E-001	-2.7036618E+002
3	0	7.423539912055276E+002	6.1404729E-001	-2.7037326E+002
3	0	7.428539911928965E+002	6.1564714E-001	-2.7036618E+002
3	0	7.433539911802654E+002	6.1761171E-001	-2.7040506E+002
3	0	7.438539911676344E+002	6.1902803E-001	-2.7037326E+002
3	0	7.443539911550033E+002	6.1993587E-001	-2.7038742E+002
3	0	7.448539911423723E+002	6.2046516E-001	-2.7037326E+002
3	0	7.453539911297412E+002	6.2038624E-001	-2.7039447E+002
3	0	7.458539911171101E+002	6.1962581E-001	-2.7038385E+002
3	0	7.463539911044791E+002	6.1866856E-001	-2.7038385E+002
3	0	7.468539910918480E+002	6.1914599E-001	-2.7036972E+002
3	0	7.473539910792169E+002	6.2001473E-001	-2.7036267E+002
3	0	7.478539910665859E+002	6.2050277E-001	-2.7036618E+002
3	0	7.483539910539548E+002	6.2049353E-001	-2.7039093E+002
3	0	7.488539910413238E+002	6.2031460E-001	-2.7038742E+002
3	0	7.493539910286927E+002	6.1980408E-001	-2.7036972E+002
3	0	7.498539910160616E+002	6.1865181E-001	-2.7039801E+002
3	0	7.503539910034306E+002	6.1763513E-001	-2.7039447E+002
3	0	7.508539909907995E+002	6.1851674E-001	-2.7038385E+002
3	0	7.513539909781684E+002	6.2041050E-001	-2.7039801E+002
3	0	7.518539909655374E+002	6.2240988E-001	-2.7038742E+002
3	0	7.523539909529063E+002	6.2446296E-001	-2.7037677E+002
3	0	7.528539909402753E+002	6.2679267E-001	-2.7035913E+002
3	0	7.533539909276442E+002	6.2892693E-001	-2.7038385E+002
3	0	7.538539909150131E+002	6.3055354E-001	-2.7036267E+002
3	0	7.543539909023821E+002	6.3192171E-001	-2.7039447E+002
3	0	7.548539908897510E+002	6.3465637E-001	-2.7038031E+002
3	0	7.553539908771199E+002	6.3793182E-001	-2.7038031E+002
3	0	7.558539908644889E+002	6.4070940E-001	-2.7037326E+002
3	0	7.563539908518578E+002	6.4289182E-001	-2.7039801E+002
3	0	7.568539908392268E+002	6.4468491E-001	-2.7036618E+002
3	0	7.573539908265957E+002	6.4590669E-001	-2.7040506E+002
3	0	7.578539908139646E+002	6.4605272E-001	-2.7038385E+002
3	0	7.583539908013336E+002	6.4591950E-001	-2.7035913E+002
3	0	7.588539907887025E+002	6.4713168E-001	-2.7036972E+002
3	0	7.593539907760714E+002	6.4868283E-001	-2.7040506E+002
3	0	7.598539907634404E+002	6.4960027E-001	-2.7038385E+002
3	0	7.603539907508093E+002	6.4981657E-001	-2.7035913E+002
3	0	7.608539907381783E+002	6.4955014E-001	-2.7036267E+002
3	0	7.613539907255472E+002	6.4851040E-001	-2.7038742E+002
3	0	7.618539907129161E+002	6.4648992E-001	-2.7035205E+002
3	0	7.623539907002851E+002	6.4410007E-001	-2.7037326E+002
3	0	7.628539906876540E+002	6.4307064E-001	-2.7040155E+002
3	0	7.633539906750229E+002	6.4263463E-001	-2.7035559E+002
3	0	7.638539906623919E+002	6.4176208E-001	-2.7039447E+002
3	0	7.643539906497608E+002	6.4029962E-001	-2.7037677E+002
3	0	7.648539906371298E+002	6.3844979E-001	-2.7038385E+002
3	0	7.653539906244987E+002	6.3602698E-001	-2.7038031E+002
3	0	7.658539906118676E+002	6.3277936E-001	-2.7034143E+002
3	0	7.663539905992366E+002	6.2929738E-001	-2.7034851E+002
3	0	7.668539905866055E+002	6.2719417E-001	-2.7038742E+002
3	0	7.673539905739744E+002	6.2584782E-001	-2.7036972E+002
3	0	7.678539905613434E+002	6.2418407E-001	-2.7038742E+002
3	0	7.683539905487123E+002	6.2200892E-001	-2.7036267E+002
3	0	7.688539905360813E+002	6.1958563E-001	-2.7035559E+002
3	0	7.693539905234502E+002	6.1678427E-001	-2.7040155E+002
3	0	7.698539905108191E+002	6.1350137E-001	-2.7039801E+002
3	0	7.703539904981881E+002	6.1041051E-001	-2.7038385E+002
3	0	7.708539904855570E+002	6.0922402E-001	-2.7038742E+002
3	0	7.713539904729259E+002	6.0935533E-001	-2.7039447E+002
3	0	7.718539904602949E+002	6.0995877E-001	-2.7038385E+002
3	0	7.723539904476638E+002	6.1090952E-001	-2.7037677E+002
3	0	7.728539904350328E+002	6.1249083E-001	-2.7037326E+002
3	0	7.733539904224017E+002	6.1422592E-001	-2.7038742E+002
3	0	7.738539904097706E+002	6.1555368E-001	-2.7036618E+002
3	0	7.743539903971396E+002	6.1679262E-001	-2.7037677E+002
3	0	7.748539903845085E+002	6.1943227E-001	-2.7038742E+002
3	0	7.753539903718774E+002	6.2277317E-001	-2.7039447E+002
3	0	7.758539903592464E+002	6.2578201E-001	-2.7038385E+002
3	0	7.763539903466153E+002	6.2815505E-001	-2.7037326E+002
3	0	7.768539903339843E+002	6.2996358E-001	-2.7038031E+002
3	0	7.773539903213532E+002	6.3084859E-001	-2.7038031E+002
3	0	7.778539903087221E+002	6.3066965E-001	-2.7036972E+002
3	0	7.783539902960911E+002	6.2993962E-001	-2.7040506E+002
3	0	7.788539902834600E+002	6.3023871E-001	-2.7037677E+002
3	0	7.793539902708289E+002	6.3093382E-001	-2.7038742E+002
3	0	7.798539902581979E+002	6.3109267E-001	-2.7037677E+002
3	0	7.803539902455668E+002	6.3051349E-001	-2.7036618E+002
3	0	7.808539902329358E+002	6.2946635E-001	-2.7038385E+002
3	0	7.813539902203047E+002	6.2751013E-001	-2.7039447E+002
3	0	7.818539902076736E+002	6.2442571E-001	-2.7036267E+002
3	0	7.823539901950426E+002	6.2111026E-001	-2.7040860E+002
3	0	7.828539901824115E+002	6.1929226E-001	-2.7037326E+002
3	0	7.833539901697804E+002	6.1799282E-001	-2.7037326E+002
3	0	7.838539901571494E+002	6.1633635E-001	-2.7039801E+002
3	0	7.843539901445183E+002	6.1413091E-001	-2.7036618E+002
3	0	7.848539901318873E+002	6.1159909E-001	-2.7039447E+002
3	0	7.853539901192562E+002	6.0845983E-001	-2.7038742E+002
3	0	7.858539901066251E+002	6.0444599E-001	-2.7039801E+002
3	0	7.863539900939941E+002	6.0013103E-001	-2.7036618E+002
3	0	7.868539900813630E+002	5.9740156E-001	-2.7037326E+002
3	0	7.873539900687319E+002	5.9524536E-001	-2.7038385E+002
3	0	7.878539900561009E+002	5.9268385E-001	-2.7038031E+002
3	0	7.883539900434698E+002	5.8965570E-001	-2.7038031E+002
3	0	7.888539900308388E+002	5.8642793E-001	-2.7037677E+002
3	0	7.893539900182077E+002	5.8284485E-001	-2.7037326E+002
3	0	7.898539900055766E+002	5.7871443E-001	-2.7039447E+002
3	0	7.903539899929456E+002	5.7475448E-001	-2.7039093E+002
3	0	7.908539899803145E+002	5.7279289E-001	-2.7036618E+002
3	0	7.913539899676834E+002	5.7207370E-001	-2.7038742E+002
3	0	7.918539899550524E+002	5.7159466E-001	-2.7036618E+002
3	0	7.923539899424213E+002	5.7148236E-001	-2.7037326E+002
3	0	7.928539899297903E+002	5.7183683E-001	-2.7039447E+002
3	0	7.933539899171592E+002	5.7236493E-001	-2.7036972E+002
3	0	7.938539899045281E+002	5.7254916E-001	-2.7038031E+002
3	0	7.943539898918971E+002	5.7294536E-001	-2.7037326E+002
3	0	7.948539898792660E+002	5.7509613E-001	-2.7037326E+002
3	0	7.953539898666349E+002	5.7784426E-001	-2.7038385E+002
3	0	7.958539898540039E+002	5.8022827E-001	-2.7036972E+002
3	0	7.963539898413728E+002	5.8210486E-001	-2.7038385E+002
3	0	7.968539898287418E+002	5.8363670E-001	-2.7037677E+002
3	0	7.973539898161107E+002	5.8455825E-001	-2.7036618E+002
3	0	7.978539898034796E+002	5.8446181E-001	-2.7035913E+002
3	0	7.983539897908486E+002	5.8384651E-001	-2.7036972E+002
3	0	7.988539897782175E+002	5.8439249E-001	-2.7038385E+002
3	0	7.993539897655864E+002	5.8523256E-001	-2.7039093E+002
3	0	7.998539897529554E+002	5.8537060E-001	-2.7037326E+002
3	0	8.003539897403243E+002	5.8479738E-001	-2.7038742E+002
3	0	8.008539897276933E+002	5.8374375E-001	-2.7039093E+002
3	0	8.013539897150622E+002	5.8186132E-001	-2.7035205E+002
3	0	8.018539897024311E+002	5.7891542E-001	-2.7038385E+002
3	0	8.023539896898001E+002	5.7556993E-001	-2.7038031E+002
3	0	8.028539896771690E+002	5.7347763E-001	-2.7039093E+002
3	0	8.033539896645379E+002	5.7179630E-001	-2.7039447E+002
3	0	8.038539896519069E+002	5.6956881E-001	-2.7039093E+002
3	0	8.043539896392758E+002	5.6666058E-001	-2.7038031E+002
3	0	8.048539896266448E+002	5.6333518E-001	-2.7035559E+002
3	0	8.053539896140137E+002	5.5937654E-001	-2.7038385E+002
3	0	8.058539896013826E+002	5.5478370E-001	-2.7037677E+002
3	0	8.063539895887516E+002	5.5006546E-001	-2.7039093E+002
3	0	8.068539895761205E+002	5.4679298E-001	-2.7035205E+002
3	0	8.073539895634894E+002	5.4394203E-001	-2.7039093E+002
3	0	8.078539895508584E+002	5.4071116E-001	-2.7036972E+002
3	0	8.083539895382273E+002	5.3707701E-001	-2.7039801E+002
3	0	8.088539895255963E+002	5.3346509E-001	-2.7038031E+002
3	0	8.093539895129652E+002	5.2951986E-001	-2.7039093E+002
3	0	8.098539895003341E+002	5.2515906E-001	-2.7037677E+002
3	0	8.103539894877031E+002	5.2097869E-001	-2.7037326E+002
3	0	8.108539894750720E+002	5.1847887E-001	-2.7036972E+002
3	0	8.113539894624410E+002	5.1687437E-001	-2.7039447E+002
3	0	8.118539894498099E+002	5.1537681E-001	-2.7037677E+002
3	0	8.118795894491632E+002	5.1458055E-001	-2.7038742E+002