EC-Lab ASCII FILE
Nb header lines : 55                          

Open Circuit Voltage

Run on channel : 1 (SN 81504)
User : 
CE vs. WE compliance from -10 V to 10 V
Electrode connection : standard
Potential control : Ewe
Ewe ctrl range : min = -2.50 V, max = 2.50 V
Safety Limits :
	Do not start on E overload
Acquisition started on : 05/10/2026 04:38:51.126
Loaded Setting File :  C:\PEM-WE_measurements\2026\372_IV_IV IrOx, 5 min Pt, 30 min C, etched cathode\new station\Loopeis new\1,46 V different time gaps closed cell\Loopeis 1,46V_90s_4_PEIS from 650Hz to 100Hz.mps
Saved on :
	File : L_19_Loopeis 1,46V_90s_4_PEIS from 650Hz to 100Hz_04_OCV_C01.mpr
	Directory : C:\PEM-WE_measurements\2026\372_IV_IV IrOx, 5 min Pt, 30 min C, etched cathode\new station\Loopeis new\1,46 V different time gaps closed cell\
	Host : 192.168.0.2
Device : SP-150e (SN .005491)
Address : 192.168.0.91
EC-LAB for windows v11.71 (software)
Internet server v28.00 (firmware)
Command interpretor v14.01 (firmware)
Electrode material : 
Initial state : 
Electrolyte : 
Comments : 
Current amplifier : SP-150eB-20A
Electrode surface area : 0.001 cm²
Characteristic mass : 0.001 g
Equivalent Weight : 0.000 g/eq.
Density : 0.000 g/cm3
Volume (V) : 0.001 cm³
Record Analogic IN 1
Text export
   Mode : Standard
   Time format : Elapsed
Cycle Definition : Charge/Discharge alternance
External device configuration :
   device type : Temperature Probe
   device name : Other
   Analog IN 1 : 
      unit : T/Â°C
      max : 100.000 at 2.000 V
      min : 0.000 at 1.460 V
tR (h:m:s)          0:01:30.0000        
dER/dt (mV/h)       1.0                 
record              <Ewe>               
dER (mV)            10.00               
dtR (s)             0.5000              
E range min (V)     -2.500              
E range max (V)     2.500               

mode	error	time/s	<Ewe/V>	Analog IN 1/V	
3	0	1.801885987012065E+002	1.1395131E+000	-2.7039447E+002
3	0	1.806885986885754E+002	1.2611334E+000	-2.7039093E+002
3	0	1.811885986759444E+002	1.2628881E+000	-2.7037677E+002
3	0	1.816885986633133E+002	1.2627809E+000	-2.7036618E+002
3	0	1.821885986506823E+002	1.2614046E+000	-2.7037326E+002
3	0	1.826885986380512E+002	1.2587599E+000	-2.7038742E+002
3	0	1.831885986254201E+002	1.2544857E+000	-2.7034851E+002
3	0	1.836885986127891E+002	1.2472993E+000	-2.7039447E+002
3	0	1.841885986001580E+002	1.2350063E+000	-2.7037677E+002
3	0	1.846885985875269E+002	1.2147449E+000	-2.7040155E+002
3	0	1.851885985748959E+002	1.1816895E+000	-2.7040155E+002
3	0	1.856885985622648E+002	1.1244026E+000	-2.7038742E+002
3	0	1.861885985496338E+002	1.0103093E+000	-2.7037326E+002
3	0	1.866885985370027E+002	7.7230150E-001	-2.7039093E+002
3	0	1.871885985243716E+002	6.0780174E-001	-2.7039093E+002
3	0	1.876885985117406E+002	5.6154853E-001	-2.7035559E+002
3	0	1.881885984991095E+002	5.4407507E-001	-2.7039093E+002
3	0	1.886885984864784E+002	5.3888428E-001	-2.7036267E+002
3	0	1.891885984738474E+002	5.3911841E-001	-2.7039447E+002
3	0	1.896885984612163E+002	5.4174185E-001	-2.7036972E+002
3	0	1.901885984485853E+002	5.4528934E-001	-2.7039447E+002
3	0	1.906885984359542E+002	5.4933953E-001	-2.7036267E+002
3	0	1.911885984233231E+002	5.5486983E-001	-2.7038385E+002
3	0	1.916885984106921E+002	5.6128627E-001	-2.7035913E+002
3	0	1.921885983980610E+002	5.6752378E-001	-2.7041919E+002
3	0	1.926885983854299E+002	5.7347542E-001	-2.7038385E+002
3	0	1.931885983727989E+002	5.7903063E-001	-2.7036267E+002
3	0	1.936885983601678E+002	5.8417273E-001	-2.7036618E+002
3	0	1.941885983475368E+002	5.8855647E-001	-2.7039447E+002
3	0	1.946885983349057E+002	5.9224778E-001	-2.7036972E+002
3	0	1.951885983222746E+002	5.9675878E-001	-2.7038031E+002
3	0	1.956885983096436E+002	6.0148972E-001	-2.7039093E+002
3	0	1.961885982970125E+002	6.0552424E-001	-2.7039447E+002
3	0	1.966885982843814E+002	6.0896456E-001	-2.7037677E+002
3	0	1.971885982717504E+002	6.1180902E-001	-2.7035913E+002
3	0	1.976885982591193E+002	6.1418307E-001	-2.7037326E+002
3	0	1.981885982464883E+002	6.1549574E-001	-2.7037677E+002
3	0	1.986885982338572E+002	6.1619920E-001	-2.7040155E+002
3	0	1.991885982212261E+002	6.1792630E-001	-2.7036267E+002
3	0	1.996885982085951E+002	6.2011403E-001	-2.7035913E+002
3	0	2.001885981959640E+002	6.2190717E-001	-2.7038385E+002
3	0	2.006885981833329E+002	6.2321121E-001	-2.7040860E+002
3	0	2.011885981707019E+002	6.2431014E-001	-2.7037326E+002
3	0	2.016885981580708E+002	6.2482327E-001	-2.7039447E+002
3	0	2.021885981454398E+002	6.2456405E-001	-2.7038031E+002
3	0	2.026885981328087E+002	6.2387586E-001	-2.7039801E+002
3	0	2.031885981201776E+002	6.2426668E-001	-2.7037677E+002
3	0	2.036885981075466E+002	6.2533844E-001	-2.7037677E+002
3	0	2.041885980949155E+002	6.2625462E-001	-2.7037677E+002
3	0	2.046885980822844E+002	6.2678075E-001	-2.7039447E+002
3	0	2.051885980696534E+002	6.2697476E-001	-2.7038742E+002
3	0	2.056885980570223E+002	6.2677950E-001	-2.7038385E+002
3	0	2.061885980443913E+002	6.2580645E-001	-2.7038742E+002
3	0	2.066885980317602E+002	6.2449408E-001	-2.7036618E+002
3	0	2.071885980191291E+002	6.2461704E-001	-2.7038742E+002
3	0	2.076885980064981E+002	6.2585592E-001	-2.7040155E+002
3	0	2.081885979938670E+002	6.2743819E-001	-2.7038385E+002
3	0	2.086885979812359E+002	6.2935960E-001	-2.7039093E+002
3	0	2.091885979686049E+002	6.3158500E-001	-2.7036972E+002
3	0	2.096885979559738E+002	6.3389128E-001	-2.7041568E+002
3	0	2.101885979433428E+002	6.3582933E-001	-2.7035559E+002
3	0	2.106885979307117E+002	6.3776404E-001	-2.7038742E+002
3	0	2.111885979180806E+002	6.4101315E-001	-2.7038031E+002
3	0	2.116885979054496E+002	6.4514893E-001	-2.7038742E+002
3	0	2.121885978928185E+002	6.4917898E-001	-2.7035205E+002
3	0	2.126885978801874E+002	6.5286320E-001	-2.7037326E+002
3	0	2.131885978675564E+002	6.5627187E-001	-2.7037677E+002
3	0	2.136885978549253E+002	6.5917665E-001	-2.7038385E+002
3	0	2.141885978422943E+002	6.6118485E-001	-2.7036618E+002
3	0	2.146885978296632E+002	6.6248715E-001	-2.7039447E+002
3	0	2.151885978170321E+002	6.6464233E-001	-2.7038742E+002
3	0	2.156885978044011E+002	6.6756678E-001	-2.7039447E+002
3	0	2.161885977917700E+002	6.7000294E-001	-2.7039093E+002
3	0	2.166885977791389E+002	6.7171335E-001	-2.7038385E+002
3	0	2.171885977665079E+002	6.7269212E-001	-2.7039447E+002
3	0	2.176885977538768E+002	6.7274207E-001	-2.7038742E+002
3	0	2.181885977412458E+002	6.7143410E-001	-2.7037326E+002
3	0	2.186885977286147E+002	6.6916531E-001	-2.7036618E+002
3	0	2.191885977159836E+002	6.6775078E-001	-2.7037677E+002
3	0	2.196885977033526E+002	6.6704261E-001	-2.7038385E+002
3	0	2.201885976907215E+002	6.6595811E-001	-2.7036618E+002
3	0	2.206885976780904E+002	6.6426957E-001	-2.7038742E+002
3	0	2.211885976654594E+002	6.6210490E-001	-2.7037326E+002
3	0	2.216885976528283E+002	6.5917581E-001	-2.7036972E+002
3	0	2.221885976401973E+002	6.5539116E-001	-2.7040155E+002
3	0	2.226885976275662E+002	6.5113515E-001	-2.7038385E+002
3	0	2.231885976149351E+002	6.4808685E-001	-2.7036972E+002
3	0	2.236885976023041E+002	6.4616632E-001	-2.7039801E+002
3	0	2.241885975896730E+002	6.4418668E-001	-2.7037326E+002
3	0	2.246885975770419E+002	6.4188695E-001	-2.7036267E+002
3	0	2.251885975644109E+002	6.3921505E-001	-2.7037677E+002
3	0	2.256885975517798E+002	6.3620055E-001	-2.7037677E+002
3	0	2.261885975391488E+002	6.3257438E-001	-2.7036267E+002
3	0	2.266885975265177E+002	6.2880296E-001	-2.7038031E+002
3	0	2.271885975138866E+002	6.2648118E-001	-2.7039093E+002
3	0	2.276885975012556E+002	6.2574679E-001	-2.7039093E+002
3	0	2.281885974886245E+002	6.2571859E-001	-2.7040155E+002
3	0	2.286885974759934E+002	6.2611169E-001	-2.7038031E+002
3	0	2.291885974633624E+002	6.2687701E-001	-2.7040506E+002
3	0	2.296885974507313E+002	6.2792200E-001	-2.7035559E+002
3	0	2.301885974381003E+002	6.2872750E-001	-2.7036267E+002
3	0	2.306885974254692E+002	6.2932193E-001	-2.7039447E+002
3	0	2.311885974128381E+002	6.3127059E-001	-2.7035913E+002
3	0	2.316885974002071E+002	6.3440692E-001	-2.7037677E+002
3	0	2.321885973875760E+002	6.3762337E-001	-2.7038031E+002
3	0	2.326885973749449E+002	6.4048737E-001	-2.7039093E+002
3	0	2.331885973623139E+002	6.4287776E-001	-2.7038742E+002
3	0	2.336885973496828E+002	6.4452547E-001	-2.7038742E+002
3	0	2.341885973370518E+002	6.4504492E-001	-2.7039447E+002
3	0	2.346885973244207E+002	6.4445615E-001	-2.7037326E+002
3	0	2.351885973117896E+002	6.4455271E-001	-2.7037326E+002
3	0	2.356885972991586E+002	6.4537597E-001	-2.7036267E+002
3	0	2.361885972865275E+002	6.4583582E-001	-2.7038742E+002
3	0	2.366885972738964E+002	6.4556605E-001	-2.7038385E+002
3	0	2.371885972612654E+002	6.4460433E-001	-2.7037677E+002
3	0	2.376885972486343E+002	6.4289129E-001	-2.7036618E+002
3	0	2.381885972360033E+002	6.3999450E-001	-2.7038385E+002
3	0	2.386885972233722E+002	6.3641208E-001	-2.7035559E+002
3	0	2.391885972107411E+002	6.3359720E-001	-2.7038031E+002
3	0	2.396885971981101E+002	6.3167918E-001	-2.7036618E+002
3	0	2.401885971854790E+002	6.2958413E-001	-2.7037677E+002
3	0	2.406885971728479E+002	6.2698835E-001	-2.7038031E+002
3	0	2.411885971602169E+002	6.2392420E-001	-2.7038031E+002
3	0	2.416885971475858E+002	6.2031728E-001	-2.7038385E+002
3	0	2.421885971349548E+002	6.1578357E-001	-2.7037326E+002
3	0	2.426885971223237E+002	6.1071789E-001	-2.7037677E+002
3	0	2.431885971096926E+002	6.0675067E-001	-2.7039447E+002
3	0	2.436885970970616E+002	6.0384238E-001	-2.7039447E+002
3	0	2.441885970844305E+002	6.0101056E-001	-2.7036972E+002
3	0	2.446885970717995E+002	5.9793067E-001	-2.7040155E+002
3	0	2.451885970591684E+002	5.9465539E-001	-2.7038742E+002
3	0	2.456885970465373E+002	5.9095722E-001	-2.7034851E+002
3	0	2.461885970339063E+002	5.8656758E-001	-2.7036972E+002
3	0	2.466885970212752E+002	5.8183283E-001	-2.7036618E+002
3	0	2.471885970086441E+002	5.7842398E-001	-2.7038031E+002
3	0	2.476885969960131E+002	5.7647341E-001	-2.7039093E+002
3	0	2.481885969833820E+002	5.7520789E-001	-2.7038742E+002
3	0	2.486885969707510E+002	5.7440817E-001	-2.7040860E+002
3	0	2.491885969581199E+002	5.7425398E-001	-2.7035205E+002
3	0	2.496885969454888E+002	5.7458043E-001	-2.7037677E+002
3	0	2.501885969328578E+002	5.7483453E-001	-2.7037326E+002
3	0	2.506885969202267E+002	5.7534534E-001	-2.7037326E+002
3	0	2.511885969075956E+002	5.7719260E-001	-2.7038742E+002
3	0	2.516885968949646E+002	5.8014041E-001	-2.7039447E+002
3	0	2.521885968823335E+002	5.8323365E-001	-2.7035913E+002
3	0	2.526885968697025E+002	5.8605427E-001	-2.7039093E+002
3	0	2.531885968570714E+002	5.8853579E-001	-2.7036267E+002
3	0	2.536885968444403E+002	5.9041846E-001	-2.7039093E+002
3	0	2.541885968318093E+002	5.9124434E-001	-2.7036267E+002
3	0	2.546885968191782E+002	5.9141582E-001	-2.7037326E+002
3	0	2.551885968065471E+002	5.9242409E-001	-2.7036618E+002
3	0	2.556885967939161E+002	5.9389001E-001	-2.7040860E+002
3	0	2.561885967812850E+002	5.9503204E-001	-2.7039447E+002
3	0	2.566885967686540E+002	5.9548366E-001	-2.7035913E+002
3	0	2.571885967560229E+002	5.9529710E-001	-2.7037326E+002
3	0	2.576885967433918E+002	5.9446472E-001	-2.7036618E+002
3	0	2.581885967307608E+002	5.9234267E-001	-2.7038031E+002
3	0	2.586885967181297E+002	5.8956146E-001	-2.7035913E+002
3	0	2.591885967054986E+002	5.8762425E-001	-2.7039801E+002
3	0	2.596885966928676E+002	5.8631277E-001	-2.7039093E+002
3	0	2.601885966802365E+002	5.8469969E-001	-2.7038385E+002
3	0	2.606885966676055E+002	5.8251542E-001	-2.7037326E+002
3	0	2.611885966549744E+002	5.7984918E-001	-2.7038385E+002
3	0	2.616885966423433E+002	5.7660186E-001	-2.7037326E+002
3	0	2.621885966297123E+002	5.7247019E-001	-2.7039093E+002
3	0	2.626885966170812E+002	5.6781292E-001	-2.7037677E+002
3	0	2.631885966044501E+002	5.6420368E-001	-2.7037677E+002
3	0	2.636885965918191E+002	5.6139010E-001	-2.7036972E+002
3	0	2.641885965791880E+002	5.5851167E-001	-2.7037677E+002
3	0	2.646885965665570E+002	5.5523783E-001	-2.7038742E+002
3	0	2.651885965539259E+002	5.5156374E-001	-2.7036618E+002
3	0	2.656885965412948E+002	5.4749173E-001	-2.7038031E+002
3	0	2.661885965286638E+002	5.4266536E-001	-2.7038385E+002
3	0	2.666885965160327E+002	5.3773952E-001	-2.7039093E+002
3	0	2.671885965034016E+002	5.3426546E-001	-2.7037677E+002
3	0	2.676885964907706E+002	5.3186429E-001	-2.7038742E+002
3	0	2.681885964781395E+002	5.2991754E-001	-2.7038031E+002
3	0	2.686885964655085E+002	5.2838469E-001	-2.7035913E+002
3	0	2.691885964528774E+002	5.2724236E-001	-2.7037677E+002
3	0	2.696885964402463E+002	5.2660847E-001	-2.7036972E+002
3	0	2.697119964396552E+002	5.2629781E-001	-2.7038742E+002