EC-Lab ASCII FILE
Nb header lines : 55                          

Open Circuit Voltage

Run on channel : 1 (SN 81504)
User : 
CE vs. WE compliance from -10 V to 10 V
Electrode connection : standard
Potential control : Ewe
Ewe ctrl range : min = -2.50 V, max = 2.50 V
Safety Limits :
	Do not start on E overload
Acquisition started on : 05/10/2026 04:38:51.126
Loaded Setting File :  C:\PEM-WE_measurements\2026\372_IV_IV IrOx, 5 min Pt, 30 min C, etched cathode\new station\Loopeis new\1,46 V different time gaps closed cell\Loopeis 1,46V_90s_4_PEIS from 650Hz to 100Hz.mps
Saved on :
	File : L_19_Loopeis 1,46V_90s_4_PEIS from 650Hz to 100Hz_02_OCV_C01.mpr
	Directory : C:\PEM-WE_measurements\2026\372_IV_IV IrOx, 5 min Pt, 30 min C, etched cathode\new station\Loopeis new\1,46 V different time gaps closed cell\
	Host : 192.168.0.2
Device : SP-150e (SN .005491)
Address : 192.168.0.91
EC-LAB for windows v11.71 (software)
Internet server v28.00 (firmware)
Command interpretor v14.01 (firmware)
Electrode material : 
Initial state : 
Electrolyte : 
Comments : 
Current amplifier : SP-150eB-20A
Electrode surface area : 0.001 cm²
Characteristic mass : 0.001 g
Equivalent Weight : 0.000 g/eq.
Density : 0.000 g/cm3
Volume (V) : 0.001 cm³
Record Analogic IN 1
Text export
   Mode : Standard
   Time format : Elapsed
Cycle Definition : Charge/Discharge alternance
External device configuration :
   device type : Temperature Probe
   device name : Other
   Analog IN 1 : 
      unit : T/Â°C
      max : 100.000 at 2.000 V
      min : 0.000 at 1.460 V
tR (h:m:s)          0:01:30.0000        
dER/dt (mV/h)       1.0                 
record              <Ewe>               
dER (mV)            10.00               
dtR (s)             0.5000              
E range min (V)     -2.500              
E range max (V)     2.500               

mode	error	time/s	<Ewe/V>	Analog IN 1/V	
3	0	4.549979885057837E+001	1.2856423E+000	-2.7038742E+002
3	0	4.599979883794731E+001	1.2923884E+000	-2.7038031E+002
3	0	4.649979882531625E+001	1.2931608E+000	-2.7039447E+002
3	0	4.699979881268519E+001	1.2924796E+000	-2.7037326E+002
3	0	4.749979880005412E+001	1.2909633E+000	-2.7039801E+002
3	0	4.799979878742306E+001	1.2886167E+000	-2.7037326E+002
3	0	4.849979877479200E+001	1.2850779E+000	-2.7034851E+002
3	0	4.899979876216094E+001	1.2796282E+000	-2.7038385E+002
3	0	4.949979874952987E+001	1.2710841E+000	-2.7040860E+002
3	0	4.999979873689881E+001	1.2577599E+000	-2.7036618E+002
3	0	5.049979872426775E+001	1.2375064E+000	-2.7036972E+002
3	0	5.099979871163669E+001	1.2068003E+000	-2.7039801E+002
3	0	5.149979869900562E+001	1.1576525E+000	-2.7038385E+002
3	0	5.199979868637456E+001	1.0682318E+000	-2.7039801E+002
3	0	5.249979867374350E+001	8.9031529E-001	-2.7038031E+002
3	0	5.299979866111244E+001	6.8034631E-001	-2.7040155E+002
3	0	5.349979864848137E+001	6.0823971E-001	-2.7035205E+002
3	0	5.399979863585031E+001	5.8662927E-001	-2.7036618E+002
3	0	5.449979862321925E+001	5.7828897E-001	-2.7036618E+002
3	0	5.499979861058819E+001	5.7526368E-001	-2.7038742E+002
3	0	5.549979859795712E+001	5.7623994E-001	-2.7036267E+002
3	0	5.599979858532606E+001	5.7944083E-001	-2.7037326E+002
3	0	5.649979857269500E+001	5.8283949E-001	-2.7037677E+002
3	0	5.699979856006394E+001	5.8600283E-001	-2.7037326E+002
3	0	5.749979854743287E+001	5.8915335E-001	-2.7040155E+002
3	0	5.799979853480181E+001	5.9208202E-001	-2.7038385E+002
3	0	5.849979852217075E+001	5.9415036E-001	-2.7038742E+002
3	0	5.899979850953969E+001	5.9579843E-001	-2.7038742E+002
3	0	5.949979849690862E+001	5.9849900E-001	-2.7041214E+002
3	0	5.999979848427756E+001	6.0195208E-001	-2.7037677E+002
3	0	6.049979847164650E+001	6.0487276E-001	-2.7038385E+002
3	0	6.099979845901544E+001	6.0700607E-001	-2.7037326E+002
3	0	6.149979844638438E+001	6.0866469E-001	-2.7037326E+002
3	0	6.199979843375331E+001	6.0981053E-001	-2.7039093E+002
3	0	6.249979842112225E+001	6.1015284E-001	-2.7035559E+002
3	0	6.299979840849119E+001	6.1003262E-001	-2.7038385E+002
3	0	6.349979839586013E+001	6.1095268E-001	-2.7037326E+002
3	0	6.399979838322906E+001	6.1264408E-001	-2.7039801E+002
3	0	6.449979837059800E+001	6.1393189E-001	-2.7036267E+002
3	0	6.499979835796694E+001	6.1469245E-001	-2.7038385E+002
3	0	6.549979834533588E+001	6.1534667E-001	-2.7036618E+002
3	0	6.599979833270481E+001	6.1585760E-001	-2.7036618E+002
3	0	6.649979832007375E+001	6.1601764E-001	-2.7038385E+002
3	0	6.699979830744269E+001	6.1599422E-001	-2.7037677E+002
3	0	6.749979829481163E+001	6.1745203E-001	-2.7036972E+002
3	0	6.799979828218056E+001	6.2021911E-001	-2.7037326E+002
3	0	6.849979826954950E+001	6.2307447E-001	-2.7037326E+002
3	0	6.899979825691844E+001	6.2586915E-001	-2.7039093E+002
3	0	6.949979824428738E+001	6.2898636E-001	-2.7038385E+002
3	0	6.999979823165631E+001	6.3200343E-001	-2.7036972E+002
3	0	7.049979821902525E+001	6.3447344E-001	-2.7039093E+002
3	0	7.099979820639419E+001	6.3652700E-001	-2.7038031E+002
3	0	7.149979819376313E+001	6.3962322E-001	-2.7038385E+002
3	0	7.199979818113206E+001	6.4362454E-001	-2.7038742E+002
3	0	7.249979816850100E+001	6.4737868E-001	-2.7035205E+002
3	0	7.299979815586994E+001	6.5048403E-001	-2.7038385E+002
3	0	7.349979814323888E+001	6.5341133E-001	-2.7038031E+002
3	0	7.399979813060781E+001	6.5571630E-001	-2.7039801E+002
3	0	7.449979811797675E+001	6.5702391E-001	-2.7037677E+002
3	0	7.499979810534569E+001	6.5761954E-001	-2.7038031E+002
3	0	7.549979809271463E+001	6.5920103E-001	-2.7035205E+002
3	0	7.599979808008356E+001	6.6154295E-001	-2.7037326E+002
3	0	7.649979806745250E+001	6.6338372E-001	-2.7038031E+002
3	0	7.699979805482144E+001	6.6446304E-001	-2.7038385E+002
3	0	7.749979804219038E+001	6.6517252E-001	-2.7038742E+002
3	0	7.799979802955932E+001	6.6513801E-001	-2.7036972E+002
3	0	7.849979801692825E+001	6.6390425E-001	-2.7039801E+002
3	0	7.899979800429719E+001	6.6189975E-001	-2.7038385E+002
3	0	7.949979799166613E+001	6.6080558E-001	-2.7036972E+002
3	0	7.999979797903507E+001	6.6070300E-001	-2.7036267E+002
3	0	8.049979796640400E+001	6.6026378E-001	-2.7036972E+002
3	0	8.099979795377294E+001	6.5924656E-001	-2.7037326E+002
3	0	8.149979794114188E+001	6.5770000E-001	-2.7039093E+002
3	0	8.199979792851082E+001	6.5573978E-001	-2.7035913E+002
3	0	8.249979791587975E+001	6.5295249E-001	-2.7039447E+002
3	0	8.299979790324869E+001	6.4961529E-001	-2.7040860E+002
3	0	8.349979789061763E+001	6.4723116E-001	-2.7039447E+002
3	0	8.399979787798657E+001	6.4613885E-001	-2.7039093E+002
3	0	8.449979786535550E+001	6.4495772E-001	-2.7036267E+002
3	0	8.499979785272444E+001	6.4332569E-001	-2.7036618E+002
3	0	8.549979784009338E+001	6.4140284E-001	-2.7036618E+002
3	0	8.599979782746232E+001	6.3915700E-001	-2.7038031E+002
3	0	8.649979781483125E+001	6.3638365E-001	-2.7035913E+002
3	0	8.699979780220019E+001	6.3362741E-001	-2.7037326E+002
3	0	8.749979778956913E+001	6.3260162E-001	-2.7038742E+002
3	0	8.799979777693807E+001	6.3335258E-001	-2.7037326E+002
3	0	8.849979776430700E+001	6.3479656E-001	-2.7037326E+002
3	0	8.899979775167594E+001	6.3671118E-001	-2.7036267E+002
3	0	8.949979773904488E+001	6.3912964E-001	-2.7036267E+002
3	0	8.999979772641382E+001	6.4181429E-001	-2.7038385E+002
3	0	9.049979771378275E+001	6.4428771E-001	-2.7037677E+002
3	0	9.099979770115169E+001	6.4636219E-001	-2.7038031E+002
3	0	9.149979768852063E+001	6.4959699E-001	-2.7038031E+002
3	0	9.199979767588957E+001	6.5393782E-001	-2.7038031E+002
3	0	9.249979766325851E+001	6.5800935E-001	-2.7035913E+002
3	0	9.299979765062744E+001	6.6139627E-001	-2.7040506E+002
3	0	9.349979763799638E+001	6.6405803E-001	-2.7038742E+002
3	0	9.399979762536532E+001	6.6590166E-001	-2.7036972E+002
3	0	9.449979761273426E+001	6.6647577E-001	-2.7036972E+002
3	0	9.499979760010319E+001	6.6610312E-001	-2.7038385E+002
3	0	9.549979758747213E+001	6.6630054E-001	-2.7039093E+002
3	0	9.599979757484107E+001	6.6729409E-001	-2.7039447E+002
3	0	9.649979756221001E+001	6.6788501E-001	-2.7038385E+002
3	0	9.699979754957894E+001	6.6750783E-001	-2.7036972E+002
3	0	9.749979753694788E+001	6.6632891E-001	-2.7037677E+002
3	0	9.799979752431682E+001	6.6414994E-001	-2.7038385E+002
3	0	9.849979751168576E+001	6.6068971E-001	-2.7034143E+002
3	0	9.899979749905469E+001	6.5642923E-001	-2.7037326E+002
3	0	9.949979748642363E+001	6.5306067E-001	-2.7038385E+002
3	0	9.999979747379257E+001	6.5077150E-001	-2.7039093E+002
3	0	1.004997974611615E+002	6.4827323E-001	-2.7037677E+002
3	0	1.009997974485304E+002	6.4524990E-001	-2.7039093E+002
3	0	1.014997974358994E+002	6.4173919E-001	-2.7036972E+002
3	0	1.019997974232683E+002	6.3774395E-001	-2.7038742E+002
3	0	1.024997974106373E+002	6.3288558E-001	-2.7037677E+002
3	0	1.029997973980062E+002	6.2756604E-001	-2.7037677E+002
3	0	1.034997973853751E+002	6.2337130E-001	-2.7039447E+002
3	0	1.039997973727441E+002	6.2036973E-001	-2.7037677E+002
3	0	1.044997973601130E+002	6.1734867E-001	-2.7036618E+002
3	0	1.049997973474819E+002	6.1397505E-001	-2.7036618E+002
3	0	1.054997973348509E+002	6.1037928E-001	-2.7038742E+002
3	0	1.059997973222198E+002	6.0657382E-001	-2.7035913E+002
3	0	1.064997973095888E+002	6.0244250E-001	-2.7036618E+002
3	0	1.069997972969577E+002	5.9842992E-001	-2.7039093E+002
3	0	1.074997972843266E+002	5.9596694E-001	-2.7037326E+002
3	0	1.079997972716956E+002	5.9539431E-001	-2.7035559E+002
3	0	1.084997972590645E+002	5.9570402E-001	-2.7038385E+002
3	0	1.089997972464334E+002	5.9661031E-001	-2.7036267E+002
3	0	1.094997972338024E+002	5.9815109E-001	-2.7038742E+002
3	0	1.099997972211713E+002	5.9972447E-001	-2.7034497E+002
3	0	1.104997972085403E+002	6.0101056E-001	-2.7037677E+002
3	0	1.109997971959092E+002	6.0204065E-001	-2.7036972E+002
3	0	1.114997971832781E+002	6.0411286E-001	-2.7036972E+002
3	0	1.119997971706471E+002	6.0720408E-001	-2.7038742E+002
3	0	1.124997971580160E+002	6.1013108E-001	-2.7036618E+002
3	0	1.129997971453849E+002	6.1264735E-001	-2.7038742E+002
3	0	1.134997971327539E+002	6.1465144E-001	-2.7035913E+002
3	0	1.139997971201228E+002	6.1597157E-001	-2.7037326E+002
3	0	1.144997971074918E+002	6.1609858E-001	-2.7035913E+002
3	0	1.149997970948607E+002	6.1527520E-001	-2.7039447E+002
3	0	1.154997970822296E+002	6.1511207E-001	-2.7038031E+002
3	0	1.159997970695986E+002	6.1571997E-001	-2.7037326E+002
3	0	1.164997970569675E+002	6.1589372E-001	-2.7038742E+002
3	0	1.169997970443364E+002	6.1528325E-001	-2.7035205E+002
3	0	1.174997970317054E+002	6.1393130E-001	-2.7037677E+002
3	0	1.179997970190743E+002	6.1185580E-001	-2.7037677E+002
3	0	1.184997970064433E+002	6.0877746E-001	-2.7038031E+002
3	0	1.189997969938122E+002	6.0495222E-001	-2.7038031E+002
3	0	1.194997969811811E+002	6.0184085E-001	-2.7035913E+002
3	0	1.199997969685501E+002	5.9966213E-001	-2.7036972E+002
3	0	1.204997969559190E+002	5.9719801E-001	-2.7038742E+002
3	0	1.209997969432879E+002	5.9430188E-001	-2.7039447E+002
3	0	1.214997969306569E+002	5.9099656E-001	-2.7038385E+002
3	0	1.219997969180258E+002	5.8718574E-001	-2.7037677E+002
3	0	1.224997969053948E+002	5.8255494E-001	-2.7038031E+002
3	0	1.229997968927637E+002	5.7734412E-001	-2.7036267E+002
3	0	1.234997968801326E+002	5.7311088E-001	-2.7040155E+002
3	0	1.239997968675016E+002	5.7000428E-001	-2.7037677E+002
3	0	1.244997968548705E+002	5.6681371E-001	-2.7036618E+002
3	0	1.249997968422394E+002	5.6326377E-001	-2.7034143E+002
3	0	1.254997968296084E+002	5.5962229E-001	-2.7037677E+002
3	0	1.259997968169773E+002	5.5570257E-001	-2.7036972E+002
3	0	1.264997968043463E+002	5.5146146E-001	-2.7040155E+002
3	0	1.269997967917152E+002	5.4702717E-001	-2.7036267E+002
3	0	1.274997967790841E+002	5.4397422E-001	-2.7039447E+002
3	0	1.279997967664531E+002	5.4217273E-001	-2.7035913E+002
3	0	1.284997967538220E+002	5.4043633E-001	-2.7036267E+002
3	0	1.289997967411909E+002	5.3851038E-001	-2.7038031E+002
3	0	1.294997967285599E+002	5.3652942E-001	-2.7038742E+002
3	0	1.299997967159288E+002	5.3441322E-001	-2.7038385E+002
3	0	1.304997967032978E+002	5.3178400E-001	-2.7038385E+002
3	0	1.309997966906667E+002	5.2863127E-001	-2.7036267E+002
3	0	1.314997966780356E+002	5.2641565E-001	-2.7036267E+002
3	0	1.319997966654046E+002	5.2516317E-001	-2.7038031E+002
3	0	1.324997966527735E+002	5.2371055E-001	-2.7037677E+002
3	0	1.329997966401424E+002	5.2191275E-001	-2.7038031E+002
3	0	1.334997966275114E+002	5.1985466E-001	-2.7039093E+002
3	0	1.339997966148803E+002	5.1746523E-001	-2.7038385E+002
3	0	1.344997966022493E+002	5.1449424E-001	-2.7039447E+002
3	0	1.349997965896182E+002	5.1100379E-001	-2.7037326E+002
3	0	1.350001965896081E+002	5.0938118E-001	-2.7039093E+002