EC-Lab ASCII FILE
Nb header lines : 48                          

Open Circuit Voltage

Run on channel : 1 (SN 81504)
User : 
CE vs. WE compliance from -10 V to 10 V
Electrode connection : standard
Potential control : Ewe
Ewe ctrl range : min = -2.50 V, max = 2.50 V
Safety Limits :
	Do not start on E overload
Acquisition started on : 05/07/2026 23:27:51.851
Loaded Setting File :  C:\PEM-WE_measurements\2026\372_IV_IV IrOx, 5 min Pt, 30 min C, etched cathode\new station\Loopeis new\1,46 V different time gaps open cell\Loopeis 1,46V_180s_2_PEIS from 65kHz to 10kHz.mps
Saved on :
	File : L_27_Loopeis 1,46V_180s_2_PEIS from 65kHz to 10kHz_06_OCV_C01.mpr
	Directory : C:\PEM-WE_measurements\2026\372_IV_IV IrOx, 5 min Pt, 30 min C, etched cathode\new station\Loopeis new\1,46 V different time gaps open cell\
	Host : 192.168.0.2
Device : SP-150e (SN .005491)
Address : 192.168.0.91
EC-LAB for windows v11.71 (software)
Internet server v28.00 (firmware)
Command interpretor v14.01 (firmware)
Electrode material : 
Initial state : 
Electrolyte : 
Comments : 
Current amplifier : SP-150eB-20A
Electrode surface area : 0.001 cm²
Characteristic mass : 0.001 g
Equivalent Weight : 0.000 g/eq.
Density : 0.000 g/cm3
Volume (V) : 0.001 cm³
Record Analogic IN 1
Text export
   Mode : Standard
   Time format : Elapsed
Cycle Definition : Charge/Discharge alternance
tR (h:m:s)          0:03:0.0000         
dER/dt (mV/h)       1.0                 
record              <Ewe>               
dER (mV)            10.00               
dtR (s)             0.5000              
E range min (V)     -2.500              
E range max (V)     2.500               

mode	error	time/s	<Ewe/V>	Analog IN 1/V	
3	0	4.958805907747592E+002	1.2195753E+000	-1.1064836E-004
3	0	4.963805907621281E+002	1.1679276E+000	3.8648941E-006
3	0	4.968805907494971E+002	7.9199219E-001	-1.6790499E-004
3	0	4.973805907368660E+002	4.1604662E-001	-5.3391734E-005
3	0	4.978805907242349E+002	3.4393281E-001	3.8648941E-006
3	0	4.983805907116039E+002	3.3241320E-001	-1.6790499E-004
3	0	4.988805906989728E+002	3.2482275E-001	-3.4306191E-005
3	0	4.993805906863417E+002	3.1885251E-001	-1.5220648E-005
3	0	4.998805906737107E+002	3.1429225E-001	-3.4306191E-005
3	0	5.003805906610796E+002	3.1077236E-001	3.8648941E-006
3	0	5.008805906484486E+002	3.0798563E-001	-5.3391734E-005
3	0	5.013805906358175E+002	3.0571622E-001	-9.1562819E-005
3	0	5.018805906231864E+002	3.0382520E-001	-1.5220648E-005
3	0	5.023805906105554E+002	3.0219960E-001	6.1121522E-005
3	0	5.028805905979243E+002	3.0076936E-001	4.2035979E-005
3	0	5.033805905852932E+002	2.9953966E-001	-9.1562819E-005
3	0	5.038805905726622E+002	2.9843956E-001	-1.1064836E-004
3	0	5.043805905600311E+002	2.9743522E-001	3.8648941E-006
3	0	5.048805905474001E+002	2.9650423E-001	-1.2973390E-004
3	0	5.053805905347690E+002	2.9564318E-001	-1.2973390E-004
3	0	5.058805905221379E+002	2.9482347E-001	-5.3391734E-005
3	0	5.063805905095069E+002	2.9402533E-001	-7.2477276E-005
3	0	5.068805904968758E+002	2.9325697E-001	-9.1562819E-005
3	0	5.073805904842447E+002	2.9254413E-001	-1.5220648E-005
3	0	5.078805904716137E+002	2.9187101E-001	3.8648941E-006
3	0	5.083805904589826E+002	2.9120743E-001	6.1121522E-005
3	0	5.088805904463516E+002	2.9056829E-001	-1.2973390E-004
3	0	5.093805904337205E+002	2.8994489E-001	2.2950437E-005
3	0	5.098805904210894E+002	2.8933164E-001	-1.2973390E-004
3	0	5.103805904084584E+002	2.8871498E-001	1.1837815E-004
3	0	5.108805903958273E+002	2.8809226E-001	9.9292607E-005
3	0	5.113805903831963E+002	2.8751194E-001	-3.4306191E-005
3	0	5.118805903705652E+002	2.8695393E-001	-5.3391734E-005
3	0	5.123805903579341E+002	2.8639254E-001	3.8648941E-006
3	0	5.128805903453031E+002	2.8584313E-001	2.2950437E-005
3	0	5.133805903326720E+002	2.8530860E-001	-1.5220648E-005
3	0	5.138805903200409E+002	2.8476915E-001	-2.2516162E-004
3	0	5.143805903074099E+002	2.8422442E-001	-3.4306191E-005
3	0	5.148805902947788E+002	2.8366408E-001	-3.4306191E-005
3	0	5.153805902821478E+002	2.8315008E-001	-1.5220648E-005
3	0	5.158805902695167E+002	2.8264791E-001	-1.8699054E-004
3	0	5.163805902568856E+002	2.8214905E-001	-1.5220648E-005
3	0	5.168805902442546E+002	2.8165555E-001	4.2035979E-005
3	0	5.173805902316235E+002	2.8116527E-001	-1.1064836E-004
3	0	5.178805902189924E+002	2.8067634E-001	-9.1562819E-005
3	0	5.183805902063614E+002	2.8016749E-001	-9.1562819E-005
3	0	5.188805901937303E+002	2.7966097E-001	-7.2477276E-005
3	0	5.193805901810993E+002	2.7918816E-001	-5.3391734E-005
3	0	5.198805901684682E+002	2.7873442E-001	9.9292607E-005
3	0	5.203805901558371E+002	2.7826679E-001	-1.5220648E-005
3	0	5.208805901432061E+002	2.7781439E-001	2.2950437E-005
3	0	5.213805901305750E+002	2.7736354E-001	-5.3391734E-005
3	0	5.218805901179439E+002	2.7691403E-001	2.2950437E-005
3	0	5.223805901053129E+002	2.7644208E-001	1.3746369E-004
3	0	5.228805900926818E+002	2.7596959E-001	-1.5220648E-005
3	0	5.233805900800508E+002	2.7553815E-001	-5.3391734E-005
3	0	5.238805900674197E+002	2.7510738E-001	-3.4306191E-005
3	0	5.243805900547886E+002	2.7468807E-001	-3.4306191E-005
3	0	5.248805900421576E+002	2.7427191E-001	8.0207064E-005
3	0	5.253805900295265E+002	2.7385682E-001	-1.4881945E-004
3	0	5.258805900168954E+002	2.7344126E-001	-5.3391734E-005
3	0	5.263805900042644E+002	2.7301177E-001	-7.2477276E-005
3	0	5.268805899916333E+002	2.7256554E-001	2.2950437E-005
3	0	5.273805899790023E+002	2.7217746E-001	-1.1064836E-004
3	0	5.278805899663712E+002	2.7179092E-001	2.2950437E-005
3	0	5.283805899537401E+002	2.7139485E-001	3.8648941E-006
3	0	5.288805899411091E+002	2.7101034E-001	6.1121522E-005
3	0	5.293805899284780E+002	2.7062953E-001	-7.2477276E-005
3	0	5.298805899158469E+002	2.7023670E-001	-7.2477276E-005
3	0	5.303805899032159E+002	2.6983711E-001	-1.5220648E-005
3	0	5.308805898905848E+002	2.6943287E-001	4.2035979E-005
3	0	5.313805898779538E+002	2.6907051E-001	-7.2477276E-005
3	0	5.318805898653227E+002	2.6871204E-001	-5.3391734E-005
3	0	5.323805898526916E+002	2.6836345E-001	-1.1064836E-004
3	0	5.328805898400606E+002	2.6800984E-001	6.1121522E-005
3	0	5.333805898274295E+002	2.6766291E-001	-5.3391734E-005
3	0	5.338805898147984E+002	2.6730192E-001	-7.2477276E-005
3	0	5.343805898021674E+002	2.6693586E-001	4.2035979E-005
3	0	5.348805897895363E+002	2.6655796E-001	-3.4306191E-005
3	0	5.353805897769053E+002	2.6622319E-001	-9.1562819E-005
3	0	5.358805897642742E+002	2.6590022E-001	-5.3391734E-005
3	0	5.363805897516431E+002	2.6557657E-001	-1.5220648E-005
3	0	5.368805897390121E+002	2.6525500E-001	4.2035979E-005
3	0	5.373805897263810E+002	2.6493824E-001	6.1121522E-005
3	0	5.378805897137499E+002	2.6461768E-001	-1.5220648E-005
3	0	5.383805897011189E+002	2.6428190E-001	3.8648941E-006
3	0	5.388805896884878E+002	2.6393592E-001	-1.5220648E-005
3	0	5.393805896758568E+002	2.6362711E-001	-7.2477276E-005
3	0	5.398805896632257E+002	2.6333123E-001	-5.3391734E-005
3	0	5.403805896505946E+002	2.6303238E-001	-9.1562819E-005
3	0	5.408805896379636E+002	2.6273671E-001	-7.2477276E-005
3	0	5.413805896253325E+002	2.6244614E-001	-5.3391734E-005
3	0	5.418805896127014E+002	2.6214531E-001	6.1121522E-005
3	0	5.423805896000704E+002	2.6183107E-001	-1.2973390E-004
3	0	5.428805895874393E+002	2.6150665E-001	2.2950437E-005
3	0	5.433805895748083E+002	2.6122519E-001	3.8648941E-006
3	0	5.438805895621772E+002	2.6095560E-001	6.1121522E-005
3	0	5.443805895495461E+002	2.6067996E-001	-3.4306191E-005
3	0	5.448805895369151E+002	2.6041526E-001	-1.2973390E-004
3	0	5.453805895242840E+002	2.6014611E-001	-9.1562819E-005
3	0	5.458805895116529E+002	2.5986692E-001	8.0207064E-005
3	0	5.463805894990219E+002	2.5957105E-001	-1.4881945E-004
3	0	5.468805894863908E+002	2.5927109E-001	-1.5220648E-005
3	0	5.473805894737598E+002	2.5901487E-001	4.2035979E-005
3	0	5.478805894611287E+002	2.5875923E-001	-5.3391734E-005
3	0	5.483805894484976E+002	2.5850326E-001	-1.5220648E-005
3	0	5.488805894358666E+002	2.5824606E-001	-9.1562819E-005
3	0	5.493805894232355E+002	2.5800034E-001	-9.1562819E-005
3	0	5.498805894106044E+002	2.5775021E-001	6.1121522E-005
3	0	5.503805893979734E+002	2.5747737E-001	-9.1562819E-005
3	0	5.508805893853423E+002	2.5719783E-001	-3.4306191E-005
3	0	5.513805893727113E+002	2.5696588E-001	-1.5220648E-005
3	0	5.518805893600802E+002	2.5673881E-001	-5.3391734E-005
3	0	5.523805893474491E+002	2.5651097E-001	-7.2477276E-005
3	0	5.528805893348181E+002	2.5628206E-001	-1.6790499E-004
3	0	5.533805893221870E+002	2.5606251E-001	3.8648941E-006
3	0	5.538805893095559E+002	2.5582856E-001	-3.4306191E-005
3	0	5.543805892969249E+002	2.5558358E-001	-1.5220648E-005
3	0	5.548805892842938E+002	2.5532618E-001	-9.1562819E-005
3	0	5.553805892716628E+002	2.5511074E-001	-1.5220648E-005
3	0	5.558805892590317E+002	2.5490382E-001	-1.2973390E-004
3	0	5.563805892464006E+002	2.5469971E-001	-1.5220648E-005
3	0	5.568805892337696E+002	2.5449809E-001	9.9292607E-005
3	0	5.573805892211385E+002	2.5429735E-001	-3.4306191E-005
3	0	5.578805892085074E+002	2.5408602E-001	8.0207064E-005
3	0	5.583805891958764E+002	2.5385156E-001	-1.4881945E-004
3	0	5.588805891832453E+002	2.5361511E-001	3.8648941E-006
3	0	5.593805891706143E+002	2.5341353E-001	-1.5220648E-005
3	0	5.598805891579832E+002	2.5321969E-001	-9.1562819E-005
3	0	5.603805891453521E+002	2.5303394E-001	-3.4306191E-005
3	0	5.608805891327211E+002	2.5285110E-001	-5.3391734E-005
3	0	5.613805891200900E+002	2.5265864E-001	2.2950437E-005
3	0	5.618805891074589E+002	2.5246587E-001	-7.2477276E-005
3	0	5.623805890948279E+002	2.5224772E-001	-1.1064836E-004
3	0	5.628805890821968E+002	2.5202382E-001	-7.2477276E-005
3	0	5.633805890695658E+002	2.5184423E-001	-3.4306191E-005
3	0	5.638805890569347E+002	2.5167102E-001	3.8648941E-006
3	0	5.643805890443036E+002	2.5149080E-001	-3.4306191E-005
3	0	5.648805890316726E+002	2.5131607E-001	-5.3391734E-005
3	0	5.653805890190415E+002	2.5114459E-001	-7.2477276E-005
3	0	5.658805890064104E+002	2.5096139E-001	-1.4881945E-004
3	0	5.663805889937794E+002	2.5075516E-001	-5.3391734E-005
3	0	5.668805889811483E+002	2.5054803E-001	-1.4881945E-004
3	0	5.673805889685173E+002	2.5038052E-001	9.9292607E-005
3	0	5.678805889558862E+002	2.5021097E-001	-1.2973390E-004
3	0	5.683805889432551E+002	2.5004578E-001	2.2950437E-005
3	0	5.688805889306241E+002	2.4988358E-001	-1.4881945E-004
3	0	5.693805889179930E+002	2.4972330E-001	-5.3391734E-005
3	0	5.698805889053619E+002	2.4955049E-001	6.1121522E-005
3	0	5.703805888927309E+002	2.4936248E-001	-3.4306191E-005
3	0	5.708805888800998E+002	2.4916132E-001	-1.5220648E-005
3	0	5.713805888674688E+002	2.4900541E-001	-5.3391734E-005
3	0	5.718805888548377E+002	2.4885355E-001	-3.4306191E-005
3	0	5.723805888422066E+002	2.4870364E-001	6.1121522E-005
3	0	5.728805888295756E+002	2.4855809E-001	-1.2973390E-004
3	0	5.733805888169445E+002	2.4840726E-001	3.8648941E-006
3	0	5.738805888043134E+002	2.4825294E-001	8.0207064E-005
3	0	5.743805887916824E+002	2.4807689E-001	-1.2973390E-004
3	0	5.748805887790513E+002	2.4789625E-001	-1.5220648E-005
3	0	5.753805887664203E+002	2.4775948E-001	8.0207064E-005
3	0	5.758805887537892E+002	2.4762020E-001	-1.2973390E-004
3	0	5.763805887411581E+002	2.4748263E-001	2.2950437E-005
3	0	5.768805887285271E+002	2.4734938E-001	3.8648941E-006
3	0	5.773805887158960E+002	2.4721012E-001	-7.2477276E-005
3	0	5.778805887032649E+002	2.4706434E-001	9.9292607E-005
3	0	5.783805886906339E+002	2.4690299E-001	6.1121522E-005
3	0	5.788805886780028E+002	2.4672601E-001	-1.5220648E-005
3	0	5.793805886653718E+002	2.4659413E-001	6.1121522E-005
3	0	5.798805886527407E+002	2.4647382E-001	-1.2973390E-004
3	0	5.803805886401096E+002	2.4634662E-001	-1.5220648E-005
3	0	5.808805886274786E+002	2.4621874E-001	-5.3391734E-005
3	0	5.813805886148475E+002	2.4608873E-001	-3.4306191E-005
3	0	5.818805886022164E+002	2.4595468E-001	-9.1562819E-005
3	0	5.823805885895854E+002	2.4579346E-001	-1.5220648E-005
3	0	5.828805885769543E+002	2.4562745E-001	3.8648941E-006
3	0	5.833805885643233E+002	2.4550258E-001	-3.4306191E-005
3	0	5.838805885516922E+002	2.4538602E-001	4.2035979E-005
3	0	5.843805885390611E+002	2.4526609E-001	-3.4306191E-005
3	0	5.848805885264301E+002	2.4514972E-001	6.1121522E-005
3	0	5.853805885137990E+002	2.4503194E-001	-1.5220648E-005
3	0	5.858805885011679E+002	2.4490952E-001	-1.5220648E-005
3	0	5.863805884885369E+002	2.4475548E-001	-5.3391734E-005
3	0	5.868805884759058E+002	2.4459115E-001	2.2950437E-005
3	0	5.873805884632748E+002	2.4447182E-001	2.2950437E-005
3	0	5.878805884506437E+002	2.4435873E-001	-3.4306191E-005
3	0	5.883805884380126E+002	2.4424477E-001	-9.1562819E-005
3	0	5.888805884253816E+002	2.4412638E-001	-3.4306191E-005
3	0	5.893805884127505E+002	2.4401085E-001	3.8648941E-006
3	0	5.898805884001195E+002	2.4388573E-001	3.8648941E-006
3	0	5.903805883874884E+002	2.4374323E-001	-1.8699054E-004
3	0	5.908805883748573E+002	2.4358769E-001	1.1837815E-004
3	0	5.913805883622263E+002	2.4347316E-001	-7.2477276E-005
3	0	5.918805883495952E+002	2.4337047E-001	1.3746369E-004
3	0	5.923805883369641E+002	2.4326915E-001	-5.3391734E-005
3	0	5.928805883243331E+002	2.4317028E-001	4.2035979E-005
3	0	5.933805883117020E+002	2.4307001E-001	6.1121522E-005
3	0	5.938805882990710E+002	2.4295084E-001	2.2950437E-005
3	0	5.943805882864399E+002	2.4281117E-001	4.2035979E-005
3	0	5.948805882738088E+002	2.4266216E-001	-1.2973390E-004
3	0	5.953805882611778E+002	2.4255882E-001	-9.1562819E-005
3	0	5.958805882485467E+002	2.4246031E-001	2.2950437E-005
3	0	5.963805882359156E+002	2.4235892E-001	-7.2477276E-005
3	0	5.968805882232846E+002	2.4226046E-001	-5.3391734E-005
3	0	5.973805882106535E+002	2.4215876E-001	-1.2973390E-004
3	0	5.978805881980225E+002	2.4205317E-001	-9.1562819E-005
3	0	5.983805881853914E+002	2.4192806E-001	-7.2477276E-005
3	0	5.988805881727603E+002	2.4178250E-001	-7.2477276E-005
3	0	5.993805881601293E+002	2.4168214E-001	-1.5220648E-005
3	0	5.998805881474982E+002	2.4159297E-001	-3.4306191E-005
3	0	6.003805881348671E+002	2.4150126E-001	-9.1562819E-005
3	0	6.008805881222361E+002	2.4141161E-001	-1.2973390E-004
3	0	6.013805881096050E+002	2.4131796E-001	2.2950437E-005
3	0	6.018805880969740E+002	2.4121112E-001	-1.2973390E-004
3	0	6.023805880843429E+002	2.4108739E-001	2.2950437E-005
3	0	6.028805880717118E+002	2.4095692E-001	-1.2973390E-004
3	0	6.033805880590808E+002	2.4086528E-001	-5.3391734E-005
3	0	6.038805880464497E+002	2.4078192E-001	-1.6790499E-004
3	0	6.043805880338186E+002	2.4069351E-001	-7.2477276E-005
3	0	6.048805880211876E+002	2.4060668E-001	4.2035979E-005
3	0	6.053805880085565E+002	2.4051522E-001	-7.2477276E-005
3	0	6.058805879959255E+002	2.4038614E-001	-9.1562819E-005
3	0	6.063805879832944E+002	2.4027620E-001	-9.1562819E-005
3	0	6.068805879706633E+002	2.4016888E-001	-3.4306191E-005
3	0	6.073805879580323E+002	2.4009383E-001	-1.5220648E-005
3	0	6.078805879454012E+002	2.4002281E-001	-7.2477276E-005
3	0	6.083805879327701E+002	2.3993936E-001	-9.1562819E-005
3	0	6.088805879201391E+002	2.3985346E-001	-1.1064836E-004
3	0	6.093805879075080E+002	2.3976409E-001	-7.2477276E-005
3	0	6.098805878948770E+002	2.3966780E-001	-1.5220648E-005
3	0	6.103805878822459E+002	2.3954825E-001	-2.0607607E-004
3	0	6.108805878696148E+002	2.3941597E-001	-1.5220648E-005
3	0	6.113805878569838E+002	2.3932250E-001	4.2035979E-005
3	0	6.118805878443527E+002	2.3925199E-001	6.1121522E-005
3	0	6.123805878317216E+002	2.3917520E-001	-7.2477276E-005
3	0	6.128805878190906E+002	2.3909625E-001	-9.1562819E-005
3	0	6.133805878064595E+002	2.3902223E-001	4.2035979E-005
3	0	6.138805877938285E+002	2.3892406E-001	-7.2477276E-005
3	0	6.143805877811974E+002	2.3880635E-001	-3.4306191E-005
3	0	6.148805877685663E+002	2.3867854E-001	-5.3391734E-005
3	0	6.153805877559353E+002	2.3859669E-001	-1.1064836E-004
3	0	6.158805877433042E+002	2.3853604E-001	3.8648941E-006
3	0	6.163805877306731E+002	2.3847137E-001	-1.2973390E-004
3	0	6.168805877180421E+002	2.3839925E-001	3.8648941E-006
3	0	6.173805877054110E+002	2.3832226E-001	1.3746369E-004
3	0	6.178805876927800E+002	2.3822409E-001	4.2035979E-005
3	0	6.183805876801489E+002	2.3810892E-001	-9.1562819E-005
3	0	6.188805876675178E+002	2.3798443E-001	-1.5220648E-005
3	0	6.193805876548868E+002	2.3790492E-001	-3.4306191E-005
3	0	6.198805876422557E+002	2.3783816E-001	3.8648941E-006
3	0	6.203805876296246E+002	2.3776667E-001	-1.1064836E-004
3	0	6.208805876169936E+002	2.3769291E-001	-3.4306191E-005
3	0	6.213805876043625E+002	2.3761556E-001	-5.3391734E-005
3	0	6.218805875917315E+002	2.3752744E-001	-1.2973390E-004
3	0	6.223805875791004E+002	2.3741172E-001	-9.1562819E-005
3	0	6.228805875664693E+002	2.3729095E-001	-3.4306191E-005
3	0	6.233805875538383E+002	2.3721519E-001	-1.2973390E-004
3	0	6.238805875412072E+002	2.3715033E-001	2.2950437E-005
3	0	6.243805875285761E+002	2.3708494E-001	-1.6790499E-004
3	0	6.248805875159451E+002	2.3701426E-001	6.1121522E-005
3	0	6.253805875033140E+002	2.3694327E-001	-5.3391734E-005
3	0	6.258805874906830E+002	2.3686083E-001	-9.1562819E-005
3	0	6.263805874780519E+002	2.3675328E-001	3.8648941E-006
3	0	6.268805874654208E+002	2.3663814E-001	6.1121522E-005
3	0	6.273805874527898E+002	2.3655967E-001	-1.4881945E-004
3	0	6.278805874401587E+002	2.3650403E-001	-7.2477276E-005
3	0	6.283805874275276E+002	2.3643182E-001	-1.1064836E-004
3	0	6.288805874148966E+002	2.3635973E-001	-2.0607607E-004
3	0	6.293805874022655E+002	2.3628639E-001	-1.8699054E-004
3	0	6.298805873896345E+002	2.3619744E-001	-5.3391734E-005
3	0	6.303805873770034E+002	2.3608932E-001	3.8648941E-006
3	0	6.308805873643723E+002	2.3597245E-001	8.0207064E-005
3	0	6.313805873517413E+002	2.3589700E-001	-7.2477276E-005
3	0	6.318805873391102E+002	2.3584120E-001	-5.3391734E-005
3	0	6.323805873264791E+002	2.3578297E-001	4.2035979E-005
3	0	6.328805873138481E+002	2.3571591E-001	-7.2477276E-005
3	0	6.333805873012170E+002	2.3565450E-001	4.2035979E-005
3	0	6.338805872885860E+002	2.3558149E-001	-9.1562819E-005
3	0	6.343805872759549E+002	2.3548311E-001	-7.2477276E-005
3	0	6.348805872633238E+002	2.3537801E-001	3.8648941E-006
3	0	6.353805872506928E+002	2.3531388E-001	-3.4306191E-005
3	0	6.358805872380617E+002	2.3526300E-001	-1.5220648E-005
3	0	6.363805872254306E+002	2.3520602E-001	2.2950437E-005
3	0	6.368805872127996E+002	2.3514313E-001	-5.3391734E-005
3	0	6.373805872001685E+002	2.3507842E-001	-5.3391734E-005
3	0	6.378805871875375E+002	2.3500009E-001	-5.3391734E-005
3	0	6.383805871749064E+002	2.3490645E-001	3.8648941E-006
3	0	6.388805871622753E+002	2.3479821E-001	-3.4306191E-005
3	0	6.393805871496443E+002	2.3473465E-001	-7.2477276E-005
3	0	6.398805871370132E+002	2.3469040E-001	3.8648941E-006
3	0	6.403805871243821E+002	2.3463939E-001	3.8648941E-006
3	0	6.408805871117511E+002	2.3458439E-001	2.2950437E-005
3	0	6.413805870991200E+002	2.3452362E-001	9.9292607E-005
3	0	6.418805870864890E+002	2.3445350E-001	4.2035979E-005
3	0	6.423805870738579E+002	2.3436405E-001	-1.1064836E-004
3	0	6.428805870612268E+002	2.3425896E-001	-3.4306191E-005
3	0	6.433805870485958E+002	2.3419589E-001	2.2950437E-005
3	0	6.438805870359647E+002	2.3414825E-001	2.2950437E-005
3	0	6.443805870233336E+002	2.3410265E-001	-5.3391734E-005
3	0	6.448805870107026E+002	2.3405328E-001	-5.3391734E-005
3	0	6.453805869980715E+002	2.3399650E-001	4.2035979E-005
3	0	6.458805869854405E+002	2.3392975E-001	3.8648941E-006
3	0	6.463805869728094E+002	2.3383687E-001	-5.3391734E-005
3	0	6.468805869601783E+002	2.3372772E-001	-5.3391734E-005
3	0	6.473805869475473E+002	2.3366351E-001	4.2035979E-005
3	0	6.478805869349162E+002	2.3361310E-001	-7.2477276E-005
3	0	6.483805869222851E+002	2.3356362E-001	3.8648941E-006
3	0	6.488805869096541E+002	2.3350197E-001	2.2950437E-005
3	0	6.493805868970230E+002	2.3343895E-001	-9.1562819E-005
3	0	6.498805868843920E+002	2.3337066E-001	6.1121522E-005
3	0	6.503805868717609E+002	2.3327279E-001	-1.6790499E-004
3	0	6.508805868591298E+002	2.3316969E-001	-1.5220648E-005
3	0	6.513805868464988E+002	2.3311011E-001	-3.4306191E-005
3	0	6.518805868338677E+002	2.3306736E-001	-9.1562819E-005
3	0	6.523805868212366E+002	2.3302084E-001	-5.3391734E-005
3	0	6.528805868086056E+002	2.3296864E-001	-1.5220648E-005
3	0	6.533805867959745E+002	2.3291449E-001	-1.2973390E-004
3	0	6.538805867833435E+002	2.3285109E-001	-5.3391734E-005
3	0	6.543805867707124E+002	2.3275977E-001	-1.5220648E-005
3	0	6.548805867580813E+002	2.3265794E-001	-7.2477276E-005
3	0	6.553805867454503E+002	2.3259743E-001	-5.3391734E-005
3	0	6.558805867328192E+002	2.3255734E-001	8.0207064E-005
3	0	6.563805867201881E+002	2.3251170E-001	-5.3391734E-005
3	0	6.568805867075571E+002	2.3246068E-001	-3.4306191E-005
3	0	6.573805866949260E+002	2.3240542E-001	-7.2477276E-005
3	0	6.578805866822950E+002	2.3234981E-001	-7.2477276E-005
3	0	6.583805866696639E+002	2.3226373E-001	-9.1562819E-005
3	0	6.588805866570328E+002	2.3216881E-001	-1.8699054E-004
3	0	6.593805866444018E+002	2.3211639E-001	-5.3391734E-005
3	0	6.598805866317707E+002	2.3208490E-001	-7.2477276E-005
3	0	6.603805866191396E+002	2.3204260E-001	-9.1562819E-005
3	0	6.608805866065086E+002	2.3199718E-001	-9.1562819E-005
3	0	6.613805865938775E+002	2.3194639E-001	4.2035979E-005
3	0	6.618805865812465E+002	2.3188558E-001	2.2950437E-005
3	0	6.623805865686154E+002	2.3180878E-001	1.1837815E-004
3	0	6.628805865559843E+002	2.3171969E-001	-3.4306191E-005
3	0	6.633805865433533E+002	2.3166779E-001	-3.4306191E-005
3	0	6.638805865307222E+002	2.3164247E-001	3.8648941E-006
3	0	6.643805865180912E+002	2.3160863E-001	-2.4424717E-004
3	0	6.648805865054601E+002	2.3156357E-001	-1.1064836E-004
3	0	6.653805864928290E+002	2.3151401E-001	-7.2477276E-005
3	0	6.658805864801980E+002	2.3145863E-001	9.9292607E-005
3	0	6.663805864675669E+002	2.3137951E-001	4.2035979E-005
3	0	6.668805864549358E+002	2.3128580E-001	9.9292607E-005
3	0	6.673805864423048E+002	2.3123278E-001	-7.2477276E-005
3	0	6.678805864296737E+002	2.3120072E-001	-9.1562819E-005
3	0	6.683805864170427E+002	2.3116116E-001	-9.1562819E-005
3	0	6.688805864044116E+002	2.3111491E-001	-3.4306191E-005
3	0	6.693805863917805E+002	2.3107135E-001	-1.1064836E-004
3	0	6.698805863791495E+002	2.3101629E-001	-5.3391734E-005
3	0	6.703805863665184E+002	2.3094505E-001	-9.1562819E-005
3	0	6.708805863538873E+002	2.3085250E-001	2.2950437E-005
3	0	6.713805863412563E+002	2.3080726E-001	2.2950437E-005
3	0	6.718805863286252E+002	2.3077479E-001	-1.1064836E-004
3	0	6.723805863159942E+002	2.3074201E-001	8.0207064E-005
3	0	6.728805863033631E+002	2.3069413E-001	1.1837815E-004
3	0	6.733805862907320E+002	2.3064782E-001	-5.3391734E-005
3	0	6.738805862781010E+002	2.3059440E-001	3.8648941E-006
3	0	6.743805862654699E+002	2.3052284E-001	4.2035979E-005
3	0	6.748805862528388E+002	2.3043549E-001	-3.4306191E-005
3	0	6.753805862402078E+002	2.3038904E-001	-7.2477276E-005
3	0	6.753809862401977E+002	2.3035954E-001	-5.3391734E-005