EC-Lab ASCII FILE
Nb header lines : 55                          

Open Circuit Voltage

Run on channel : 1 (SN 81504)
User : 
CE vs. WE compliance from -10 V to 10 V
Electrode connection : standard
Potential control : Ewe
Ewe ctrl range : min = -2.50 V, max = 2.50 V
Safety Limits :
	Do not start on E overload
Acquisition started on : 05/07/2026 22:17:50.137
Loaded Setting File :  C:\PEM-WE_measurements\2026\372_IV_IV IrOx, 5 min Pt, 30 min C, etched cathode\new station\Loopeis new\1,46 V different time gaps open cell\Loopeis 1,46V_120s_5_PEIS from 65Hz to 10Hz.mps
Saved on :
	File : L_25_Loopeis 1,46V_120s_5_PEIS from 65Hz to 10Hz_10_OCV_C01.mpr
	Directory : C:\PEM-WE_measurements\2026\372_IV_IV IrOx, 5 min Pt, 30 min C, etched cathode\new station\Loopeis new\1,46 V different time gaps open cell\
	Host : 192.168.0.2
Device : SP-150e (SN .005491)
Address : 192.168.0.91
EC-LAB for windows v11.71 (software)
Internet server v28.00 (firmware)
Command interpretor v14.01 (firmware)
Electrode material : 
Initial state : 
Electrolyte : 
Comments : 
Current amplifier : SP-150eB-20A
Electrode surface area : 0.001 cm²
Characteristic mass : 0.001 g
Equivalent Weight : 0.000 g/eq.
Density : 0.000 g/cm3
Volume (V) : 0.001 cm³
Record Analogic IN 1
Text export
   Mode : Standard
   Time format : Elapsed
Cycle Definition : Charge/Discharge alternance
External device configuration :
   device type : Temperature Probe
   device name : Other
   Analog IN 1 : 
      unit : T/Â°C
      max : 100.000 at 2.000 V
      min : 0.000 at 1.460 V
tR (h:m:s)          0:02:0.0000         
dER/dt (mV/h)       1.0                 
record              <Ewe>               
dER (mV)            10.00               
dtR (s)             0.5000              
E range min (V)     -2.500              
E range max (V)     2.500               

mode	error	time/s	<Ewe/V>	Analog IN 1/V	
3	0	7.699263917857752E+002	1.2368315E+000	-2.7036618E+002
3	0	7.704263917731441E+002	1.2040365E+000	-2.7037326E+002
3	0	7.709263917605131E+002	9.7915328E-001	-2.7039447E+002
3	0	7.714263917478820E+002	4.9577898E-001	-2.7036618E+002
3	0	7.719263917352509E+002	3.5453591E-001	-2.7039801E+002
3	0	7.724263917226199E+002	3.3607167E-001	-2.7037326E+002
3	0	7.729263917099888E+002	3.2755914E-001	-2.7037326E+002
3	0	7.734263916973578E+002	3.2075956E-001	-2.7040860E+002
3	0	7.739263916847267E+002	3.1558335E-001	-2.7037326E+002
3	0	7.744263916720956E+002	3.1165296E-001	-2.7038742E+002
3	0	7.749263916594646E+002	3.0859652E-001	-2.7037326E+002
3	0	7.754263916468335E+002	3.0614772E-001	-2.7037677E+002
3	0	7.759263916342024E+002	3.0411854E-001	-2.7037677E+002
3	0	7.764263916215714E+002	3.0239299E-001	-2.7036267E+002
3	0	7.769263916089403E+002	3.0093345E-001	-2.7035913E+002
3	0	7.774263915963093E+002	2.9967573E-001	-2.7037677E+002
3	0	7.779263915836782E+002	2.9855666E-001	-2.7037677E+002
3	0	7.784263915710471E+002	2.9754242E-001	-2.7038742E+002
3	0	7.789263915584161E+002	2.9660636E-001	-2.7038385E+002
3	0	7.794263915457850E+002	2.9573622E-001	-2.7038385E+002
3	0	7.799263915331539E+002	2.9489949E-001	-2.7035913E+002
3	0	7.804263915205229E+002	2.9408553E-001	-2.7037677E+002
3	0	7.809263915078918E+002	2.9334140E-001	-2.7037677E+002
3	0	7.814263914952608E+002	2.9264596E-001	-2.7038031E+002
3	0	7.819263914826297E+002	2.9197699E-001	-2.7038385E+002
3	0	7.824263914699986E+002	2.9131749E-001	-2.7036972E+002
3	0	7.829263914573676E+002	2.9068398E-001	-2.7036618E+002
3	0	7.834263914447365E+002	2.9006007E-001	-2.7038385E+002
3	0	7.839263914321054E+002	2.8942710E-001	-2.7038742E+002
3	0	7.844263914194744E+002	2.8879428E-001	-2.7039801E+002
3	0	7.849263914068433E+002	2.8819790E-001	-2.7038742E+002
3	0	7.854263913942123E+002	2.8762487E-001	-2.7035913E+002
3	0	7.859263913815812E+002	2.8706613E-001	-2.7037677E+002
3	0	7.864263913689501E+002	2.8651249E-001	-2.7037326E+002
3	0	7.869263913563191E+002	2.8596967E-001	-2.7038031E+002
3	0	7.874263913436880E+002	2.8542209E-001	-2.7040860E+002
3	0	7.879263913310569E+002	2.8486329E-001	-2.7036972E+002
3	0	7.884263913184259E+002	2.8429171E-001	-2.7036972E+002
3	0	7.889263913057948E+002	2.8375319E-001	-2.7036972E+002
3	0	7.894263912931638E+002	2.8324386E-001	-2.7038385E+002
3	0	7.899263912805327E+002	2.8273270E-001	-2.7036972E+002
3	0	7.904263912679016E+002	2.8223678E-001	-2.7038742E+002
3	0	7.909263912552706E+002	2.8174195E-001	-2.7036972E+002
3	0	7.914263912426395E+002	2.8123546E-001	-2.7035913E+002
3	0	7.919263912300084E+002	2.8071880E-001	-2.7036618E+002
3	0	7.924263912173774E+002	2.8019086E-001	-2.7036618E+002
3	0	7.929263912047463E+002	2.7970472E-001	-2.7037326E+002
3	0	7.934263911921153E+002	2.7924037E-001	-2.7036618E+002
3	0	7.939263911794842E+002	2.7877897E-001	-2.7039093E+002
3	0	7.944263911668531E+002	2.7831376E-001	-2.7037326E+002
3	0	7.949263911542221E+002	2.7785251E-001	-2.7039093E+002
3	0	7.954263911415910E+002	2.7738029E-001	-2.7038385E+002
3	0	7.959263911289599E+002	2.7689862E-001	-2.7037326E+002
3	0	7.964263911163289E+002	2.7640441E-001	-2.7036618E+002
3	0	7.969263911036978E+002	2.7595529E-001	-2.7038385E+002
3	0	7.974263910910668E+002	2.7552044E-001	-2.7038031E+002
3	0	7.979263910784357E+002	2.7508315E-001	-2.7038742E+002
3	0	7.984263910658046E+002	2.7465722E-001	-2.7038031E+002
3	0	7.989263910531736E+002	2.7423745E-001	-2.7038385E+002
3	0	7.994263910405425E+002	2.7380589E-001	-2.7038742E+002
3	0	7.999263910279115E+002	2.7335921E-001	-2.7037677E+002
3	0	8.004263910152804E+002	2.7290079E-001	-2.7038031E+002
3	0	8.009263910026493E+002	2.7248275E-001	-2.7037326E+002
3	0	8.014263909900183E+002	2.7208722E-001	-2.7039447E+002
3	0	8.019263909773872E+002	2.7168345E-001	-2.7036618E+002
3	0	8.024263909647561E+002	2.7128094E-001	-2.7039801E+002
3	0	8.029263909521251E+002	2.7088860E-001	-2.7038031E+002
3	0	8.034263909394940E+002	2.7049085E-001	-2.7038742E+002
3	0	8.039263909268630E+002	2.7006525E-001	-2.7038385E+002
3	0	8.044263909142319E+002	2.6964387E-001	-2.7039093E+002
3	0	8.049263909016008E+002	2.6925993E-001	-2.7040155E+002
3	0	8.054263908889698E+002	2.6888901E-001	-2.7036972E+002
3	0	8.059263908763387E+002	2.6851830E-001	-2.7039801E+002
3	0	8.064263908637076E+002	2.6814991E-001	-2.7038742E+002
3	0	8.069263908510766E+002	2.6778501E-001	-2.7038031E+002
3	0	8.074263908384455E+002	2.6741514E-001	-2.7038385E+002
3	0	8.079263908258145E+002	2.6703727E-001	-2.7037677E+002
3	0	8.084263908131834E+002	2.6663896E-001	-2.7039801E+002
3	0	8.089263908005523E+002	2.6628458E-001	-2.7036972E+002
3	0	8.094263907879213E+002	2.6595357E-001	-2.7037326E+002
3	0	8.099263907752902E+002	2.6561955E-001	-2.7038742E+002
3	0	8.104263907626591E+002	2.6528206E-001	-2.7039447E+002
3	0	8.109263907500281E+002	2.6495203E-001	-2.7039801E+002
3	0	8.114263907373970E+002	2.6462290E-001	-2.7036618E+002
3	0	8.119263907247660E+002	2.6426589E-001	-2.7035913E+002
3	0	8.124263907121349E+002	2.6390520E-001	-2.7036618E+002
3	0	8.129263906995038E+002	2.6358157E-001	-2.7037326E+002
3	0	8.134263906868728E+002	2.6327586E-001	-2.7038031E+002
3	0	8.139263906742417E+002	2.6296532E-001	-2.7038031E+002
3	0	8.144263906616106E+002	2.6265869E-001	-2.7035205E+002
3	0	8.149263906489796E+002	2.6235536E-001	-2.7036618E+002
3	0	8.154263906363485E+002	2.6205391E-001	-2.7039447E+002
3	0	8.159263906237175E+002	2.6172209E-001	-2.7038742E+002
3	0	8.164263906110864E+002	2.6138589E-001	-2.7038031E+002
3	0	8.169263905984553E+002	2.6108980E-001	-2.7037677E+002
3	0	8.174263905858243E+002	2.6081303E-001	-2.7037677E+002
3	0	8.179263905731932E+002	2.6053089E-001	-2.7038031E+002
3	0	8.184263905605621E+002	2.6024920E-001	-2.7036972E+002
3	0	8.189263905479311E+002	2.5996739E-001	-2.7038385E+002
3	0	8.194263905353000E+002	2.5968707E-001	-2.7037326E+002
3	0	8.199263905226690E+002	2.5938851E-001	-2.7038385E+002
3	0	8.204263905100379E+002	2.5908121E-001	-2.7036972E+002
3	0	8.209263904974068E+002	2.5881156E-001	-2.7039801E+002
3	0	8.214263904847758E+002	2.5855640E-001	-2.7036972E+002
3	0	8.219263904721447E+002	2.5830346E-001	-2.7036618E+002
3	0	8.224263904595136E+002	2.5804734E-001	-2.7037326E+002
3	0	8.229263904468826E+002	2.5779057E-001	-2.7038385E+002
3	0	8.234263904342515E+002	2.5752369E-001	-2.7035559E+002
3	0	8.239263904216205E+002	2.5723517E-001	-2.7036972E+002
3	0	8.244263904089894E+002	2.5694105E-001	-2.7037326E+002
3	0	8.249263903963583E+002	2.5668678E-001	-2.7038742E+002
3	0	8.254263903837273E+002	2.5645033E-001	-2.7038742E+002
3	0	8.259263903710962E+002	2.5621554E-001	-2.7037326E+002
3	0	8.264263903584651E+002	2.5597239E-001	-2.7038385E+002
3	0	8.269263903458341E+002	2.5573537E-001	-2.7037677E+002
3	0	8.274263903332030E+002	2.5549752E-001	-2.7037326E+002
3	0	8.279263903205720E+002	2.5523952E-001	-2.7038031E+002
3	0	8.284263903079409E+002	2.5497034E-001	-2.7037677E+002
3	0	8.289263902953098E+002	2.5474969E-001	-2.7039093E+002
3	0	8.294263902826788E+002	2.5454059E-001	-2.7037677E+002
3	0	8.299263902700477E+002	2.5433087E-001	-2.7038742E+002
3	0	8.304263902574166E+002	2.5411421E-001	-2.7036972E+002
3	0	8.309263902447856E+002	2.5389695E-001	-2.7040155E+002
3	0	8.314263902321545E+002	2.5368407E-001	-2.7036618E+002
3	0	8.319263902195235E+002	2.5344685E-001	-2.7040155E+002
3	0	8.324263902068924E+002	2.5319433E-001	-2.7041214E+002
3	0	8.329263901942613E+002	2.5299352E-001	-2.7037677E+002
3	0	8.334263901816303E+002	2.5280228E-001	-2.7038385E+002
3	0	8.339263901689992E+002	2.5260973E-001	-2.7036618E+002
3	0	8.344263901563681E+002	2.5241351E-001	-2.7037677E+002
3	0	8.349263901437371E+002	2.5221834E-001	-2.7040155E+002
3	0	8.354263901311060E+002	2.5201166E-001	-2.7036618E+002
3	0	8.359263901184750E+002	2.5178993E-001	-2.7036972E+002
3	0	8.364263901058439E+002	2.5156283E-001	-2.7036618E+002
3	0	8.369263900932128E+002	2.5137061E-001	-2.7037326E+002
3	0	8.374263900805818E+002	2.5119779E-001	-2.7037677E+002
3	0	8.379263900679507E+002	2.5102279E-001	-2.7038031E+002
3	0	8.384263900553196E+002	2.5084284E-001	-2.7038031E+002
3	0	8.389263900426886E+002	2.5066420E-001	-2.7035559E+002
3	0	8.394263900300575E+002	2.5048396E-001	-2.7038385E+002
3	0	8.399263900174265E+002	2.5028259E-001	-2.7038031E+002
3	0	8.404263900047954E+002	2.5007018E-001	-2.7039801E+002
3	0	8.409263899921643E+002	2.4989632E-001	-2.7038031E+002
3	0	8.414263899795333E+002	2.4974051E-001	-2.7039093E+002
3	0	8.419263899669022E+002	2.4958009E-001	-2.7039447E+002
3	0	8.424263899542711E+002	2.4941628E-001	-2.7035913E+002
3	0	8.429263899416401E+002	2.4925281E-001	-2.7038385E+002
3	0	8.434263899290090E+002	2.4907707E-001	-2.7038385E+002
3	0	8.439263899163780E+002	2.4888046E-001	-2.7034851E+002
3	0	8.444263899037469E+002	2.4867465E-001	-2.7039093E+002
3	0	8.449263898911158E+002	2.4850941E-001	-2.7039093E+002
3	0	8.454263898784848E+002	2.4835721E-001	-2.7038031E+002
3	0	8.459263898658537E+002	2.4821083E-001	-2.7036618E+002
3	0	8.464263898532226E+002	2.4805757E-001	-2.7036267E+002
3	0	8.469263898405916E+002	2.4791288E-001	-2.7036618E+002
3	0	8.474263898279605E+002	2.4775194E-001	-2.7037677E+002
3	0	8.479263898153295E+002	2.4757001E-001	-2.7037326E+002
3	0	8.484263898026984E+002	2.4737731E-001	-2.7036972E+002
3	0	8.489263897900673E+002	2.4722560E-001	-2.7037326E+002
3	0	8.494263897774363E+002	2.4709076E-001	-2.7038385E+002
3	0	8.499263897648052E+002	2.4695592E-001	-2.7036972E+002
3	0	8.504263897521741E+002	2.4681549E-001	-2.7038742E+002
3	0	8.509263897395431E+002	2.4668340E-001	-2.7037677E+002
3	0	8.514263897269120E+002	2.4654113E-001	-2.7040155E+002
3	0	8.519263897142810E+002	2.4637733E-001	-2.7039447E+002
3	0	8.524263897016499E+002	2.4619661E-001	-2.7037326E+002
3	0	8.529263896890188E+002	2.4606325E-001	-2.7039801E+002
3	0	8.534263896763878E+002	2.4594156E-001	-2.7038031E+002
3	0	8.539263896637567E+002	2.4582022E-001	-2.7037677E+002
3	0	8.544263896511256E+002	2.4569130E-001	-2.7037677E+002
3	0	8.549263896384946E+002	2.4557011E-001	-2.7038031E+002
3	0	8.554263896258635E+002	2.4543680E-001	-2.7039447E+002
3	0	8.559263896132325E+002	2.4528028E-001	-2.7039093E+002
3	0	8.564263896006014E+002	2.4511370E-001	-2.7039093E+002
3	0	8.569263895879703E+002	2.4498352E-001	-2.7036267E+002
3	0	8.574263895753393E+002	2.4486484E-001	-2.7036618E+002
3	0	8.579263895627082E+002	2.4475262E-001	-2.7038031E+002
3	0	8.584263895500771E+002	2.4463546E-001	-2.7038742E+002
3	0	8.589263895374461E+002	2.4451496E-001	-2.7038742E+002
3	0	8.594263895248150E+002	2.4438778E-001	-2.7039447E+002
3	0	8.599263895121840E+002	2.4424173E-001	-2.7038385E+002
3	0	8.604263894995529E+002	2.4408151E-001	-2.7038385E+002
3	0	8.609263894869218E+002	2.4395870E-001	-2.7037677E+002
3	0	8.614263894742908E+002	2.4384774E-001	-2.7036972E+002
3	0	8.619263894616597E+002	2.4373069E-001	-2.7036618E+002
3	0	8.624263894490286E+002	2.4361029E-001	-2.7036267E+002
3	0	8.629263894363976E+002	2.4349545E-001	-2.7035205E+002
3	0	8.634263894237665E+002	2.4337718E-001	-2.7037677E+002
3	0	8.639263894111355E+002	2.4322677E-001	-2.7038385E+002
3	0	8.644263893985044E+002	2.4307464E-001	-2.7039447E+002
3	0	8.649263893858733E+002	2.4296454E-001	-2.7037326E+002
3	0	8.654263893732423E+002	2.4286132E-001	-2.7039801E+002
3	0	8.659263893606112E+002	2.4276078E-001	-2.7039801E+002
3	0	8.664263893479801E+002	2.4265637E-001	-2.7038031E+002
3	0	8.669263893353491E+002	2.4254780E-001	-2.7037326E+002
3	0	8.674263893227180E+002	2.4243511E-001	-2.7038031E+002
3	0	8.679263893100870E+002	2.4229884E-001	-2.7036618E+002
3	0	8.684263892974559E+002	2.4215776E-001	-2.7038031E+002
3	0	8.689263892848248E+002	2.4205695E-001	-2.7040155E+002
3	0	8.694263892721938E+002	2.4196839E-001	-2.7036972E+002
3	0	8.699263892595627E+002	2.4187703E-001	-2.7035913E+002
3	0	8.704263892469316E+002	2.4177730E-001	-2.7036267E+002
3	0	8.709263892343006E+002	2.4168509E-001	-2.7037326E+002
3	0	8.714263892216695E+002	2.4158172E-001	-2.7038742E+002
3	0	8.719263892090385E+002	2.4145824E-001	-2.7036972E+002
3	0	8.724263891964074E+002	2.4132933E-001	-2.7039093E+002
3	0	8.729263891837763E+002	2.4123758E-001	-2.7038031E+002
3	0	8.734263891711453E+002	2.4114750E-001	-2.7037677E+002
3	0	8.739263891585142E+002	2.4105953E-001	-2.7038031E+002
3	0	8.744263891458831E+002	2.4097310E-001	-2.7036972E+002
3	0	8.749263891332521E+002	2.4088314E-001	-2.7038031E+002
3	0	8.754263891206210E+002	2.4079235E-001	-2.7038031E+002
3	0	8.759263891079900E+002	2.4067464E-001	-2.7037677E+002
3	0	8.764263890953589E+002	2.4054565E-001	-2.7038031E+002
3	0	8.769263890827278E+002	2.4045604E-001	-2.7036972E+002
3	0	8.774263890700968E+002	2.4037984E-001	-2.7037677E+002
3	0	8.779263890574657E+002	2.4029754E-001	-2.7037677E+002
3	0	8.784263890448347E+002	2.4021173E-001	-2.7036972E+002
3	0	8.789263890322036E+002	2.4013440E-001	-2.7039801E+002
3	0	8.794263890195725E+002	2.4003829E-001	-2.7039447E+002
3	0	8.799263890069415E+002	2.3992570E-001	-2.7037677E+002
3	0	8.804263889943104E+002	2.3980531E-001	-2.7039447E+002
3	0	8.809263889816793E+002	2.3972417E-001	-2.7037326E+002
3	0	8.814263889690483E+002	2.3964828E-001	-2.7038385E+002
3	0	8.819263889564172E+002	2.3957017E-001	-2.7035913E+002
3	0	8.824263889437862E+002	2.3949158E-001	-2.7037326E+002
3	0	8.829263889311551E+002	2.3941353E-001	-2.7039093E+002
3	0	8.834263889185240E+002	2.3932296E-001	-2.7036972E+002
3	0	8.839263889058930E+002	2.3920375E-001	-2.7037677E+002
3	0	8.844263888932619E+002	2.3908173E-001	-2.7036618E+002
3	0	8.849263888806308E+002	2.3899770E-001	-2.7038031E+002
3	0	8.854263888679998E+002	2.3891820E-001	-2.7036267E+002
3	0	8.859263888553687E+002	2.3883066E-001	-2.7036972E+002
3	0	8.864263888427377E+002	2.3875323E-001	-2.7039447E+002
3	0	8.869263888301066E+002	2.3866908E-001	-2.7039447E+002
3	0	8.874263888174755E+002	2.3858495E-001	-2.7039801E+002
3	0	8.879263888048445E+002	2.3847891E-001	-2.7036972E+002
3	0	8.884263887922134E+002	2.3836432E-001	-2.7036618E+002
3	0	8.889263887795823E+002	2.3828749E-001	-2.7037677E+002
3	0	8.894263887669513E+002	2.3821901E-001	-2.7038742E+002
3	0	8.894267887669412E+002	2.3824117E-001	-2.7038742E+002