EC-Lab ASCII FILE
Nb header lines : 55                          

Open Circuit Voltage

Run on channel : 1 (SN 81504)
User : 
CE vs. WE compliance from -10 V to 10 V
Electrode connection : standard
Potential control : Ewe
Ewe ctrl range : min = -2.50 V, max = 2.50 V
Safety Limits :
	Do not start on E overload
Acquisition started on : 05/07/2026 16:16:51.018
Loaded Setting File :  C:\PEM-WE_measurements\2026\372_IV_IV IrOx, 5 min Pt, 30 min C, etched cathode\new station\Loopeis new\1,46 V different time gaps open cell\Loopeis 1,46V_45s_5_PEIS from 65Hz to 10Hz.mps
Saved on :
	File : L_10_Loopeis 1,46V_45s_5_PEIS from 65Hz to 10Hz_20_OCV_C01.mpr
	Directory : C:\PEM-WE_measurements\2026\372_IV_IV IrOx, 5 min Pt, 30 min C, etched cathode\new station\Loopeis new\1,46 V different time gaps open cell\
	Host : 192.168.0.2
Device : SP-150e (SN .005491)
Address : 192.168.0.91
EC-LAB for windows v11.71 (software)
Internet server v28.00 (firmware)
Command interpretor v14.01 (firmware)
Electrode material : 
Initial state : 
Electrolyte : 
Comments : 
Current amplifier : SP-150eB-20A
Electrode surface area : 0.001 cm²
Characteristic mass : 0.001 g
Equivalent Weight : 0.000 g/eq.
Density : 0.000 g/cm3
Volume (V) : 0.001 cm³
Record Analogic IN 1
Text export
   Mode : Standard
   Time format : Elapsed
Cycle Definition : Charge/Discharge alternance
External device configuration :
   device type : Temperature Probe
   device name : Other
   Analog IN 1 : 
      unit : T/Â°C
      max : 100.000 at 2.000 V
      min : 0.000 at 1.460 V
tR (h:m:s)          0:00:45.0000        
dER/dt (mV/h)       1.0                 
record              <Ewe>               
dER (mV)            10.00               
dtR (s)             0.5000              
E range min (V)     -2.500              
E range max (V)     2.500               

mode	error	time/s	<Ewe/V>	Analog IN 1/V	
3	0	1.315263616597949E+003	1.2780017E+000	-2.7036972E+002
3	0	1.315763616585318E+003	1.2787271E+000	-2.7039093E+002
3	0	1.316263616572687E+003	1.2554789E+000	-2.7037326E+002
3	0	1.316763616560056E+003	1.2067387E+000	-2.7038385E+002
3	0	1.317263616547425E+003	1.0910028E+000	-2.7039447E+002
3	0	1.317763616534794E+003	6.6411531E-001	-2.7036267E+002
3	0	1.318263616522163E+003	4.0061602E-001	-2.7037326E+002
3	0	1.318763616509532E+003	3.5772717E-001	-2.7036618E+002
3	0	1.319263616496901E+003	3.4651306E-001	-2.7039093E+002
3	0	1.319763616484270E+003	3.3817872E-001	-2.7037677E+002
3	0	1.320263616471639E+003	3.3196202E-001	-2.7035559E+002
3	0	1.320763616459008E+003	3.2730311E-001	-2.7037326E+002
3	0	1.321263616446377E+003	3.2372463E-001	-2.7039447E+002
3	0	1.321763616433745E+003	3.2090336E-001	-2.7038385E+002
3	0	1.322263616421114E+003	3.1860682E-001	-2.7037677E+002
3	0	1.322763616408483E+003	3.1668055E-001	-2.7035205E+002
3	0	1.323263616395852E+003	3.1503874E-001	-2.7037326E+002
3	0	1.323763616383221E+003	3.1361425E-001	-2.7038385E+002
3	0	1.324263616370590E+003	3.1232050E-001	-2.7038031E+002
3	0	1.324763616357959E+003	3.1113976E-001	-2.7038031E+002
3	0	1.325263616345328E+003	3.1007949E-001	-2.7035205E+002
3	0	1.325763616332697E+003	3.0912614E-001	-2.7039447E+002
3	0	1.326263616320066E+003	3.0822545E-001	-2.7037326E+002
3	0	1.326763616307435E+003	3.0737948E-001	-2.7039093E+002
3	0	1.327263616294804E+003	3.0657509E-001	-2.7040155E+002
3	0	1.327763616282173E+003	3.0580741E-001	-2.7039801E+002
3	0	1.328263616269542E+003	3.0505225E-001	-2.7036267E+002
3	0	1.328763616256911E+003	3.0431163E-001	-2.7037677E+002
3	0	1.329263616244280E+003	3.0360028E-001	-2.7036618E+002
3	0	1.329763616231648E+003	3.0292669E-001	-2.7035205E+002
3	0	1.330263616219017E+003	3.0226347E-001	-2.7037326E+002
3	0	1.330763616206386E+003	3.0162162E-001	-2.7039447E+002
3	0	1.331263616193755E+003	3.0098876E-001	-2.7034851E+002
3	0	1.331763616181124E+003	3.0037189E-001	-2.7037677E+002
3	0	1.332263616168493E+003	2.9975802E-001	-2.7040860E+002
3	0	1.332763616155862E+003	2.9912621E-001	-2.7035913E+002
3	0	1.333263616143231E+003	2.9852736E-001	-2.7036972E+002
3	0	1.333763616130600E+003	2.9795361E-001	-2.7036267E+002
3	0	1.334263616117969E+003	2.9737791E-001	-2.7037326E+002
3	0	1.334763616105338E+003	2.9682046E-001	-2.7036972E+002
3	0	1.335263616092707E+003	2.9626426E-001	-2.7038031E+002
3	0	1.335763616080076E+003	2.9571304E-001	-2.7042627E+002
3	0	1.336263616067445E+003	2.9514998E-001	-2.7036972E+002
3	0	1.336763616054814E+003	2.9458794E-001	-2.7036972E+002
3	0	1.337263616042183E+003	2.9403669E-001	-2.7038742E+002
3	0	1.337763616029551E+003	2.9351532E-001	-2.7039447E+002
3	0	1.338263616016920E+003	2.9298851E-001	-2.7038742E+002
3	0	1.338763616004289E+003	2.9246482E-001	-2.7035559E+002
3	0	1.339263615991658E+003	2.9195517E-001	-2.7038742E+002
3	0	1.339763615979027E+003	2.9143971E-001	-2.7039447E+002
3	0	1.340263615966396E+003	2.9090944E-001	-2.7039447E+002
3	0	1.340763615953765E+003	2.9038483E-001	-2.7039447E+002
3	0	1.341263615941134E+003	2.8988478E-001	-2.7038742E+002
3	0	1.341763615928503E+003	2.8939664E-001	-2.7038742E+002
3	0	1.342263615915872E+003	2.8890830E-001	-2.7037326E+002
3	0	1.342763615903241E+003	2.8842664E-001	-2.7038031E+002
3	0	1.343263615890610E+003	2.8794789E-001	-2.7038031E+002
3	0	1.343763615877979E+003	2.8746971E-001	-2.7037677E+002
3	0	1.344263615865348E+003	2.8698671E-001	-2.7037677E+002
3	0	1.344763615852717E+003	2.8648531E-001	-2.7038742E+002
3	0	1.345263615840086E+003	2.8601462E-001	-2.7038031E+002
3	0	1.345763615827454E+003	2.8556556E-001	-2.7037677E+002
3	0	1.346263615814823E+003	2.8511199E-001	-2.7038031E+002
3	0	1.346763615802192E+003	2.8466773E-001	-2.7036618E+002
3	0	1.347263615789561E+003	2.8423011E-001	-2.7038742E+002
3	0	1.347763615776930E+003	2.8378424E-001	-2.7038031E+002
3	0	1.348263615764299E+003	2.8332758E-001	-2.7038385E+002
3	0	1.348763615751668E+003	2.8285766E-001	-2.7039093E+002
3	0	1.349263615739037E+003	2.8241745E-001	-2.7038742E+002
3	0	1.349763615726406E+003	2.8200528E-001	-2.7038742E+002
3	0	1.350263615713775E+003	2.8158361E-001	-2.7038385E+002
3	0	1.350763615701144E+003	2.8116649E-001	-2.7036267E+002
3	0	1.351263615688513E+003	2.8076005E-001	-2.7036972E+002
3	0	1.351763615675882E+003	2.8035784E-001	-2.7036972E+002
3	0	1.352263615663251E+003	2.7994439E-001	-2.7037677E+002
3	0	1.352763615650620E+003	2.7950397E-001	-2.7037326E+002
3	0	1.353263615637989E+003	2.7910116E-001	-2.7037677E+002
3	0	1.353763615625357E+003	2.7872223E-001	-2.7039447E+002
3	0	1.354263615612726E+003	2.7833575E-001	-2.7037677E+002
3	0	1.354763615600095E+003	2.7795351E-001	-2.7037677E+002
3	0	1.355263615587464E+003	2.7757788E-001	-2.7039093E+002
3	0	1.355763615574833E+003	2.7720276E-001	-2.7038031E+002
3	0	1.356263615562202E+003	2.7681762E-001	-2.7035913E+002
3	0	1.356763615549571E+003	2.7641720E-001	-2.7039447E+002
3	0	1.357263615536940E+003	2.7604234E-001	-2.7038385E+002
3	0	1.357763615524309E+003	2.7569944E-001	-2.7037677E+002
3	0	1.358263615511678E+003	2.7534953E-001	-2.7037326E+002
3	0	1.358763615499047E+003	2.7501032E-001	-2.7036267E+002
3	0	1.359263615486416E+003	2.7465868E-001	-2.7037326E+002
3	0	1.359763615473785E+003	2.7429414E-001	-2.7038742E+002
3	0	1.359788215473163E+003	2.7410784E-001	-2.7039447E+002