EC-Lab ASCII FILE
Nb header lines : 55                          

Open Circuit Voltage

Run on channel : 1 (SN 81504)
User : 
CE vs. WE compliance from -10 V to 10 V
Electrode connection : standard
Potential control : Ewe
Ewe ctrl range : min = -2.50 V, max = 2.50 V
Safety Limits :
	Do not start on E overload
Acquisition started on : 05/07/2026 14:29:10.843
Loaded Setting File :  C:\PEM-WE_measurements\2026\372_IV_IV IrOx, 5 min Pt, 30 min C, etched cathode\new station\Loopeis new\1,46 V different time gaps open cell\Loopeis 1,46V_30s_3_PEIS from 6500Hz to 1000Hz.mps
Saved on :
	File : L_03_Loopeis 1,46V_30s_3_PEIS from 6500Hz to 1000Hz_14_OCV_C01.mpr
	Directory : C:\PEM-WE_measurements\2026\372_IV_IV IrOx, 5 min Pt, 30 min C, etched cathode\new station\Loopeis new\1,46 V different time gaps open cell\
	Host : 192.168.0.2
Device : SP-150e (SN .005491)
Address : 192.168.0.91
EC-LAB for windows v11.71 (software)
Internet server v28.00 (firmware)
Command interpretor v14.01 (firmware)
Electrode material : 
Initial state : 
Electrolyte : 
Comments : 
Current amplifier : SP-150eB-20A
Electrode surface area : 0.001 cm²
Characteristic mass : 0.001 g
Equivalent Weight : 0.000 g/eq.
Density : 0.000 g/cm3
Volume (V) : 0.001 cm³
Record Analogic IN 1
Text export
   Mode : Standard
   Time format : Elapsed
Cycle Definition : Charge/Discharge alternance
External device configuration :
   device type : Temperature Probe
   device name : Other
   Analog IN 1 : 
      unit : T/Â°C
      max : 100.000 at 2.000 V
      min : 0.000 at 1.460 V
tR (h:m:s)          0:00:30.0000        
dER/dt (mV/h)       1.0                 
record              <Ewe>               
dER (mV)            10.00               
dtR (s)             0.5000              
E range min (V)     -2.500              
E range max (V)     2.500               

mode	error	time/s	<Ewe/V>	Analog IN 1/V	
3	0	4.978421974160301E+002	1.2654170E+000	-2.7037326E+002
3	0	4.983421974033990E+002	1.2506087E+000	-2.7038031E+002
3	0	4.988421973907680E+002	1.1770033E+000	-2.7038031E+002
3	0	4.993421973781369E+002	9.3895417E-001	-2.7038385E+002
3	0	4.998421973655059E+002	4.7382799E-001	-2.7038031E+002
3	0	5.003421973528748E+002	3.5291597E-001	-2.7039447E+002
3	0	5.008421973402437E+002	3.3734351E-001	-2.7038385E+002
3	0	5.013421973276127E+002	3.2887927E-001	-2.7040860E+002
3	0	5.018421973149816E+002	3.2215863E-001	-2.7037677E+002
3	0	5.023421973023505E+002	3.1708974E-001	-2.7036972E+002
3	0	5.028421972897195E+002	3.1327122E-001	-2.7036972E+002
3	0	5.033421972770884E+002	3.1031531E-001	-2.7036618E+002
3	0	5.038421972644574E+002	3.0795467E-001	-2.7037677E+002
3	0	5.043421972518263E+002	3.0601096E-001	-2.7036618E+002
3	0	5.048421972391952E+002	3.0437160E-001	-2.7037326E+002
3	0	5.053421972265642E+002	3.0294228E-001	-2.7038742E+002
3	0	5.058421972139331E+002	3.0166689E-001	-2.7036972E+002
3	0	5.063421972013020E+002	3.0054498E-001	-2.7038742E+002
3	0	5.068421971886710E+002	2.9955631E-001	-2.7040506E+002
3	0	5.073421971760399E+002	2.9865727E-001	-2.7037326E+002
3	0	5.078421971634089E+002	2.9781222E-001	-2.7038385E+002
3	0	5.083421971507778E+002	2.9702008E-001	-2.7038031E+002
3	0	5.088421971381467E+002	2.9627120E-001	-2.7036267E+002
3	0	5.093421971255157E+002	2.9553136E-001	-2.7036618E+002
3	0	5.098421971128846E+002	2.9480949E-001	-2.7038742E+002
3	0	5.103421971002535E+002	2.9412889E-001	-2.7037326E+002
3	0	5.108421970876225E+002	2.9350737E-001	-2.7038742E+002
3	0	5.113421970749914E+002	2.9289967E-001	-2.7037326E+002
3	0	5.118421970623604E+002	2.9229721E-001	-2.7038742E+002
3	0	5.123421970497293E+002	2.9171383E-001	-2.7036972E+002
3	0	5.128421970370982E+002	2.9112425E-001	-2.7036972E+002
3	0	5.133421970244672E+002	2.9053143E-001	-2.7036972E+002
3	0	5.138421970118361E+002	2.8992674E-001	-2.7039447E+002
3	0	5.143421969992050E+002	2.8934616E-001	-2.7037677E+002
3	0	5.148421969865740E+002	2.8881109E-001	-2.7036618E+002
3	0	5.153421969739429E+002	2.8828397E-001	-2.7036972E+002
3	0	5.158421969613119E+002	2.8775591E-001	-2.7035913E+002
3	0	5.163421969486808E+002	2.8722712E-001	-2.7037326E+002
3	0	5.168421969360497E+002	2.8670421E-001	-2.7038031E+002
3	0	5.173421969234187E+002	2.8616339E-001	-2.7039093E+002
3	0	5.178421969107876E+002	2.8561282E-001	-2.7036267E+002
3	0	5.183421968981565E+002	2.8507835E-001	-2.7038031E+002
3	0	5.188421968855255E+002	2.8458226E-001	-2.7038031E+002
3	0	5.193421968728944E+002	2.8409091E-001	-2.7036972E+002
3	0	5.198421968602634E+002	2.8359631E-001	-2.7038031E+002
3	0	5.203421968476323E+002	2.8310814E-001	-2.7036267E+002
3	0	5.208421968350012E+002	2.8261644E-001	-2.7036267E+002
3	0	5.213421968223702E+002	2.8212240E-001	-2.7036972E+002
3	0	5.218421968097391E+002	2.8160110E-001	-2.7041568E+002
3	0	5.223421967971080E+002	2.8110194E-001	-2.7037677E+002
3	0	5.228421967844770E+002	2.8063703E-001	-2.7035913E+002
3	0	5.233421967718459E+002	2.8017431E-001	-2.7038385E+002
3	0	5.238421967592149E+002	2.7971578E-001	-2.7039447E+002
3	0	5.243421967465838E+002	2.7925768E-001	-2.7036972E+002
3	0	5.248421967339527E+002	2.7880299E-001	-2.7039093E+002
3	0	5.253421967213217E+002	2.7833524E-001	-2.7037677E+002
3	0	5.258421967086906E+002	2.7785069E-001	-2.7037677E+002
3	0	5.263421966960595E+002	2.7738523E-001	-2.7039801E+002
3	0	5.268421966834285E+002	2.7696303E-001	-2.7037677E+002
3	0	5.273421966707974E+002	2.7653894E-001	-2.7038385E+002
3	0	5.273425966707873E+002	2.7628484E-001	-2.7036618E+002