EC-Lab ASCII FILE
Nb header lines : 55                          

Open Circuit Voltage

Run on channel : 1 (SN 81504)
User : 
CE vs. WE compliance from -10 V to 10 V
Electrode connection : standard
Potential control : Ewe
Ewe ctrl range : min = -2.50 V, max = 2.50 V
Safety Limits :
	Do not start on E overload
Acquisition started on : 05/07/2026 16:01:37.735
Loaded Setting File :  C:\PEM-WE_measurements\2026\372_IV_IV IrOx, 5 min Pt, 30 min C, etched cathode\new station\Loopeis new\1,46 V different time gaps open cell\Loopeis 1,46V_45s_4_PEIS from 650Hz to 100Hz.mps
Saved on :
	File : L_09_Loopeis 1,46V_45s_4_PEIS from 650Hz to 100Hz_12_OCV_C01.mpr
	Directory : C:\PEM-WE_measurements\2026\372_IV_IV IrOx, 5 min Pt, 30 min C, etched cathode\new station\Loopeis new\1,46 V different time gaps open cell\
	Host : 192.168.0.2
Device : SP-150e (SN .005491)
Address : 192.168.0.91
EC-LAB for windows v11.71 (software)
Internet server v28.00 (firmware)
Command interpretor v14.01 (firmware)
Electrode material : 
Initial state : 
Electrolyte : 
Comments : 
Current amplifier : SP-150eB-20A
Electrode surface area : 0.001 cm²
Characteristic mass : 0.001 g
Equivalent Weight : 0.000 g/eq.
Density : 0.000 g/cm3
Volume (V) : 0.001 cm³
Record Analogic IN 1
Text export
   Mode : Standard
   Time format : Elapsed
Cycle Definition : Charge/Discharge alternance
External device configuration :
   device type : Temperature Probe
   device name : Other
   Analog IN 1 : 
      unit : T/Â°C
      max : 100.000 at 2.000 V
      min : 0.000 at 1.460 V
tR (h:m:s)          0:00:45.0000        
dER/dt (mV/h)       1.0                 
record              <Ewe>               
dER (mV)            10.00               
dtR (s)             0.5000              
E range min (V)     -2.500              
E range max (V)     2.500               

mode	error	time/s	<Ewe/V>	Analog IN 1/V	
3	0	4.976299974077847E+002	1.0680726E+000	-2.7037677E+002
3	0	4.981299973951536E+002	1.2261739E+000	-2.7037326E+002
3	0	4.986299973825226E+002	1.1916994E+000	-2.7040155E+002
3	0	4.991299973698915E+002	1.1155567E+000	-2.7038031E+002
3	0	4.996299973572604E+002	8.4941888E-001	-2.7035205E+002
3	0	5.001299973446294E+002	4.3178093E-001	-2.7040860E+002
3	0	5.006299973319983E+002	3.3189109E-001	-2.7039801E+002
3	0	5.011299973193672E+002	3.1898439E-001	-2.7038031E+002
3	0	5.016299973067362E+002	3.1096303E-001	-2.7036618E+002
3	0	5.021299972941051E+002	3.0447021E-001	-2.7038031E+002
3	0	5.026299972814741E+002	2.9948053E-001	-2.7035913E+002
3	0	5.031299972688430E+002	2.9567638E-001	-2.7038385E+002
3	0	5.036299972562119E+002	2.9270899E-001	-2.7037326E+002
3	0	5.041299972435809E+002	2.9031959E-001	-2.7039447E+002
3	0	5.046299972309498E+002	2.8835443E-001	-2.7039093E+002
3	0	5.051299972183187E+002	2.8669640E-001	-2.7039801E+002
3	0	5.056299972056877E+002	2.8526327E-001	-2.7036618E+002
3	0	5.061299971930566E+002	2.8399384E-001	-2.7036267E+002
3	0	5.066299971804256E+002	2.8284454E-001	-2.7038385E+002
3	0	5.071299971677945E+002	2.8183994E-001	-2.7039093E+002
3	0	5.076299971551634E+002	2.8092331E-001	-2.7036618E+002
3	0	5.081299971425324E+002	2.8008536E-001	-2.7037677E+002
3	0	5.086299971299013E+002	2.7929750E-001	-2.7038742E+002
3	0	5.091299971172703E+002	2.7855408E-001	-2.7039447E+002
3	0	5.096299971046392E+002	2.7783465E-001	-2.7037677E+002
3	0	5.101299970920081E+002	2.7712655E-001	-2.7038385E+002
3	0	5.106299970793771E+002	2.7642962E-001	-2.7037677E+002
3	0	5.111299970667460E+002	2.7578583E-001	-2.7040860E+002
3	0	5.116299970541149E+002	2.7517053E-001	-2.7037326E+002
3	0	5.121299970414839E+002	2.7458134E-001	-2.7037326E+002
3	0	5.126299970288528E+002	2.7399656E-001	-2.7038385E+002
3	0	5.131299970162218E+002	2.7342236E-001	-2.7036618E+002
3	0	5.136299970035907E+002	2.7284443E-001	-2.7037677E+002
3	0	5.141299969909596E+002	2.7227035E-001	-2.7036267E+002
3	0	5.146299969783286E+002	2.7168083E-001	-2.7037326E+002
3	0	5.151299969656975E+002	2.7113339E-001	-2.7038385E+002
3	0	5.156299969530664E+002	2.7060780E-001	-2.7036972E+002
3	0	5.161299969404354E+002	2.7008361E-001	-2.7036972E+002
3	0	5.166299969278043E+002	2.6957494E-001	-2.7037677E+002
3	0	5.171299969151733E+002	2.6906642E-001	-2.7037677E+002
3	0	5.176299969025422E+002	2.6855057E-001	-2.7036972E+002
3	0	5.181299968899111E+002	2.6802009E-001	-2.7038385E+002
3	0	5.186299968772801E+002	2.6747823E-001	-2.7039447E+002
3	0	5.191299968646490E+002	2.6697731E-001	-2.7038742E+002
3	0	5.196299968520179E+002	2.6648843E-001	-2.7038385E+002
3	0	5.201299968393869E+002	2.6600727E-001	-2.7039801E+002
3	0	5.206299968267558E+002	2.6553020E-001	-2.7037326E+002
3	0	5.211299968141248E+002	2.6504564E-001	-2.7036618E+002
3	0	5.216299968014937E+002	2.6456958E-001	-2.7038031E+002
3	0	5.221299967888626E+002	2.6407540E-001	-2.7036618E+002
3	0	5.226299967762316E+002	2.6357090E-001	-2.7036972E+002
3	0	5.231299967636005E+002	2.6310644E-001	-2.7038742E+002
3	0	5.236299967509694E+002	2.6265103E-001	-2.7036972E+002
3	0	5.241299967383384E+002	2.6220307E-001	-2.7037677E+002
3	0	5.246299967257073E+002	2.6175404E-001	-2.7040155E+002
3	0	5.251299967130763E+002	2.6130393E-001	-2.7038031E+002
3	0	5.256299967004452E+002	2.6085237E-001	-2.7037677E+002
3	0	5.261299966878141E+002	2.6037985E-001	-2.7038742E+002
3	0	5.266299966751831E+002	2.5991029E-001	-2.7037677E+002
3	0	5.271299966625520E+002	2.5947565E-001	-2.7037677E+002
3	0	5.276299966499209E+002	2.5906089E-001	-2.7038385E+002
3	0	5.281299966372899E+002	2.5864071E-001	-2.7037677E+002
3	0	5.286299966246588E+002	2.5822416E-001	-2.7037326E+002
3	0	5.291299966120278E+002	2.5780582E-001	-2.7034851E+002
3	0	5.296299965993967E+002	2.5738528E-001	-2.7036267E+002
3	0	5.301299965867656E+002	2.5694218E-001	-2.7036618E+002
3	0	5.306299965741346E+002	2.5649774E-001	-2.7037326E+002
3	0	5.311299965615035E+002	2.5609478E-001	-2.7035559E+002
3	0	5.316299965488724E+002	2.5569826E-001	-2.7039093E+002
3	0	5.321299965362414E+002	2.5530487E-001	-2.7035205E+002
3	0	5.326299965236103E+002	2.5491610E-001	-2.7037326E+002
3	0	5.331299965109793E+002	2.5453424E-001	-2.7036618E+002
3	0	5.336299964983482E+002	2.5414404E-001	-2.7038031E+002
3	0	5.341299964857171E+002	2.5373790E-001	-2.7036267E+002
3	0	5.346299964730861E+002	2.5332117E-001	-2.7036267E+002
3	0	5.351299964604550E+002	2.5294945E-001	-2.7036267E+002
3	0	5.356299964478239E+002	2.5258598E-001	-2.7038031E+002
3	0	5.361299964351929E+002	2.5222975E-001	-2.7038385E+002
3	0	5.366299964225618E+002	2.5187218E-001	-2.7036267E+002
3	0	5.371299964099308E+002	2.5151670E-001	-2.7038742E+002
3	0	5.376299963972997E+002	2.5115836E-001	-2.7037677E+002
3	0	5.381299963846686E+002	2.5077933E-001	-2.7038385E+002
3	0	5.386299963720376E+002	2.5039655E-001	-2.7040506E+002
3	0	5.391299963594065E+002	2.5004676E-001	-2.7038742E+002
3	0	5.396299963467754E+002	2.4972291E-001	-2.7039801E+002
3	0	5.401299963341444E+002	2.4939571E-001	-2.7037677E+002
3	0	5.406299963215133E+002	2.4906740E-001	-2.7034143E+002
3	0	5.411299963088823E+002	2.4873798E-001	-2.7037326E+002
3	0	5.416299962962512E+002	2.4840386E-001	-2.7038385E+002
3	0	5.421299962836201E+002	2.4805489E-001	-2.7036267E+002
3	0	5.421545962829987E+002	2.4786516E-001	-2.7040860E+002