EC-Lab ASCII FILE
Nb header lines : 55                          

Open Circuit Voltage

Run on channel : 1 (SN 81504)
User : 
CE vs. WE compliance from -10 V to 10 V
Electrode connection : standard
Potential control : Ewe
Ewe ctrl range : min = -2.50 V, max = 2.50 V
Safety Limits :
	Do not start on E overload
Acquisition started on : 05/07/2026 14:54:34.266
Loaded Setting File :  C:\PEM-WE_measurements\2026\372_IV_IV IrOx, 5 min Pt, 30 min C, etched cathode\new station\Loopeis new\1,46 V different time gaps open cell\Loopeis 1,46V_30s_5_PEIS from 65Hz to 10Hz.mps
Saved on :
	File : L_05_Loopeis 1,46V_30s_5_PEIS from 65Hz to 10Hz_18_OCV_C01.mpr
	Directory : C:\PEM-WE_measurements\2026\372_IV_IV IrOx, 5 min Pt, 30 min C, etched cathode\new station\Loopeis new\1,46 V different time gaps open cell\
	Host : 192.168.0.2
Device : SP-150e (SN .005491)
Address : 192.168.0.91
EC-LAB for windows v11.71 (software)
Internet server v28.00 (firmware)
Command interpretor v14.01 (firmware)
Electrode material : 
Initial state : 
Electrolyte : 
Comments : 
Current amplifier : SP-150eB-20A
Electrode surface area : 0.001 cm²
Characteristic mass : 0.001 g
Equivalent Weight : 0.000 g/eq.
Density : 0.000 g/cm3
Volume (V) : 0.001 cm³
Record Analogic IN 1
Text export
   Mode : Standard
   Time format : Elapsed
Cycle Definition : Charge/Discharge alternance
External device configuration :
   device type : Temperature Probe
   device name : Other
   Analog IN 1 : 
      unit : T/Â°C
      max : 100.000 at 2.000 V
      min : 0.000 at 1.460 V
tR (h:m:s)          0:00:30.0000        
dER/dt (mV/h)       1.0                 
record              <Ewe>               
dER (mV)            10.00               
dtR (s)             0.5000              
E range min (V)     -2.500              
E range max (V)     2.500               

mode	error	time/s	<Ewe/V>	Analog IN 1/V	
3	0	1.100790018414627E+003	1.2768441E+000	-2.7035205E+002
3	0	1.101290018401996E+003	1.2710843E+000	-2.7038031E+002
3	0	1.101790018389365E+003	1.2335341E+000	-2.7040155E+002
3	0	1.102290018376734E+003	1.1564113E+000	-2.7037326E+002
3	0	1.102790018364103E+003	8.9057398E-001	-2.7038385E+002
3	0	1.103290018351472E+003	4.5629954E-001	-2.7035205E+002
3	0	1.103790018338841E+003	3.5610607E-001	-2.7038742E+002
3	0	1.104290018326210E+003	3.4172377E-001	-2.7039093E+002
3	0	1.104790018313579E+003	3.3286390E-001	-2.7039447E+002
3	0	1.105290018300948E+003	3.2601753E-001	-2.7036618E+002
3	0	1.105790018288317E+003	3.2089064E-001	-2.7039801E+002
3	0	1.106290018275686E+003	3.1700569E-001	-2.7037326E+002
3	0	1.106790018263055E+003	3.1400716E-001	-2.7037326E+002
3	0	1.107290018250424E+003	3.1161156E-001	-2.7039093E+002
3	0	1.107790018237793E+003	3.0962643E-001	-2.7037677E+002
3	0	1.108290018225161E+003	3.0796236E-001	-2.7038385E+002
3	0	1.108790018212530E+003	3.0652073E-001	-2.7038742E+002
3	0	1.109290018199899E+003	3.0525109E-001	-2.7036618E+002
3	0	1.109790018187268E+003	3.0410007E-001	-2.7036618E+002
3	0	1.110290018174637E+003	3.0303434E-001	-2.7036972E+002
3	0	1.110790018162006E+003	3.0209798E-001	-2.7035913E+002
3	0	1.111290018149375E+003	3.0122566E-001	-2.7039447E+002
3	0	1.111790018136744E+003	3.0040225E-001	-2.7035913E+002
3	0	1.112290018124113E+003	2.9962733E-001	-2.7039447E+002
3	0	1.112790018111482E+003	2.9888892E-001	-2.7035559E+002
3	0	1.113290018098851E+003	2.9817963E-001	-2.7040155E+002
3	0	1.113790018086220E+003	2.9746893E-001	-2.7038031E+002
3	0	1.114290018073589E+003	2.9677075E-001	-2.7038385E+002
3	0	1.114790018060958E+003	2.9612216E-001	-2.7037677E+002
3	0	1.115290018048327E+003	2.9549694E-001	-2.7036618E+002
3	0	1.115790018035696E+003	2.9488158E-001	-2.7037677E+002
3	0	1.116290018023064E+003	2.9428503E-001	-2.7038031E+002
3	0	1.116790018010433E+003	2.9370162E-001	-2.7040155E+002
3	0	1.117290017997802E+003	2.9311979E-001	-2.7037326E+002
3	0	1.117790017985171E+003	2.9252362E-001	-2.7039093E+002
3	0	1.118290017972540E+003	2.9192948E-001	-2.7036972E+002
3	0	1.118790017959909E+003	2.9136941E-001	-2.7038031E+002
3	0	1.119290017947278E+003	2.9081580E-001	-2.7037326E+002
3	0	1.119790017934647E+003	2.9027131E-001	-2.7038385E+002
3	0	1.120290017922016E+003	2.8973380E-001	-2.7039093E+002
3	0	1.120790017909385E+003	2.8921124E-001	-2.7035205E+002
3	0	1.121290017896754E+003	2.8868923E-001	-2.7040506E+002
3	0	1.121790017884123E+003	2.8814813E-001	-2.7038031E+002
3	0	1.122290017871492E+003	2.8759581E-001	-2.7039801E+002
3	0	1.122790017858861E+003	2.8709400E-001	-2.7036618E+002
3	0	1.123290017846230E+003	2.8658435E-001	-2.7041214E+002
3	0	1.123790017833599E+003	2.8607443E-001	-2.7036972E+002
3	0	1.124290017820967E+003	2.8558218E-001	-2.7039447E+002
3	0	1.124790017808336E+003	2.8509006E-001	-2.7040506E+002
3	0	1.125290017795705E+003	2.8459617E-001	-2.7037677E+002
3	0	1.125790017783074E+003	2.8409231E-001	-2.7037677E+002
3	0	1.126290017770443E+003	2.8357348E-001	-2.7035205E+002
3	0	1.126790017757812E+003	2.8309926E-001	-2.7039447E+002
3	0	1.127290017745181E+003	2.8263161E-001	-2.7038385E+002
3	0	1.127790017732550E+003	2.8216702E-001	-2.7036972E+002
3	0	1.128290017719919E+003	2.8170633E-001	-2.7036267E+002
3	0	1.128790017707288E+003	2.8125119E-001	-2.7038742E+002
3	0	1.129290017694657E+003	2.8078908E-001	-2.7037677E+002
3	0	1.129790017682026E+003	2.8031617E-001	-2.7036972E+002
3	0	1.130290017669395E+003	2.7983561E-001	-2.7039801E+002
3	0	1.130290417669385E+003	2.7958634E-001	-2.7039093E+002