EC-Lab ASCII FILE
Nb header lines : 55                          

Open Circuit Voltage

Run on channel : 1 (SN 81504)
User : 
CE vs. WE compliance from -10 V to 10 V
Electrode connection : standard
Potential control : Ewe
Ewe ctrl range : min = -2.50 V, max = 2.50 V
Safety Limits :
	Do not start on E overload
Acquisition started on : 05/07/2026 21:45:35.104
Loaded Setting File :  C:\PEM-WE_measurements\2026\372_IV_IV IrOx, 5 min Pt, 30 min C, etched cathode\new station\Loopeis new\1,46 V different time gaps open cell\Loopeis 1,46V_120s_4_PEIS from 650Hz to 100Hz.mps
Saved on :
	File : L_24_Loopeis 1,46V_120s_4_PEIS from 650Hz to 100Hz_14_OCV_C01.mpr
	Directory : C:\PEM-WE_measurements\2026\372_IV_IV IrOx, 5 min Pt, 30 min C, etched cathode\new station\Loopeis new\1,46 V different time gaps open cell\
	Host : 192.168.0.2
Device : SP-150e (SN .005491)
Address : 192.168.0.91
EC-LAB for windows v11.71 (software)
Internet server v28.00 (firmware)
Command interpretor v14.01 (firmware)
Electrode material : 
Initial state : 
Electrolyte : 
Comments : 
Current amplifier : SP-150eB-20A
Electrode surface area : 0.001 cm²
Characteristic mass : 0.001 g
Equivalent Weight : 0.000 g/eq.
Density : 0.000 g/cm3
Volume (V) : 0.001 cm³
Record Analogic IN 1
Text export
   Mode : Standard
   Time format : Elapsed
Cycle Definition : Charge/Discharge alternance
External device configuration :
   device type : Temperature Probe
   device name : Other
   Analog IN 1 : 
      unit : T/Â°C
      max : 100.000 at 2.000 V
      min : 0.000 at 1.460 V
tR (h:m:s)          0:02:0.0000         
dER/dt (mV/h)       1.0                 
record              <Ewe>               
dER (mV)            10.00               
dtR (s)             0.5000              
E range min (V)     -2.500              
E range max (V)     2.500               

mode	error	time/s	<Ewe/V>	Analog IN 1/V	
3	0	1.037644183765078E+003	1.2268815E+000	-2.7036972E+002
3	0	1.038144183752447E+003	1.1836417E+000	-2.7034851E+002
3	0	1.038644183739816E+003	8.7267661E-001	-2.7038385E+002
3	0	1.039144183727185E+003	4.4408098E-001	-2.7038742E+002
3	0	1.039644183714554E+003	3.4601665E-001	-2.7037677E+002
3	0	1.040144183701923E+003	3.3256054E-001	-2.7037326E+002
3	0	1.040644183689292E+003	3.2466260E-001	-2.7039093E+002
3	0	1.041144183676661E+003	3.1836966E-001	-2.7037677E+002
3	0	1.041644183664030E+003	3.1354687E-001	-2.7038031E+002
3	0	1.042144183651399E+003	3.0984041E-001	-2.7036267E+002
3	0	1.042644183638768E+003	3.0691710E-001	-2.7037326E+002
3	0	1.043144183626137E+003	3.0452991E-001	-2.7036972E+002
3	0	1.043644183613505E+003	3.0254659E-001	-2.7037677E+002
3	0	1.044144183600874E+003	3.0088869E-001	-2.7038742E+002
3	0	1.044644183588243E+003	2.9946715E-001	-2.7034851E+002
3	0	1.045144183575612E+003	2.9822192E-001	-2.7038031E+002
3	0	1.045644183562981E+003	2.9710275E-001	-2.7039801E+002
3	0	1.046144183550350E+003	2.9608473E-001	-2.7036267E+002
3	0	1.046644183537719E+003	2.9513842E-001	-2.7037326E+002
3	0	1.047144183525088E+003	2.9424039E-001	-2.7037677E+002
3	0	1.047644183512457E+003	2.9339340E-001	-2.7038742E+002
3	0	1.048144183499826E+003	2.9261220E-001	-2.7036267E+002
3	0	1.048644183487195E+003	2.9188406E-001	-2.7039801E+002
3	0	1.049144183474564E+003	2.9118380E-001	-2.7036972E+002
3	0	1.049644183461933E+003	2.9050571E-001	-2.7038742E+002
3	0	1.050144183449302E+003	2.8985223E-001	-2.7038385E+002
3	0	1.050644183436671E+003	2.8920889E-001	-2.7037677E+002
3	0	1.051144183424040E+003	2.8856978E-001	-2.7035205E+002
3	0	1.051644183411408E+003	2.8792804E-001	-2.7038031E+002
3	0	1.052144183398777E+003	2.8732926E-001	-2.7037326E+002
3	0	1.052644183386146E+003	2.8675297E-001	-2.7038031E+002
3	0	1.053144183373515E+003	2.8618762E-001	-2.7039093E+002
3	0	1.053644183360884E+003	2.8563732E-001	-2.7038031E+002
3	0	1.054144183348253E+003	2.8508821E-001	-2.7040506E+002
3	0	1.054644183335622E+003	2.8453687E-001	-2.7040155E+002
3	0	1.055144183322991E+003	2.8397742E-001	-2.7039447E+002
3	0	1.055644183310360E+003	2.8340387E-001	-2.7035559E+002
3	0	1.056144183297729E+003	2.8287363E-001	-2.7038385E+002
3	0	1.056644183285098E+003	2.8237003E-001	-2.7039093E+002
3	0	1.057144183272467E+003	2.8186285E-001	-2.7039447E+002
3	0	1.057644183259836E+003	2.8136128E-001	-2.7037326E+002
3	0	1.058144183247205E+003	2.8086761E-001	-2.7038031E+002
3	0	1.058644183234574E+003	2.8036562E-001	-2.7039093E+002
3	0	1.059144183221943E+003	2.7984720E-001	-2.7038742E+002
3	0	1.059644183209311E+003	2.7933818E-001	-2.7038385E+002
3	0	1.060144183196680E+003	2.7885920E-001	-2.7038742E+002
3	0	1.060644183184049E+003	2.7838615E-001	-2.7037326E+002
3	0	1.061144183171418E+003	2.7792773E-001	-2.7037677E+002
3	0	1.061644183158787E+003	2.7746826E-001	-2.7036972E+002
3	0	1.062144183146156E+003	2.7700761E-001	-2.7037326E+002
3	0	1.062644183133525E+003	2.7654549E-001	-2.7035913E+002
3	0	1.063144183120894E+003	2.7606291E-001	-2.7038031E+002
3	0	1.063644183108263E+003	2.7558437E-001	-2.7038385E+002
3	0	1.064144183095632E+003	2.7514213E-001	-2.7036267E+002
3	0	1.064644183083001E+003	2.7471864E-001	-2.7037677E+002
3	0	1.065144183070370E+003	2.7429935E-001	-2.7038742E+002
3	0	1.065644183057739E+003	2.7387539E-001	-2.7039447E+002
3	0	1.066144183045108E+003	2.7345535E-001	-2.7039093E+002
3	0	1.066644183032477E+003	2.7302480E-001	-2.7039801E+002
3	0	1.067144183019846E+003	2.7257797E-001	-2.7037677E+002
3	0	1.067644183007214E+003	2.7213597E-001	-2.7038031E+002
3	0	1.068144182994583E+003	2.7173117E-001	-2.7038385E+002
3	0	1.068644182981952E+003	2.7132669E-001	-2.7039093E+002
3	0	1.069144182969321E+003	2.7093601E-001	-2.7036267E+002
3	0	1.069644182956690E+003	2.7054554E-001	-2.7041214E+002
3	0	1.070144182944059E+003	2.7015176E-001	-2.7039093E+002
3	0	1.070644182931428E+003	2.6976064E-001	-2.7039447E+002
3	0	1.071144182918797E+003	2.6935294E-001	-2.7040155E+002
3	0	1.071644182906166E+003	2.6893875E-001	-2.7038385E+002
3	0	1.072144182893535E+003	2.6856637E-001	-2.7037677E+002
3	0	1.072644182880904E+003	2.6820624E-001	-2.7037326E+002
3	0	1.073144182868273E+003	2.6784286E-001	-2.7038742E+002
3	0	1.073644182855642E+003	2.6748261E-001	-2.7036972E+002
3	0	1.074144182843011E+003	2.6712382E-001	-2.7037326E+002
3	0	1.074644182830380E+003	2.6676041E-001	-2.7038385E+002
3	0	1.075144182817749E+003	2.6637822E-001	-2.7038385E+002
3	0	1.075644182805117E+003	2.6599574E-001	-2.7035205E+002
3	0	1.076144182792486E+003	2.6565659E-001	-2.7040155E+002
3	0	1.076644182779855E+003	2.6532209E-001	-2.7036972E+002
3	0	1.077144182767224E+003	2.6499543E-001	-2.7036267E+002
3	0	1.077644182754593E+003	2.6467130E-001	-2.7038742E+002
3	0	1.078144182741962E+003	2.6434991E-001	-2.7038031E+002
3	0	1.078644182729331E+003	2.6401475E-001	-2.7036618E+002
3	0	1.079144182716700E+003	2.6366371E-001	-2.7036972E+002
3	0	1.079644182704069E+003	2.6331306E-001	-2.7039447E+002
3	0	1.080144182691438E+003	2.6299337E-001	-2.7038385E+002
3	0	1.080644182678807E+003	2.6268944E-001	-2.7040155E+002
3	0	1.081144182666176E+003	2.6238707E-001	-2.7036618E+002
3	0	1.081644182653545E+003	2.6208466E-001	-2.7036618E+002
3	0	1.082144182640914E+003	2.6178476E-001	-2.7039093E+002
3	0	1.082644182628283E+003	2.6147723E-001	-2.7035559E+002
3	0	1.083144182615652E+003	2.6115346E-001	-2.7038385E+002
3	0	1.083644182603020E+003	2.6082766E-001	-2.7036972E+002
3	0	1.084144182590389E+003	2.6054001E-001	-2.7039447E+002
3	0	1.084644182577758E+003	2.6026031E-001	-2.7037677E+002
3	0	1.085144182565127E+003	2.5998405E-001	-2.7041568E+002
3	0	1.085644182552496E+003	2.5971368E-001	-2.7036618E+002
3	0	1.086144182539865E+003	2.5943846E-001	-2.7038385E+002
3	0	1.086644182527234E+003	2.5916156E-001	-2.7039447E+002
3	0	1.087144182514603E+003	2.5885990E-001	-2.7038742E+002
3	0	1.087644182501972E+003	2.5855553E-001	-2.7036618E+002
3	0	1.088144182489341E+003	2.5828916E-001	-2.7037677E+002
3	0	1.088644182476710E+003	2.5803295E-001	-2.7037326E+002
3	0	1.089144182464079E+003	2.5778139E-001	-2.7039093E+002
3	0	1.089644182451448E+003	2.5752866E-001	-2.7039447E+002
3	0	1.090144182438817E+003	2.5727290E-001	-2.7038031E+002
3	0	1.090644182426186E+003	2.5700697E-001	-2.7035913E+002
3	0	1.091144182413555E+003	2.5673071E-001	-2.7036267E+002
3	0	1.091644182400923E+003	2.5644302E-001	-2.7037326E+002
3	0	1.092144182388292E+003	2.5620523E-001	-2.7038742E+002
3	0	1.092644182375661E+003	2.5597262E-001	-2.7038385E+002
3	0	1.093144182363030E+003	2.5574157E-001	-2.7036267E+002
3	0	1.093644182350399E+003	2.5551742E-001	-2.7038385E+002
3	0	1.094144182337768E+003	2.5529110E-001	-2.7037677E+002
3	0	1.094644182325137E+003	2.5505218E-001	-2.7039447E+002
3	0	1.095144182312506E+003	2.5480545E-001	-2.7039447E+002
3	0	1.095644182299875E+003	2.5454733E-001	-2.7037677E+002
3	0	1.096144182287244E+003	2.5433347E-001	-2.7037326E+002
3	0	1.096644182274613E+003	2.5412700E-001	-2.7036618E+002
3	0	1.097144182261982E+003	2.5391808E-001	-2.7036618E+002
3	0	1.097644182249351E+003	2.5371259E-001	-2.7037677E+002
3	0	1.098144182236720E+003	2.5350568E-001	-2.7037677E+002
3	0	1.098644182224089E+003	2.5328401E-001	-2.7038031E+002
3	0	1.099144182211458E+003	2.5305414E-001	-2.7040155E+002
3	0	1.099644182198826E+003	2.5281149E-001	-2.7035559E+002
3	0	1.100144182186195E+003	2.5260603E-001	-2.7036267E+002
3	0	1.100644182173564E+003	2.5241444E-001	-2.7039447E+002
3	0	1.101144182160933E+003	2.5222525E-001	-2.7038385E+002
3	0	1.101644182148302E+003	2.5203475E-001	-2.7039447E+002
3	0	1.102144182135671E+003	2.5184894E-001	-2.7038742E+002
3	0	1.102644182123040E+003	2.5164679E-001	-2.7036618E+002
3	0	1.103144182110409E+003	2.5142273E-001	-2.7039093E+002
3	0	1.103644182097778E+003	2.5119692E-001	-2.7039447E+002
3	0	1.104144182085147E+003	2.5101581E-001	-2.7036267E+002
3	0	1.104644182072516E+003	2.5083604E-001	-2.7036267E+002
3	0	1.105144182059885E+003	2.5066805E-001	-2.7036618E+002
3	0	1.105644182047254E+003	2.5048760E-001	-2.7039093E+002
3	0	1.106144182034623E+003	2.5031593E-001	-2.7037677E+002
3	0	1.106644182021992E+003	2.5013173E-001	-2.7038742E+002
3	0	1.107144182009361E+003	2.4992496E-001	-2.7037326E+002
3	0	1.107644181996729E+003	2.4972039E-001	-2.7038031E+002
3	0	1.108144181984098E+003	2.4954908E-001	-2.7038742E+002
3	0	1.108644181971467E+003	2.4938683E-001	-2.7040155E+002
3	0	1.109144181958836E+003	2.4922760E-001	-2.7040860E+002
3	0	1.109644181946205E+003	2.4904384E-001	-2.7036972E+002
3	0	1.110144181933574E+003	2.4885729E-001	-2.7038031E+002
3	0	1.110644181920943E+003	2.4869813E-001	-2.7036972E+002
3	0	1.111144181908312E+003	2.4851805E-001	-2.7035559E+002
3	0	1.111644181895681E+003	2.4832928E-001	-2.7038031E+002
3	0	1.112144181883050E+003	2.4818502E-001	-2.7040506E+002
3	0	1.112644181870419E+003	2.4803975E-001	-2.7038385E+002
3	0	1.113144181857788E+003	2.4788871E-001	-2.7038031E+002
3	0	1.113644181845157E+003	2.4773605E-001	-2.7037677E+002
3	0	1.114144181832526E+003	2.4758829E-001	-2.7035913E+002
3	0	1.114644181819895E+003	2.4743062E-001	-2.7038385E+002
3	0	1.115144181807264E+003	2.4724603E-001	-2.7037677E+002
3	0	1.115644181794632E+003	2.4706089E-001	-2.7036972E+002
3	0	1.116144181782001E+003	2.4692221E-001	-2.7037677E+002
3	0	1.116644181769370E+003	2.4678102E-001	-2.7038031E+002
3	0	1.117144181756739E+003	2.4664396E-001	-2.7036972E+002
3	0	1.117644181744108E+003	2.4650604E-001	-2.7038385E+002
3	0	1.118144181731477E+003	2.4636839E-001	-2.7039447E+002
3	0	1.118644181718846E+003	2.4622189E-001	-2.7038031E+002
3	0	1.119144181706215E+003	2.4605323E-001	-2.7035559E+002
3	0	1.119644181693584E+003	2.4587855E-001	-2.7038385E+002
3	0	1.120144181680953E+003	2.4575499E-001	-2.7038385E+002
3	0	1.120644181668322E+003	2.4562594E-001	-2.7037326E+002
3	0	1.121144181655691E+003	2.4549425E-001	-2.7038385E+002
3	0	1.121644181643060E+003	2.4536769E-001	-2.7036618E+002
3	0	1.122144181630429E+003	2.4523495E-001	-2.7036972E+002
3	0	1.122644181617798E+003	2.4509874E-001	-2.7038031E+002
3	0	1.123144181605167E+003	2.4493937E-001	-2.7037326E+002
3	0	1.123644181592535E+003	2.4477726E-001	-2.7037677E+002
3	0	1.124144181579904E+003	2.4465168E-001	-2.7037326E+002
3	0	1.124644181567273E+003	2.4453861E-001	-2.7039093E+002
3	0	1.125144181554642E+003	2.4441671E-001	-2.7036267E+002
3	0	1.125644181542011E+003	2.4429764E-001	-2.7039093E+002
3	0	1.126144181529380E+003	2.4417475E-001	-2.7038031E+002
3	0	1.126644181516749E+003	2.4404714E-001	-2.7037326E+002
3	0	1.127144181504118E+003	2.4388802E-001	-2.7039447E+002
3	0	1.127644181491487E+003	2.4372923E-001	-2.7040506E+002
3	0	1.128144181478856E+003	2.4361347E-001	-2.7036618E+002
3	0	1.128644181466225E+003	2.4349923E-001	-2.7036972E+002
3	0	1.129144181453594E+003	2.4338229E-001	-2.7037326E+002
3	0	1.129644181440963E+003	2.4326693E-001	-2.7038385E+002
3	0	1.130144181428332E+003	2.4315211E-001	-2.7038742E+002
3	0	1.130644181415701E+003	2.4302645E-001	-2.7039801E+002
3	0	1.131144181403070E+003	2.4288324E-001	-2.7038031E+002
3	0	1.131644181390438E+003	2.4273516E-001	-2.7042627E+002
3	0	1.132144181377807E+003	2.4263334E-001	-2.7039801E+002
3	0	1.132644181365176E+003	2.4252655E-001	-2.7037326E+002
3	0	1.133144181352545E+003	2.4241559E-001	-2.7036618E+002
3	0	1.133644181339914E+003	2.4230970E-001	-2.7036267E+002
3	0	1.134144181327283E+003	2.4220623E-001	-2.7036618E+002
3	0	1.134644181314652E+003	2.4209630E-001	-2.7038031E+002
3	0	1.135144181302021E+003	2.4196334E-001	-2.7038385E+002
3	0	1.135644181289390E+003	2.4182530E-001	-2.7040506E+002
3	0	1.136144181276759E+003	2.4173148E-001	-2.7035205E+002
3	0	1.136644181264128E+003	2.4163710E-001	-2.7037326E+002
3	0	1.137144181251497E+003	2.4154076E-001	-2.7038031E+002
3	0	1.137644181238866E+003	2.4144389E-001	-2.7038742E+002
3	0	1.138144181226235E+003	2.4134848E-001	-2.7038742E+002
3	0	1.138644181213604E+003	2.4124061E-001	-2.7038385E+002
3	0	1.139144181200973E+003	2.4111103E-001	-2.7036618E+002
3	0	1.139644181188341E+003	2.4097721E-001	-2.7038742E+002
3	0	1.140144181175710E+003	2.4088636E-001	-2.7038031E+002
3	0	1.140644181163079E+003	2.4079897E-001	-2.7040155E+002
3	0	1.141144181150448E+003	2.4070784E-001	-2.7038742E+002
3	0	1.141644181137817E+003	2.4061701E-001	-2.7039447E+002
3	0	1.142144181125186E+003	2.4052560E-001	-2.7038385E+002
3	0	1.142644181112555E+003	2.4042335E-001	-2.7036267E+002
3	0	1.143144181099924E+003	2.4029861E-001	-2.7037326E+002
3	0	1.143644181087293E+003	2.4017370E-001	-2.7035913E+002
3	0	1.144144181074662E+003	2.4008633E-001	-2.7036618E+002
3	0	1.144644181062031E+003	2.4000138E-001	-2.7037326E+002
3	0	1.145144181049400E+003	2.3990834E-001	-2.7039447E+002
3	0	1.145644181036769E+003	2.3981452E-001	-2.7039093E+002
3	0	1.146144181024138E+003	2.3972240E-001	-2.7036618E+002
3	0	1.146644181011507E+003	2.3961952E-001	-2.7037326E+002
3	0	1.147144180998876E+003	2.3950006E-001	-2.7038385E+002
3	0	1.147644180986244E+003	2.3936829E-001	-2.7038742E+002
3	0	1.148144180973613E+003	2.3928131E-001	-2.7040506E+002
3	0	1.148644180960982E+003	2.3919435E-001	-2.7037677E+002
3	0	1.149144180948351E+003	2.3910819E-001	-2.7036972E+002
3	0	1.149644180935720E+003	2.3902467E-001	-2.7039447E+002
3	0	1.150144180923089E+003	2.3894042E-001	-2.7035559E+002
3	0	1.150644180910458E+003	2.3883915E-001	-2.7039801E+002
3	0	1.151144180897827E+003	2.3872247E-001	-2.7038385E+002
3	0	1.151644180885196E+003	2.3859701E-001	-2.7039093E+002
3	0	1.152144180872565E+003	2.3851903E-001	-2.7036972E+002
3	0	1.152644180859934E+003	2.3844127E-001	-2.7038031E+002
3	0	1.153144180847303E+003	2.3836400E-001	-2.7036972E+002
3	0	1.153644180834672E+003	2.3828629E-001	-2.7037326E+002
3	0	1.154144180822041E+003	2.3820795E-001	-2.7040860E+002
3	0	1.154644180809410E+003	2.3811258E-001	-2.7039447E+002
3	0	1.155144180796779E+003	2.3800138E-001	-2.7040155E+002
3	0	1.155644180784147E+003	2.3788917E-001	-2.7038031E+002
3	0	1.156144180771516E+003	2.3781751E-001	-2.7037326E+002
3	0	1.156644180758885E+003	2.3775032E-001	-2.7037326E+002
3	0	1.157144180746254E+003	2.3767956E-001	-2.7038031E+002
3	0	1.157144580746244E+003	2.3764957E-001	-2.7039801E+002