EC-Lab ASCII FILE
Nb header lines : 48                          

Open Circuit Voltage

Run on channel : 1 (SN 81504)
User : 
CE vs. WE compliance from -10 V to 10 V
Electrode connection : standard
Potential control : Ewe
Ewe ctrl range : min = -2.50 V, max = 2.50 V
Safety Limits :
	Do not start on E overload
Acquisition started on : 05/07/2026 23:27:51.851
Loaded Setting File :  C:\PEM-WE_measurements\2026\372_IV_IV IrOx, 5 min Pt, 30 min C, etched cathode\new station\Loopeis new\1,46 V different time gaps open cell\Loopeis 1,46V_180s_2_PEIS from 65kHz to 10kHz.mps
Saved on :
	File : L_27_Loopeis 1,46V_180s_2_PEIS from 65kHz to 10kHz_12_OCV_C01.mpr
	Directory : C:\PEM-WE_measurements\2026\372_IV_IV IrOx, 5 min Pt, 30 min C, etched cathode\new station\Loopeis new\1,46 V different time gaps open cell\
	Host : 192.168.0.2
Device : SP-150e (SN .005491)
Address : 192.168.0.91
EC-LAB for windows v11.71 (software)
Internet server v28.00 (firmware)
Command interpretor v14.01 (firmware)
Electrode material : 
Initial state : 
Electrolyte : 
Comments : 
Current amplifier : SP-150eB-20A
Electrode surface area : 0.001 cm²
Characteristic mass : 0.001 g
Equivalent Weight : 0.000 g/eq.
Density : 0.000 g/cm3
Volume (V) : 0.001 cm³
Record Analogic IN 1
Text export
   Mode : Standard
   Time format : Elapsed
Cycle Definition : Charge/Discharge alternance
tR (h:m:s)          0:03:0.0000         
dER/dt (mV/h)       1.0                 
record              <Ewe>               
dER (mV)            10.00               
dtR (s)             0.5000              
E range min (V)     -2.500              
E range max (V)     2.500               

mode	error	time/s	<Ewe/V>	Analog IN 1/V	
3	0	1.170486580254728E+003	9.3679392E-001	-1.1064836E-004
3	0	1.170986580242097E+003	1.1304163E+000	-5.3391734E-005
3	0	1.171486580229466E+003	7.5618654E-001	-3.4306191E-005
3	0	1.171986580216835E+003	3.9034945E-001	-9.1562819E-005
3	0	1.172486580204204E+003	3.2103911E-001	-3.4306191E-005
3	0	1.172986580191573E+003	3.1147668E-001	-1.2973390E-004
3	0	1.173486580178942E+003	3.0492926E-001	2.2950437E-005
3	0	1.173986580166311E+003	2.9948580E-001	-5.3391734E-005
3	0	1.174486580153680E+003	2.9521021E-001	-1.5220648E-005
3	0	1.174986580141049E+003	2.9188153E-001	-1.1064836E-004
3	0	1.175486580128418E+003	2.8923783E-001	-3.4306191E-005
3	0	1.175986580115787E+003	2.8708577E-001	-5.3391734E-005
3	0	1.176486580103156E+003	2.8529105E-001	-5.3391734E-005
3	0	1.176986580090525E+003	2.8376588E-001	4.2035979E-005
3	0	1.177486580077893E+003	2.8243160E-001	-9.1562819E-005
3	0	1.177986580065262E+003	2.8123900E-001	2.2950437E-005
3	0	1.178486580052631E+003	2.8016001E-001	-3.4306191E-005
3	0	1.178986580040000E+003	2.7921996E-001	1.1837815E-004
3	0	1.179486580027369E+003	2.7836427E-001	6.1121522E-005
3	0	1.179986580014738E+003	2.7756447E-001	-1.5220648E-005
3	0	1.180486580002107E+003	2.7680859E-001	-9.1562819E-005
3	0	1.180986579989476E+003	2.7609104E-001	8.0207064E-005
3	0	1.181486579976845E+003	2.7539849E-001	-7.2477276E-005
3	0	1.181986579964214E+003	2.7471301E-001	4.2035979E-005
3	0	1.182486579951583E+003	2.7404454E-001	-1.2973390E-004
3	0	1.182986579938952E+003	2.7342924E-001	-3.4306191E-005
3	0	1.183486579926321E+003	2.7284458E-001	-1.1064836E-004
3	0	1.183986579913690E+003	2.7227616E-001	-3.4306191E-005
3	0	1.184486579901059E+003	2.7171442E-001	-1.6790499E-004
3	0	1.184986579888428E+003	2.7116281E-001	-7.2477276E-005
3	0	1.185486579875796E+003	2.7061063E-001	3.8648941E-006
3	0	1.185986579863165E+003	2.7003932E-001	-5.3391734E-005
3	0	1.186486579850534E+003	2.6947832E-001	8.0207064E-005
3	0	1.186986579837903E+003	2.6896054E-001	-1.5220648E-005
3	0	1.187486579825272E+003	2.6845381E-001	-5.3391734E-005
3	0	1.187986579812641E+003	2.6795655E-001	3.8648941E-006
3	0	1.188486579800010E+003	2.6745969E-001	-1.4881945E-004
3	0	1.188986579787379E+003	2.6696754E-001	-7.2477276E-005
3	0	1.189486579774748E+003	2.6647040E-001	-1.1064836E-004
3	0	1.189986579762117E+003	2.6596105E-001	-1.8699054E-004
3	0	1.190486579749486E+003	2.6544419E-001	-9.1562819E-005
3	0	1.190986579736855E+003	2.6496431E-001	-7.2477276E-005
3	0	1.191486579724224E+003	2.6450911E-001	-1.5220648E-005
3	0	1.191986579711593E+003	2.6405191E-001	-7.2477276E-005
3	0	1.192486579698962E+003	2.6359847E-001	-1.5220648E-005
3	0	1.192986579686331E+003	2.6314896E-001	4.2035979E-005
3	0	1.193486579673699E+003	2.6269013E-001	-5.3391734E-005
3	0	1.193986579661068E+003	2.6220945E-001	-3.4306191E-005
3	0	1.194486579648437E+003	2.6173052E-001	-3.4306191E-005
3	0	1.194986579635806E+003	2.6129386E-001	9.9292607E-005
3	0	1.195486579623175E+003	2.6087469E-001	-1.6790499E-004
3	0	1.195986579610544E+003	2.6044959E-001	-1.1064836E-004
3	0	1.196486579597913E+003	2.6002714E-001	2.2950437E-005
3	0	1.196986579585282E+003	2.5962359E-001	3.8648941E-006
3	0	1.197486579572651E+003	2.5919858E-001	2.2950437E-005
3	0	1.197986579560020E+003	2.5875923E-001	-1.5220648E-005
3	0	1.198486579547389E+003	2.5830749E-001	-5.3391734E-005
3	0	1.198986579534758E+003	2.5790682E-001	-7.2477276E-005
3	0	1.199486579522127E+003	2.5751916E-001	-2.0607607E-004
3	0	1.199986579509496E+003	2.5711885E-001	-1.5220648E-005
3	0	1.200486579496865E+003	2.5673324E-001	-1.5220648E-005
3	0	1.200986579484234E+003	2.5634864E-001	1.1837815E-004
3	0	1.201486579471602E+003	2.5595531E-001	-1.1064836E-004
3	0	1.201986579458971E+003	2.5554407E-001	4.2035979E-005
3	0	1.202486579446340E+003	2.5512534E-001	-3.4306191E-005
3	0	1.202986579433709E+003	2.5476187E-001	-5.3391734E-005
3	0	1.203486579421078E+003	2.5440806E-001	-7.2477276E-005
3	0	1.203986579408447E+003	2.5405639E-001	-3.4306191E-005
3	0	1.204486579395816E+003	2.5369918E-001	-7.2477276E-005
3	0	1.204986579383185E+003	2.5333732E-001	-7.2477276E-005
3	0	1.205486579370554E+003	2.5297561E-001	-5.3391734E-005
3	0	1.205986579357923E+003	2.5258687E-001	3.8648941E-006
3	0	1.206486579345292E+003	2.5219914E-001	8.0207064E-005
3	0	1.206986579332661E+003	2.5185463E-001	-7.2477276E-005
3	0	1.207486579320030E+003	2.5152507E-001	-1.2973390E-004
3	0	1.207986579307399E+003	2.5119707E-001	8.0207064E-005
3	0	1.208486579294768E+003	2.5086150E-001	-1.2973390E-004
3	0	1.208986579282137E+003	2.5054008E-001	-5.3391734E-005
3	0	1.209486579269505E+003	2.5020328E-001	-1.5220648E-005
3	0	1.209986579256874E+003	2.4985111E-001	3.8648941E-006
3	0	1.210486579244243E+003	2.4948888E-001	-5.3391734E-005
3	0	1.210986579231612E+003	2.4917933E-001	3.8648941E-006
3	0	1.211486579218981E+003	2.4887210E-001	3.8648941E-006
3	0	1.211986579206350E+003	2.4856432E-001	-1.5220648E-005
3	0	1.212486579193719E+003	2.4824996E-001	-7.2477276E-005
3	0	1.212986579181088E+003	2.4794501E-001	-9.1562819E-005
3	0	1.213486579168457E+003	2.4763004E-001	4.2035979E-005
3	0	1.213986579155826E+003	2.4728927E-001	-3.4306191E-005
3	0	1.214486579143195E+003	2.4695629E-001	6.1121522E-005
3	0	1.214986579130564E+003	2.4666710E-001	-9.1562819E-005
3	0	1.215486579117933E+003	2.4638680E-001	-1.4881945E-004
3	0	1.215986579105302E+003	2.4610822E-001	6.1121522E-005
3	0	1.216486579092671E+003	2.4582826E-001	3.8648941E-006
3	0	1.216986579080040E+003	2.4555543E-001	-5.3391734E-005
3	0	1.217486579067408E+003	2.4526846E-001	-1.5220648E-005
3	0	1.217986579054777E+003	2.4496122E-001	-1.1064836E-004
3	0	1.218486579042146E+003	2.4465358E-001	3.8648941E-006
3	0	1.218986579029515E+003	2.4439381E-001	-1.6790499E-004
3	0	1.219486579016884E+003	2.4414647E-001	-1.5220648E-005
3	0	1.219986579004253E+003	2.4389489E-001	1.3746369E-004
3	0	1.220486578991622E+003	2.4364120E-001	6.1121522E-005
3	0	1.220986578978991E+003	2.4338742E-001	-1.5220648E-005
3	0	1.221486578966360E+003	2.4313080E-001	-7.2477276E-005
3	0	1.221986578953729E+003	2.4284427E-001	-1.5220648E-005
3	0	1.222486578941098E+003	2.4256405E-001	-9.1562819E-005
3	0	1.222986578928467E+003	2.4232098E-001	-9.1562819E-005
3	0	1.223486578915836E+003	2.4209467E-001	3.8648941E-006
3	0	1.223986578903205E+003	2.4186358E-001	-7.2477276E-005
3	0	1.224486578890574E+003	2.4162963E-001	-5.3391734E-005
3	0	1.224986578877943E+003	2.4139842E-001	-1.1064836E-004
3	0	1.225486578865311E+003	2.4115768E-001	-1.5220648E-005
3	0	1.225986578852680E+003	2.4089721E-001	-5.3391734E-005
3	0	1.226486578840049E+003	2.4063700E-001	4.2035979E-005
3	0	1.226986578827418E+003	2.4041770E-001	2.2950437E-005
3	0	1.227486578814787E+003	2.4021295E-001	6.1121522E-005
3	0	1.227986578802156E+003	2.4000788E-001	4.2035979E-005
3	0	1.228486578789525E+003	2.3979576E-001	-5.3391734E-005
3	0	1.228986578776894E+003	2.3958327E-001	-5.3391734E-005
3	0	1.229486578764263E+003	2.3935975E-001	-5.3391734E-005
3	0	1.229986578751632E+003	2.3911159E-001	3.8648941E-006
3	0	1.230486578739001E+003	2.3886791E-001	6.1121522E-005
3	0	1.230986578726370E+003	2.3866159E-001	-9.1562819E-005
3	0	1.231486578713739E+003	2.3847061E-001	-1.1064836E-004
3	0	1.231986578701108E+003	2.3827496E-001	1.3746369E-004
3	0	1.232486578688477E+003	2.3807622E-001	-1.5220648E-005
3	0	1.232986578675846E+003	2.3787820E-001	2.2950437E-005
3	0	1.233486578663214E+003	2.3766942E-001	-5.3391734E-005
3	0	1.233986578650583E+003	2.3744015E-001	-5.3391734E-005
3	0	1.234486578637952E+003	2.3720424E-001	-3.4306191E-005
3	0	1.234986578625321E+003	2.3702577E-001	-1.5220648E-005
3	0	1.235486578612690E+003	2.3684806E-001	-2.6333271E-004
3	0	1.235986578600059E+003	2.3666938E-001	-5.3391734E-005
3	0	1.236486578587428E+003	2.3649235E-001	2.2950437E-005
3	0	1.236986578574797E+003	2.3630680E-001	-9.1562819E-005
3	0	1.237486578562166E+003	2.3611628E-001	8.0207064E-005
3	0	1.237986578549535E+003	2.3590916E-001	3.8648941E-006
3	0	1.238486578536904E+003	2.3570660E-001	2.2950437E-005
3	0	1.238986578524273E+003	2.3554042E-001	2.2950437E-005
3	0	1.239486578511642E+003	2.3538892E-001	2.2950437E-005
3	0	1.239986578499011E+003	2.3522925E-001	-1.5220648E-005
3	0	1.240486578486380E+003	2.3506835E-001	-1.1064836E-004
3	0	1.240986578473749E+003	2.3489788E-001	-7.2477276E-005
3	0	1.241486578461117E+003	2.3472214E-001	3.8648941E-006
3	0	1.241986578448486E+003	2.3452826E-001	3.8648941E-006
3	0	1.242486578435855E+003	2.3433043E-001	-7.2477276E-005
3	0	1.242986578423224E+003	2.3418112E-001	-1.4881945E-004
3	0	1.243486578410593E+003	2.3403953E-001	2.2950437E-005
3	0	1.243986578397962E+003	2.3388864E-001	-1.1064836E-004
3	0	1.244486578385331E+003	2.3373289E-001	2.2950437E-005
3	0	1.244986578372700E+003	2.3357953E-001	-1.2973390E-004
3	0	1.245486578360069E+003	2.3340981E-001	2.2950437E-005
3	0	1.245986578347438E+003	2.3323129E-001	2.2950437E-005
3	0	1.246486578334807E+003	2.3304769E-001	4.2035979E-005
3	0	1.246986578322176E+003	2.3290525E-001	-1.2973390E-004
3	0	1.247486578309545E+003	2.3277599E-001	4.2035979E-005
3	0	1.247986578296914E+003	2.3263656E-001	4.2035979E-005
3	0	1.248486578284283E+003	2.3249123E-001	-1.2973390E-004
3	0	1.248986578271652E+003	2.3234709E-001	-1.2973390E-004
3	0	1.249486578259020E+003	2.3219168E-001	-5.3391734E-005
3	0	1.249986578246389E+003	2.3201795E-001	-3.4306191E-005
3	0	1.250486578233758E+003	2.3183478E-001	2.2950437E-005
3	0	1.250986578221127E+003	2.3170336E-001	-1.1064836E-004
3	0	1.251486578208496E+003	2.3157889E-001	3.8648941E-006
3	0	1.251986578195865E+003	2.3144805E-001	-1.4881945E-004
3	0	1.252486578183234E+003	2.3130873E-001	-7.2477276E-005
3	0	1.252986578170603E+003	2.3117372E-001	3.8648941E-006
3	0	1.253486578157972E+003	2.3102435E-001	2.2950437E-005
3	0	1.253986578145341E+003	2.3085560E-001	-1.1064836E-004
3	0	1.254486578132710E+003	2.3068409E-001	-1.5220648E-005
3	0	1.254986578120079E+003	2.3056215E-001	-1.6790499E-004
3	0	1.255486578107448E+003	2.3045003E-001	6.1121522E-005
3	0	1.255986578094817E+003	2.3033229E-001	8.0207064E-005
3	0	1.256486578082186E+003	2.3021244E-001	-3.4306191E-005
3	0	1.256986578069555E+003	2.3008944E-001	-9.1562819E-005
3	0	1.257486578056923E+003	2.2995842E-001	-9.1562819E-005
3	0	1.257986578044292E+003	2.2980209E-001	-5.3391734E-005
3	0	1.258486578031661E+003	2.2964391E-001	-3.4306191E-005
3	0	1.258986578019030E+003	2.2953305E-001	-1.2973390E-004
3	0	1.259486578006399E+003	2.2943053E-001	-1.8699054E-004
3	0	1.259986577993768E+003	2.2932437E-001	-1.5220648E-005
3	0	1.260486577981137E+003	2.2921127E-001	-3.4306191E-005
3	0	1.260986577968506E+003	2.2910053E-001	-5.3391734E-005
3	0	1.261486577955875E+003	2.2897570E-001	-5.3391734E-005
3	0	1.261986577943244E+003	2.2883095E-001	4.2035979E-005
3	0	1.262486577930613E+003	2.2867589E-001	-1.2973390E-004
3	0	1.262986577917982E+003	2.2856525E-001	-7.2477276E-005
3	0	1.263486577905351E+003	2.2846964E-001	2.2950437E-005
3	0	1.263986577892720E+003	2.2836539E-001	-5.3391734E-005
3	0	1.264486577880089E+003	2.2826023E-001	4.2035979E-005
3	0	1.264986577867458E+003	2.2815470E-001	-3.4306191E-005
3	0	1.265486577854826E+003	2.2804083E-001	-1.5220648E-005
3	0	1.265986577842195E+003	2.2789896E-001	-1.5220648E-005
3	0	1.266486577829564E+003	2.2775155E-001	-1.2973390E-004
3	0	1.266986577816933E+003	2.2765243E-001	3.8648941E-006
3	0	1.267486577804302E+003	2.2756459E-001	-1.8699054E-004
3	0	1.267986577791671E+003	2.2747052E-001	-1.2973390E-004
3	0	1.268486577779040E+003	2.2737040E-001	9.9292607E-005
3	0	1.268986577766409E+003	2.2727470E-001	6.1121522E-005
3	0	1.269486577753778E+003	2.2716270E-001	-3.4306191E-005
3	0	1.269986577741147E+003	2.2702411E-001	4.2035979E-005
3	0	1.270486577728516E+003	2.2688302E-001	-1.5220648E-005
3	0	1.270986577715885E+003	2.2679202E-001	-5.3391734E-005
3	0	1.271486577703254E+003	2.2671193E-001	2.2950437E-005
3	0	1.271986577690623E+003	2.2661881E-001	-1.5220648E-005
3	0	1.272486577677992E+003	2.2652654E-001	-9.1562819E-005
3	0	1.272986577665361E+003	2.2642086E-001	3.8648941E-006
3	0	1.273486577652729E+003	2.2631940E-001	1.3746369E-004
3	0	1.273986577640098E+003	2.2618981E-001	-3.4306191E-005
3	0	1.274486577627467E+003	2.2604828E-001	3.8648941E-006
3	0	1.274986577614836E+003	2.2595657E-001	-7.2477276E-005
3	0	1.275486577602205E+003	2.2587855E-001	6.1121522E-005
3	0	1.275986577589574E+003	2.2579423E-001	6.1121522E-005
3	0	1.276486577576943E+003	2.2570460E-001	4.2035979E-005
3	0	1.276986577564312E+003	2.2561805E-001	-1.5220648E-005
3	0	1.277486577551681E+003	2.2552048E-001	3.8648941E-006
3	0	1.277986577539050E+003	2.2539739E-001	-5.3391734E-005
3	0	1.278486577526419E+003	2.2527093E-001	6.1121522E-005
3	0	1.278986577513788E+003	2.2518639E-001	-5.3391734E-005
3	0	1.279486577501157E+003	2.2511569E-001	3.8648941E-006
3	0	1.279986577488526E+003	2.2503591E-001	3.8648941E-006
3	0	1.280486577475895E+003	2.2496077E-001	-1.4881945E-004
3	0	1.280986577463264E+003	2.2488089E-001	-1.4881945E-004
3	0	1.281486577450632E+003	2.2478937E-001	-3.4306191E-005
3	0	1.281986577438001E+003	2.2466889E-001	-1.2973390E-004
3	0	1.282486577425370E+003	2.2453906E-001	-3.4306191E-005
3	0	1.282986577412739E+003	2.2446273E-001	-1.5220648E-005
3	0	1.283486577400108E+003	2.2439612E-001	-3.4306191E-005
3	0	1.283986577387477E+003	2.2432441E-001	-1.4881945E-004
3	0	1.284486577374846E+003	2.2425072E-001	-1.5220648E-005
3	0	1.284986577362215E+003	2.2416872E-001	6.1121522E-005
3	0	1.285486577349584E+003	2.2408123E-001	4.2035979E-005
3	0	1.285986577336953E+003	2.2396462E-001	-7.2477276E-005
3	0	1.286486577324322E+003	2.2384317E-001	-5.3391734E-005
3	0	1.286986577311691E+003	2.2376937E-001	-7.2477276E-005
3	0	1.287486577299060E+003	2.2370909E-001	-1.5220648E-005
3	0	1.287986577286429E+003	2.2364071E-001	8.0207064E-005
3	0	1.288486577273798E+003	2.2356898E-001	-7.2477276E-005
3	0	1.288986577261167E+003	2.2350265E-001	3.8648941E-006
3	0	1.289486577248535E+003	2.2341798E-001	-1.1064836E-004
3	0	1.289986577235904E+003	2.2330135E-001	-1.5220648E-005
3	0	1.290486577223273E+003	2.2318588E-001	-1.5220648E-005
3	0	1.290986577210642E+003	2.2310875E-001	-5.3391734E-005
3	0	1.291486577198011E+003	2.2304635E-001	-9.1562819E-005
3	0	1.291986577185380E+003	2.2297606E-001	-5.3391734E-005
3	0	1.292486577172749E+003	2.2289525E-001	-1.2973390E-004
3	0	1.292986577160118E+003	2.2282423E-001	-1.1064836E-004
3	0	1.293486577147487E+003	2.2273773E-001	4.2035979E-005
3	0	1.293986577134856E+003	2.2262843E-001	-2.8241824E-004
3	0	1.294486577122225E+003	2.2251251E-001	-2.0607607E-004
3	0	1.294986577109594E+003	2.2243822E-001	-2.4424717E-004
3	0	1.295486577096963E+003	2.2238109E-001	-2.2516162E-004
3	0	1.295986577084332E+003	2.2231917E-001	-9.1562819E-005
3	0	1.296486577071701E+003	2.2224800E-001	-1.5220648E-005
3	0	1.296986577059070E+003	2.2218253E-001	-1.6790499E-004
3	0	1.297486577046438E+003	2.2210003E-001	-3.4306191E-005
3	0	1.297986577033807E+003	2.2199291E-001	3.8648941E-006
3	0	1.298486577021176E+003	2.2188649E-001	-2.2516162E-004
3	0	1.298986577008545E+003	2.2181948E-001	-7.2477276E-005
3	0	1.299486576995914E+003	2.2177087E-001	-9.1562819E-005
3	0	1.299986576983283E+003	2.2171080E-001	-1.1064836E-004
3	0	1.300486576970652E+003	2.2164828E-001	2.2950437E-005
3	0	1.300986576958021E+003	2.2158778E-001	4.2035979E-005
3	0	1.301486576945390E+003	2.2151141E-001	9.9292607E-005
3	0	1.301986576932759E+003	2.2141215E-001	-1.6790499E-004
3	0	1.302486576920128E+003	2.2130157E-001	-3.4306191E-005
3	0	1.302986576907497E+003	2.2124252E-001	1.5654923E-004
3	0	1.303486576894866E+003	2.2119582E-001	6.1121522E-005
3	0	1.303986576882235E+003	2.2114006E-001	-7.2477276E-005
3	0	1.304486576869604E+003	2.2108009E-001	-1.1064836E-004
3	0	1.304986576856973E+003	2.2102265E-001	4.2035979E-005
3	0	1.305486576844341E+003	2.2095168E-001	-7.2477276E-005
3	0	1.305986576831710E+003	2.2085521E-001	-1.5220648E-005
3	0	1.306486576819079E+003	2.2074597E-001	-5.3391734E-005
3	0	1.306986576806448E+003	2.2069366E-001	1.1837815E-004
3	0	1.307486576793817E+003	2.2064662E-001	-5.3391734E-005
3	0	1.307986576781186E+003	2.2059640E-001	-5.3391734E-005
3	0	1.308486576768555E+003	2.2053801E-001	3.8648941E-006
3	0	1.308986576755924E+003	2.2048126E-001	2.2950437E-005
3	0	1.309486576743293E+003	2.2040966E-001	-1.2973390E-004
3	0	1.309986576730662E+003	2.2031368E-001	-1.5220648E-005
3	0	1.310486576718031E+003	2.2020851E-001	8.0207064E-005
3	0	1.310986576705400E+003	2.2014789E-001	6.1121522E-005
3	0	1.311486576692769E+003	2.2009727E-001	-1.4881945E-004
3	0	1.311986576680138E+003	2.2004350E-001	-9.1562819E-005
3	0	1.312486576667507E+003	2.1998021E-001	6.1121522E-005
3	0	1.312986576654876E+003	2.1992750E-001	6.1121522E-005
3	0	1.313486576642244E+003	2.1985753E-001	-7.2477276E-005
3	0	1.313986576629613E+003	2.1975879E-001	2.2950437E-005
3	0	1.314486576616982E+003	2.1965457E-001	-7.2477276E-005
3	0	1.314986576604351E+003	2.1959515E-001	2.2950437E-005
3	0	1.315486576591720E+003	2.1955201E-001	2.2950437E-005
3	0	1.315986576579089E+003	2.1949852E-001	-3.4306191E-005
3	0	1.316486576566458E+003	2.1944767E-001	-1.2973390E-004
3	0	1.316986576553827E+003	2.1939857E-001	-7.2477276E-005
3	0	1.317486576541196E+003	2.1933027E-001	-1.1064836E-004
3	0	1.317986576528565E+003	2.1923712E-001	9.9292607E-005
3	0	1.318486576515934E+003	2.1914089E-001	4.2035979E-005
3	0	1.318986576503303E+003	2.1908697E-001	-1.5220648E-005
3	0	1.319486576490672E+003	2.1903309E-001	-5.3391734E-005
3	0	1.319986576478041E+003	2.1897283E-001	-5.3391734E-005
3	0	1.320486576465410E+003	2.1890491E-001	2.2950437E-005
3	0	1.320986576452779E+003	2.1883751E-001	-7.2477276E-005
3	0	1.321486576440147E+003	2.1876256E-001	-1.1064836E-004
3	0	1.321986576427516E+003	2.1866684E-001	2.2950437E-005
3	0	1.322486576414885E+003	2.1857253E-001	1.3746369E-004
3	0	1.322986576402254E+003	2.1851933E-001	-7.2477276E-005
3	0	1.323486576389623E+003	2.1847712E-001	2.2950437E-005
3	0	1.323986576376992E+003	2.1843126E-001	-9.1562819E-005
3	0	1.324486576364361E+003	2.1838167E-001	-5.3391734E-005
3	0	1.324986576351730E+003	2.1832973E-001	-5.3391734E-005
3	0	1.325486576339099E+003	2.1825925E-001	-1.5220648E-005
3	0	1.325986576326468E+003	2.1816930E-001	3.8648941E-006
3	0	1.326486576313837E+003	2.1807814E-001	-5.3391734E-005
3	0	1.326986576301206E+003	2.1802253E-001	-3.4306191E-005
3	0	1.327486576288575E+003	2.1797933E-001	-1.6790499E-004
3	0	1.327986576275944E+003	2.1793292E-001	2.2950437E-005
3	0	1.328486576263313E+003	2.1788865E-001	-1.2973390E-004
3	0	1.328986576250682E+003	2.1783634E-001	8.0207064E-005
3	0	1.329486576238050E+003	2.1777174E-001	8.0207064E-005
3	0	1.329986576225419E+003	2.1768703E-001	4.2035979E-005
3	0	1.330486576212788E+003	2.1758832E-001	-3.4306191E-005
3	0	1.330986576200157E+003	2.1753336E-001	6.1121522E-005
3	0	1.331486576187526E+003	2.1749432E-001	2.2950437E-005
3	0	1.331986576174895E+003	2.1744040E-001	-7.2477276E-005
3	0	1.332486576162264E+003	2.1739095E-001	-1.4881945E-004
3	0	1.332986576149633E+003	2.1733941E-001	4.2035979E-005
3	0	1.333486576137002E+003	2.1727391E-001	-1.4881945E-004
3	0	1.333986576124371E+003	2.1718805E-001	-1.4881945E-004
3	0	1.334486576111740E+003	2.1710019E-001	-1.2973390E-004
3	0	1.334986576099109E+003	2.1704841E-001	-3.4306191E-005
3	0	1.335486576086478E+003	2.1700899E-001	-3.4306191E-005
3	0	1.335986576073847E+003	2.1696134E-001	-5.3391734E-005
3	0	1.336486576061216E+003	2.1691613E-001	-9.1562819E-005
3	0	1.336986576048585E+003	2.1686921E-001	-3.4306191E-005
3	0	1.337486576035953E+003	2.1680348E-001	-7.2477276E-005
3	0	1.337986576023322E+003	2.1672015E-001	-1.4881945E-004
3	0	1.338486576010691E+003	2.1663433E-001	-3.4306191E-005
3	0	1.338986575998060E+003	2.1659391E-001	-3.4306191E-005
3	0	1.339486575985429E+003	2.1655875E-001	-1.1064836E-004
3	0	1.339986575972798E+003	2.1651830E-001	6.1121522E-005
3	0	1.340486575960167E+003	2.1648039E-001	-9.1562819E-005
3	0	1.340986575947536E+003	2.1643616E-001	-1.1064836E-004
3	0	1.341486575934905E+003	2.1638224E-001	-1.4881945E-004
3	0	1.341986575922274E+003	2.1630451E-001	-1.1064836E-004
3	0	1.342486575909643E+003	2.1621829E-001	-2.4424717E-004
3	0	1.342986575897012E+003	2.1617484E-001	4.2035979E-005
3	0	1.343486575884381E+003	2.1613851E-001	8.0207064E-005
3	0	1.343986575871750E+003	2.1609886E-001	3.8648941E-006
3	0	1.344486575859119E+003	2.1605617E-001	-7.2477276E-005
3	0	1.344986575846488E+003	2.1602115E-001	-1.1064836E-004
3	0	1.345486575833856E+003	2.1596654E-001	6.1121522E-005
3	0	1.345986575821225E+003	2.1589139E-001	-1.1064836E-004
3	0	1.346486575808594E+003	2.1581571E-001	2.2950437E-005
3	0	1.346986575795963E+003	2.1578227E-001	3.8648941E-006
3	0	1.347486575783332E+003	2.1574821E-001	2.2950437E-005
3	0	1.347986575770701E+003	2.1571280E-001	2.2950437E-005
3	0	1.348486575758070E+003	2.1567582E-001	1.1837815E-004
3	0	1.348986575745439E+003	2.1563412E-001	-1.5220648E-005
3	0	1.349486575732808E+003	2.1558800E-001	3.8648941E-006
3	0	1.349986575720177E+003	2.1551393E-001	-9.1562819E-005
3	0	1.350020575719318E+003	2.1546651E-001	-1.1064836E-004