EC-Lab ASCII FILE
Nb header lines : 48                          

Open Circuit Voltage

Run on channel : 1 (SN 81504)
User : 
CE vs. WE compliance from -10 V to 10 V
Electrode connection : standard
Potential control : Ewe
Ewe ctrl range : min = -2.50 V, max = 2.50 V
Safety Limits :
	Do not start on E overload
Acquisition started on : 05/10/2026 05:54:37.151
Loaded Setting File :  C:\PEM-WE_measurements\2026\372_IV_IV IrOx, 5 min Pt, 30 min C, etched cathode\new station\Loopeis new\1,46 V different time gaps closed cell\Loopeis 1,46V_120s_2_PEIS from 65kHz to 10kHz.mps
Saved on :
	File : L_22_Loopeis 1,46V_120s_2_PEIS from 65kHz to 10kHz_02_OCV_C01.mpr
	Directory : C:\PEM-WE_measurements\2026\372_IV_IV IrOx, 5 min Pt, 30 min C, etched cathode\new station\Loopeis new\1,46 V different time gaps closed cell\
	Host : 192.168.0.2
Device : SP-150e (SN .005491)
Address : 192.168.0.91
EC-LAB for windows v11.71 (software)
Internet server v28.00 (firmware)
Command interpretor v14.01 (firmware)
Electrode material : 
Initial state : 
Electrolyte : 
Comments : 
Current amplifier : SP-150eB-20A
Electrode surface area : 0.001 cm²
Characteristic mass : 0.001 g
Equivalent Weight : 0.000 g/eq.
Density : 0.000 g/cm3
Volume (V) : 0.001 cm³
Record Analogic IN 1
Text export
   Mode : Standard
   Time format : Elapsed
Cycle Definition : Charge/Discharge alternance
tR (h:m:s)          0:02:0.0000         
dER/dt (mV/h)       1.0                 
record              <Ewe>               
dER (mV)            10.00               
dtR (s)             0.5000              
E range min (V)     -2.500              
E range max (V)     2.500               

mode	error	time/s	<Ewe/V>	Analog IN 1/V	
3	0	4.549979885057837E+001	1.2929761E+000	-7.2477276E-005
3	0	4.599979883794731E+001	1.2995400E+000	-3.4306191E-005
3	0	4.649979882531625E+001	1.2956686E+000	4.2035979E-005
3	0	4.699979881268519E+001	1.2858545E+000	-7.2477276E-005
3	0	4.749979880005412E+001	1.2680072E+000	-1.8699054E-004
3	0	4.799979878742306E+001	1.2386138E+000	4.2035979E-005
3	0	4.849979877479200E+001	1.1911345E+000	4.2035979E-005
3	0	4.899979876216094E+001	1.1058617E+000	-1.5220648E-005
3	0	4.949979874952987E+001	8.6148238E-001	2.2950437E-005
3	0	4.999979873689881E+001	5.5404788E-001	-5.3391734E-005
3	0	5.049979872426775E+001	4.4790900E-001	3.8648941E-006
3	0	5.099979871163669E+001	4.1224757E-001	1.3746369E-004
3	0	5.149979869900562E+001	4.0231049E-001	-1.4881945E-004
3	0	5.199979868637456E+001	3.9880928E-001	-1.2973390E-004
3	0	5.249979867374350E+001	3.9664647E-001	-7.2477276E-005
3	0	5.299979866111244E+001	3.9546439E-001	6.1121522E-005
3	0	5.349979864848137E+001	3.9493814E-001	-1.5220648E-005
3	0	5.399979863585031E+001	3.9430463E-001	1.3746369E-004
3	0	5.449979862321925E+001	3.9353758E-001	-3.4306191E-005
3	0	5.499979861058819E+001	3.9302269E-001	-1.2973390E-004
3	0	5.549979859795712E+001	3.9261374E-001	-9.1562819E-005
3	0	5.599979858532606E+001	3.9206785E-001	-1.5220648E-005
3	0	5.649979857269500E+001	3.9141992E-001	-1.8699054E-004
3	0	5.699979856006394E+001	3.9139828E-001	4.2035979E-005
3	0	5.749979854743287E+001	3.9191011E-001	-1.5220648E-005
3	0	5.799979853480181E+001	3.9216661E-001	6.1121522E-005
3	0	5.849979852217075E+001	3.9218807E-001	-5.3391734E-005
3	0	5.899979850953969E+001	3.9220598E-001	-1.2973390E-004
3	0	5.949979849690862E+001	3.9221945E-001	-5.3391734E-005
3	0	5.999979848427756E+001	3.9206323E-001	-1.5220648E-005
3	0	6.049979847164650E+001	3.9175028E-001	-1.8699054E-004
3	0	6.099979845901544E+001	3.9183524E-001	9.9292607E-005
3	0	6.149979844638438E+001	3.9237171E-001	-5.3391734E-005
3	0	6.199979843375331E+001	3.9267963E-001	4.2035979E-005
3	0	6.249979842112225E+001	3.9277264E-001	-7.2477276E-005
3	0	6.299979840849119E+001	3.9279372E-001	3.8648941E-006
3	0	6.349979839586013E+001	3.9278150E-001	-2.4424717E-004
3	0	6.399979838322906E+001	3.9253178E-001	-1.5220648E-005
3	0	6.449979837059800E+001	3.9214662E-001	-1.5220648E-005
3	0	6.499979835796694E+001	3.9223790E-001	-3.4306191E-005
3	0	6.549979834533588E+001	3.9275169E-001	-3.4306191E-005
3	0	6.599979833270481E+001	3.9306143E-001	-1.2973390E-004
3	0	6.649979832007375E+001	3.9312142E-001	-1.4881945E-004
3	0	6.699979830744269E+001	3.9309895E-001	-3.4306191E-005
3	0	6.749979829481163E+001	3.9301091E-001	-1.1064836E-004
3	0	6.799979828218056E+001	3.9271420E-001	3.8648941E-006
3	0	6.849979826954950E+001	3.9228186E-001	-5.3391734E-005
3	0	6.899979825691844E+001	3.9239612E-001	-3.4306191E-005
3	0	6.949979824428738E+001	3.9306325E-001	-5.3391734E-005
3	0	6.999979823165631E+001	3.9368364E-001	-1.1064836E-004
3	0	7.049979821902525E+001	3.9415485E-001	-9.1562819E-005
3	0	7.099979820639419E+001	3.9472887E-001	3.8648941E-006
3	0	7.149979819376313E+001	3.9538082E-001	-3.4306191E-005
3	0	7.199979818113206E+001	3.9582765E-001	8.0207064E-005
3	0	7.249979816850100E+001	3.9618644E-001	3.8648941E-006
3	0	7.299979815586994E+001	3.9687556E-001	-3.4306191E-005
3	0	7.349979814323888E+001	3.9795569E-001	-5.3391734E-005
3	0	7.399979813060781E+001	3.9879513E-001	-5.3391734E-005
3	0	7.449979811797675E+001	3.9926147E-001	-1.2973390E-004
3	0	7.499979810534569E+001	3.9959520E-001	4.2035979E-005
3	0	7.549979809271463E+001	3.9985985E-001	4.2035979E-005
3	0	7.599979808008356E+001	3.9987436E-001	-7.2477276E-005
3	0	7.649979806745250E+001	3.9970744E-001	-5.3391734E-005
3	0	7.699979805482144E+001	3.9992839E-001	-5.3391734E-005
3	0	7.749979804219038E+001	4.0048537E-001	8.0207064E-005
3	0	7.799979802955932E+001	4.0081793E-001	6.1121522E-005
3	0	7.849979801692825E+001	4.0090728E-001	-5.3391734E-005
3	0	7.899979800429719E+001	4.0092015E-001	-1.2973390E-004
3	0	7.949979799166613E+001	4.0088698E-001	8.0207064E-005
3	0	7.999979797903507E+001	4.0062389E-001	-5.3391734E-005
3	0	8.049979796640400E+001	4.0013248E-001	-1.4881945E-004
3	0	8.099979795377294E+001	3.9997658E-001	-7.2477276E-005
3	0	8.149979794114188E+001	4.0029797E-001	-7.2477276E-005
3	0	8.199979792851082E+001	4.0040997E-001	-1.1064836E-004
3	0	8.249979791587975E+001	4.0024859E-001	-1.2973390E-004
3	0	8.299979790324869E+001	3.9996332E-001	-7.2477276E-005
3	0	8.349979789061763E+001	3.9964560E-001	3.8648941E-006
3	0	8.399979787798657E+001	3.9898890E-001	-7.2477276E-005
3	0	8.449979786535550E+001	3.9825827E-001	-1.2973390E-004
3	0	8.499979785272444E+001	3.9792565E-001	6.1121522E-005
3	0	8.549979784009338E+001	3.9800107E-001	-2.2516162E-004
3	0	8.599979782746232E+001	3.9787796E-001	2.2950437E-005
3	0	8.649979781483125E+001	3.9745399E-001	3.8648941E-006
3	0	8.699979780220019E+001	3.9699781E-001	-5.3391734E-005
3	0	8.749979778956913E+001	3.9644605E-001	3.8648941E-006
3	0	8.799979777693807E+001	3.9573702E-001	-1.2973390E-004
3	0	8.849979776430700E+001	3.9497569E-001	1.3746369E-004
3	0	8.899979775167594E+001	3.9473820E-001	-7.2477276E-005
3	0	8.949979773904488E+001	3.9498287E-001	-2.0607607E-004
3	0	8.999979772641382E+001	3.9521471E-001	-7.2477276E-005
3	0	9.049979771378275E+001	3.9531246E-001	-1.6790499E-004
3	0	9.099979770115169E+001	3.9547893E-001	-9.1562819E-005
3	0	9.149979768852063E+001	3.9571744E-001	3.8648941E-006
3	0	9.199979767588957E+001	3.9585525E-001	6.1121522E-005
3	0	9.249979766325851E+001	3.9580938E-001	-7.2477276E-005
3	0	9.299979765062744E+001	3.9603722E-001	6.1121522E-005
3	0	9.349979763799638E+001	3.9661157E-001	-1.5220648E-005
3	0	9.399979762536532E+001	3.9701349E-001	-1.1064836E-004
3	0	9.449979761273426E+001	3.9710227E-001	-9.1562819E-005
3	0	9.499979760010319E+001	3.9706954E-001	-1.8699054E-004
3	0	9.549979758747213E+001	3.9702603E-001	-5.3391734E-005
3	0	9.599979757484107E+001	3.9671171E-001	-7.2477276E-005
3	0	9.649979756221001E+001	3.9630821E-001	-1.2973390E-004
3	0	9.699979754957894E+001	3.9620286E-001	2.2950437E-005
3	0	9.749979753694788E+001	3.9646044E-001	2.2950437E-005
3	0	9.799979752431682E+001	3.9656559E-001	-1.4881945E-004
3	0	9.849979751168576E+001	3.9637035E-001	-7.2477276E-005
3	0	9.899979749905469E+001	3.9611849E-001	4.2035979E-005
3	0	9.949979748642363E+001	3.9584339E-001	2.2950437E-005
3	0	9.999979747379257E+001	3.9533314E-001	-1.5220648E-005
3	0	1.004997974611615E+002	3.9466688E-001	2.2950437E-005
3	0	1.009997974485304E+002	3.9435092E-001	-7.2477276E-005
3	0	1.014997974358994E+002	3.9434144E-001	3.8648941E-006
3	0	1.019997974232683E+002	3.9416048E-001	3.8648941E-006
3	0	1.024997974106373E+002	3.9374638E-001	-9.1562819E-005
3	0	1.029997973980062E+002	3.9327294E-001	2.2950437E-005
3	0	1.034997973853751E+002	3.9278740E-001	-1.6790499E-004
3	0	1.039997973727441E+002	3.9209160E-001	-2.4424717E-004
3	0	1.044997973601130E+002	3.9131576E-001	-1.2973390E-004
3	0	1.049997973474819E+002	3.9083514E-001	-7.2477276E-005
3	0	1.054997973348509E+002	3.9074549E-001	3.8648941E-006
3	0	1.059997973222198E+002	3.9049441E-001	4.2035979E-005
3	0	1.064997973095888E+002	3.8998482E-001	6.1121522E-005
3	0	1.069997972969577E+002	3.8944945E-001	1.1837815E-004
3	0	1.074997972843266E+002	3.8895568E-001	-1.5220648E-005
3	0	1.079997972716956E+002	3.8832557E-001	-1.5220648E-005
3	0	1.084997972590645E+002	3.8762179E-001	-1.4881945E-004
3	0	1.089997972464334E+002	3.8726941E-001	-1.1064836E-004
3	0	1.094997972338024E+002	3.8733944E-001	1.1837815E-004
3	0	1.099997972211713E+002	3.8737327E-001	-3.4306191E-005
3	0	1.104997972085403E+002	3.8729420E-001	1.1837815E-004
3	0	1.109997971959092E+002	3.8727066E-001	-3.4306191E-005
3	0	1.114997971832781E+002	3.8731229E-001	4.2035979E-005
3	0	1.119997971706471E+002	3.8726372E-001	-1.5220648E-005
3	0	1.124997971580160E+002	3.8710409E-001	-1.6790499E-004
3	0	1.129997971453849E+002	3.8726470E-001	6.1121522E-005
3	0	1.134997971327539E+002	3.8770849E-001	-2.4424717E-004
3	0	1.139997971201228E+002	3.8796744E-001	-3.4306191E-005
3	0	1.144997971074918E+002	3.8800240E-001	-1.2973390E-004
3	0	1.149997970948607E+002	3.8796899E-001	-3.4306191E-005
3	0	1.154997970822296E+002	3.8788417E-001	1.5654923E-004
3	0	1.159997970695986E+002	3.8765499E-001	-1.1064836E-004
3	0	1.164997970569675E+002	3.8720813E-001	-1.5220648E-005
3	0	1.169997970443364E+002	3.8702196E-001	-3.4306191E-005
3	0	1.174997970317054E+002	3.8713309E-001	-1.2973390E-004
3	0	1.179997970190743E+002	3.8708100E-001	-9.1562819E-005
3	0	1.184997970064433E+002	3.8685030E-001	3.8648941E-006
3	0	1.189997969938122E+002	3.8658765E-001	8.0207064E-005
3	0	1.194997969811811E+002	3.8626763E-001	-2.0607607E-004
3	0	1.199997969685501E+002	3.8577628E-001	-5.3391734E-005
3	0	1.204997969559190E+002	3.8513637E-001	-5.3391734E-005
3	0	1.209997969432879E+002	3.8475129E-001	-9.1562819E-005
3	0	1.214997969306569E+002	3.8470060E-001	6.1121522E-005
3	0	1.219997969180258E+002	3.8452247E-001	-5.3391734E-005
3	0	1.224997969053948E+002	3.8416749E-001	-7.2477276E-005
3	0	1.229997968927637E+002	3.8380986E-001	4.2035979E-005
3	0	1.234997968801326E+002	3.8335586E-001	-7.2477276E-005
3	0	1.239997968675016E+002	3.8281474E-001	-3.4306191E-005
3	0	1.244997968548705E+002	3.8218841E-001	-3.4306191E-005
3	0	1.249997968422394E+002	3.8180724E-001	4.2035979E-005
3	0	1.254997968296084E+002	3.8167888E-001	4.2035979E-005
3	0	1.259997968169773E+002	3.8144997E-001	-7.2477276E-005
3	0	1.264997968043463E+002	3.8106966E-001	-1.2973390E-004
3	0	1.269997967917152E+002	3.8068005E-001	-7.2477276E-005
3	0	1.274997967790841E+002	3.8026083E-001	3.8648941E-006
3	0	1.279997967664531E+002	3.7970605E-001	-1.4881945E-004
3	0	1.284997967538220E+002	3.7904707E-001	3.8648941E-006
3	0	1.289997967411909E+002	3.7868151E-001	-9.1562819E-005
3	0	1.294997967285599E+002	3.7866756E-001	-9.1562819E-005
3	0	1.299997967159288E+002	3.7863716E-001	-3.4306191E-005
3	0	1.304997967032978E+002	3.7853903E-001	-5.3391734E-005
3	0	1.309997966906667E+002	3.7851366E-001	4.2035979E-005
3	0	1.314997966780356E+002	3.7853429E-001	-1.8699054E-004
3	0	1.319997966654046E+002	3.7849522E-001	-3.4306191E-005
3	0	1.324997966527735E+002	3.7838611E-001	3.8648941E-006
3	0	1.329997966401424E+002	3.7848228E-001	-1.8699054E-004
3	0	1.334997966275114E+002	3.7886280E-001	-9.1562819E-005
3	0	1.339997966148803E+002	3.7909055E-001	8.0207064E-005
3	0	1.344997966022493E+002	3.7914851E-001	-1.5220648E-005
3	0	1.349997965896182E+002	3.7913832E-001	-1.4881945E-004
3	0	1.354997965769871E+002	3.7905544E-001	6.1121522E-005
3	0	1.359997965643561E+002	3.7877831E-001	-7.2477276E-005
3	0	1.364997965517250E+002	3.7839034E-001	-7.2477276E-005
3	0	1.369997965390940E+002	3.7824023E-001	-9.1562819E-005
3	0	1.374997965264629E+002	3.7832087E-001	-2.0607607E-004
3	0	1.379997965138318E+002	3.7827003E-001	-3.4306191E-005
3	0	1.384997965012008E+002	3.7808415E-001	-5.3391734E-005
3	0	1.389997964885697E+002	3.7786430E-001	-3.4306191E-005
3	0	1.394997964759386E+002	3.7758720E-001	6.1121522E-005
3	0	1.399997964633076E+002	3.7714595E-001	-7.2477276E-005
3	0	1.404997964506765E+002	3.7661451E-001	-1.6790499E-004
3	0	1.409997964380455E+002	3.7628788E-001	4.2035979E-005
3	0	1.414997964254144E+002	3.7623578E-001	-7.2477276E-005
3	0	1.419997964127833E+002	3.7606737E-001	3.8648941E-006
3	0	1.424997964001523E+002	3.7577513E-001	-3.4306191E-005
3	0	1.429997963875212E+002	3.7545851E-001	-1.1064836E-004
3	0	1.434997963748901E+002	3.7511310E-001	-2.4424717E-004
3	0	1.439997963622591E+002	3.7463257E-001	2.2950437E-005
3	0	1.444997963496280E+002	3.7406874E-001	3.8648941E-006
3	0	1.449997963369970E+002	3.7369761E-001	-1.2973390E-004
3	0	1.454997963243659E+002	3.7359974E-001	4.2035979E-005
3	0	1.459997963117348E+002	3.7340119E-001	4.2035979E-005
3	0	1.464997962991038E+002	3.7311158E-001	3.8648941E-006
3	0	1.469997962864727E+002	3.7280330E-001	-1.1064836E-004
3	0	1.474997962738416E+002	3.7243551E-001	2.2950437E-005
3	0	1.479997962612106E+002	3.7191716E-001	-5.3391734E-005
3	0	1.484997962485795E+002	3.7134752E-001	-5.3391734E-005
3	0	1.489997962359485E+002	3.7098569E-001	3.8648941E-006
3	0	1.494997962233174E+002	3.7092656E-001	-2.2516162E-004
3	0	1.499997962106863E+002	3.7086007E-001	4.2035979E-005
3	0	1.504997961980553E+002	3.7078375E-001	-3.4306191E-005
3	0	1.509997961854242E+002	3.7081239E-001	-2.4424717E-004
3	0	1.514997961727931E+002	3.7085646E-001	2.2950437E-005
3	0	1.519997961601621E+002	3.7084025E-001	-3.4306191E-005
3	0	1.524997961475310E+002	3.7076715E-001	2.2950437E-005
3	0	1.529997961349000E+002	3.7089327E-001	-7.2477276E-005
3	0	1.534997961222689E+002	3.7124208E-001	4.2035979E-005
3	0	1.539997961096378E+002	3.7145838E-001	4.2035979E-005
3	0	1.544997960970068E+002	3.7151718E-001	-1.6790499E-004
3	0	1.549997960843757E+002	3.7153453E-001	3.8648941E-006
3	0	1.554997960717446E+002	3.7146467E-001	-1.5220648E-005
3	0	1.559997960591136E+002	3.7124228E-001	-1.2973390E-004
3	0	1.564997960464825E+002	3.7095606E-001	-1.8699054E-004
3	0	1.569997960338515E+002	3.7079498E-001	2.2950437E-005
3	0	1.574997960212204E+002	3.7086871E-001	-9.1562819E-005
3	0	1.579997960085893E+002	3.7084475E-001	-5.3391734E-005
3	0	1.584997959959583E+002	3.7069628E-001	-7.2477276E-005
3	0	1.589997959833272E+002	3.7051275E-001	-1.2973390E-004
3	0	1.594997959706961E+002	3.7027240E-001	-9.1562819E-005
3	0	1.599997959580651E+002	3.6991197E-001	3.8648941E-006
3	0	1.604997959454340E+002	3.6945561E-001	-1.5220648E-005
3	0	1.609997959328030E+002	3.6918688E-001	6.1121522E-005
3	0	1.614997959201719E+002	3.6913499E-001	-5.3391734E-005
3	0	1.619997959075408E+002	3.6899129E-001	-1.5220648E-005
3	0	1.624997958949098E+002	3.6872572E-001	3.8648941E-006
3	0	1.629997958822787E+002	3.6841407E-001	-5.3391734E-005
3	0	1.634997958696476E+002	3.6809456E-001	-1.1064836E-004
3	0	1.639997958570166E+002	3.6764580E-001	-1.8699054E-004
3	0	1.644997958443855E+002	3.6707646E-001	3.8648941E-006
3	0	1.649997958317545E+002	3.6670524E-001	-3.4306191E-005
3	0	1.650001958317444E+002	3.6661488E-001	-2.2516162E-004