EC-Lab ASCII FILE
Nb header lines : 55                          

Open Circuit Voltage

Run on channel : 1 (SN 81504)
User : 
CE vs. WE compliance from -10 V to 10 V
Electrode connection : standard
Potential control : Ewe
Ewe ctrl range : min = -2.50 V, max = 2.50 V
Safety Limits :
	Do not start on E overload
Acquisition started on : 05/10/2026 02:45:19.470
Loaded Setting File :  C:\PEM-WE_measurements\2026\372_IV_IV IrOx, 5 min Pt, 30 min C, etched cathode\new station\Loopeis new\1,46 V different time gaps closed cell\Loopeis 1,46V_60s_4_PEIS from 650Hz to 100Hz.mps
Saved on :
	File : L_14_Loopeis 1,46V_60s_4_PEIS from 650Hz to 100Hz_12_OCV_C01.mpr
	Directory : C:\PEM-WE_measurements\2026\372_IV_IV IrOx, 5 min Pt, 30 min C, etched cathode\new station\Loopeis new\1,46 V different time gaps closed cell\
	Host : 192.168.0.2
Device : SP-150e (SN .005491)
Address : 192.168.0.91
EC-LAB for windows v11.71 (software)
Internet server v28.00 (firmware)
Command interpretor v14.01 (firmware)
Electrode material : 
Initial state : 
Electrolyte : 
Comments : 
Current amplifier : SP-150eB-20A
Electrode surface area : 0.001 cm²
Characteristic mass : 0.001 g
Equivalent Weight : 0.000 g/eq.
Density : 0.000 g/cm3
Volume (V) : 0.001 cm³
Record Analogic IN 1
Text export
   Mode : Standard
   Time format : Elapsed
Cycle Definition : Charge/Discharge alternance
External device configuration :
   device type : Temperature Probe
   device name : Other
   Analog IN 1 : 
      unit : T/Â°C
      max : 100.000 at 2.000 V
      min : 0.000 at 1.460 V
tR (h:m:s)          0:01:0.0000         
dER/dt (mV/h)       1.0                 
record              <Ewe>               
dER (mV)            10.00               
dtR (s)             0.5000              
E range min (V)     -2.500              
E range max (V)     2.500               

mode	error	time/s	<Ewe/V>	Analog IN 1/V	
3	0	5.739809955772944E+002	1.1780094E+000	-2.7037326E+002
3	0	5.744809955646633E+002	1.2600851E+000	-2.7038385E+002
3	0	5.749809955520323E+002	1.2637893E+000	-2.7038742E+002
3	0	5.754809955394012E+002	1.2658873E+000	-2.7035205E+002
3	0	5.759809955267701E+002	1.2672187E+000	-2.7037677E+002
3	0	5.764809955141391E+002	1.2681060E+000	-2.7038031E+002
3	0	5.769809955015080E+002	1.2687174E+000	-2.7038742E+002
3	0	5.774809954888769E+002	1.2691028E+000	-2.7038742E+002
3	0	5.779809954762459E+002	1.2692912E+000	-2.7038742E+002
3	0	5.784809954636148E+002	1.2693334E+000	-2.7038031E+002
3	0	5.789809954509838E+002	1.2693751E+000	-2.7035913E+002
3	0	5.794809954383527E+002	1.2693994E+000	-2.7036618E+002
3	0	5.799809954257216E+002	1.2693782E+000	-2.7039447E+002
3	0	5.804809954130906E+002	1.2693346E+000	-2.7038031E+002
3	0	5.809809954004595E+002	1.2692702E+000	-2.7039801E+002
3	0	5.814809953878284E+002	1.2691779E+000	-2.7037677E+002
3	0	5.819809953751974E+002	1.2690277E+000	-2.7037677E+002
3	0	5.824809953625663E+002	1.2688397E+000	-2.7037326E+002
3	0	5.829809953499353E+002	1.2687414E+000	-2.7038385E+002
3	0	5.834809953373042E+002	1.2687079E+000	-2.7038031E+002
3	0	5.839809953246731E+002	1.2686704E+000	-2.7036618E+002
3	0	5.844809953120421E+002	1.2686439E+000	-2.7038742E+002
3	0	5.849809952994110E+002	1.2686361E+000	-2.7038742E+002
3	0	5.854809952867799E+002	1.2686143E+000	-2.7038031E+002
3	0	5.859809952741489E+002	1.2685263E+000	-2.7039447E+002
3	0	5.864809952615178E+002	1.2683995E+000	-2.7036618E+002
3	0	5.869809952488868E+002	1.2683779E+000	-2.7036972E+002
3	0	5.874809952362557E+002	1.2684113E+000	-2.7040860E+002
3	0	5.879809952236246E+002	1.2684336E+000	-2.7038385E+002
3	0	5.884809952109936E+002	1.2684608E+000	-2.7036972E+002
3	0	5.889809951983625E+002	1.2684839E+000	-2.7038385E+002
3	0	5.894809951857314E+002	1.2684805E+000	-2.7035205E+002
3	0	5.899809951731004E+002	1.2684089E+000	-2.7039801E+002
3	0	5.904809951604693E+002	1.2682762E+000	-2.7038742E+002
3	0	5.909809951478383E+002	1.2682319E+000	-2.7037677E+002
3	0	5.914809951352072E+002	1.2682337E+000	-2.7036972E+002
3	0	5.919809951225761E+002	1.2682260E+000	-2.7035205E+002
3	0	5.924809951099451E+002	1.2682064E+000	-2.7039093E+002
3	0	5.929809950973140E+002	1.2681913E+000	-2.7033084E+002
3	0	5.934809950846829E+002	1.2681413E+000	-2.7037326E+002
3	0	5.939809950720519E+002	1.2680299E+000	-2.7038031E+002
3	0	5.944809950594208E+002	1.2678574E+000	-2.7040860E+002
3	0	5.949809950467898E+002	1.2677624E+000	-2.7037326E+002
3	0	5.954809950341587E+002	1.2677219E+000	-2.7036972E+002
3	0	5.959809950215276E+002	1.2676754E+000	-2.7038385E+002
3	0	5.964809950088966E+002	1.2676237E+000	-2.7037677E+002
3	0	5.969809949962655E+002	1.2675693E+000	-2.7039801E+002
3	0	5.974809949836344E+002	1.2674888E+000	-2.7040860E+002
3	0	5.979809949710034E+002	1.2673359E+000	-2.7037326E+002
3	0	5.984809949583723E+002	1.2671245E+000	-2.7038742E+002
3	0	5.989809949457413E+002	1.2670133E+000	-2.7036972E+002
3	0	5.994809949331102E+002	1.2669600E+000	-2.7040155E+002
3	0	5.999809949204791E+002	1.2669175E+000	-2.7039801E+002
3	0	6.004809949078481E+002	1.2668846E+000	-2.7039447E+002
3	0	6.009809948952170E+002	1.2668660E+000	-2.7036972E+002
3	0	6.014809948825859E+002	1.2668388E+000	-2.7037677E+002
3	0	6.019809948699549E+002	1.2667413E+000	-2.7037326E+002
3	0	6.024809948573238E+002	1.2665901E+000	-2.7037326E+002
3	0	6.029809948446928E+002	1.2665362E+000	-2.7038385E+002
3	0	6.034809948320617E+002	1.2665367E+000	-2.7036972E+002
3	0	6.039809948194306E+002	1.2665241E+000	-2.7034851E+002
3	0	6.044809948067996E+002	1.2665075E+000	-2.7037326E+002
3	0	6.049809947941685E+002	1.2664851E+000	-2.7039801E+002
3	0	6.054809947815374E+002	1.2664384E+000	-2.7038031E+002
3	0	6.059809947689064E+002	1.2663227E+000	-2.7039801E+002
3	0	6.064809947562753E+002	1.2661505E+000	-2.7038031E+002
3	0	6.069809947436443E+002	1.2660558E+000	-2.7038031E+002
3	0	6.074809947310132E+002	1.2660155E+000	-2.7040506E+002
3	0	6.079809947183821E+002	1.2659559E+000	-2.7038742E+002
3	0	6.084809947057511E+002	1.2658856E+000	-2.7041568E+002
3	0	6.089809946931200E+002	1.2658200E+000	-2.7037677E+002
3	0	6.094809946804889E+002	1.2657068E+000	-2.7036972E+002
3	0	6.099809946678579E+002	1.2655294E+000	-2.7038742E+002
3	0	6.104809946552268E+002	1.2652969E+000	-2.7037326E+002
3	0	6.109809946425958E+002	1.2651415E+000	-2.7035913E+002
3	0	6.114809946299647E+002	1.2650306E+000	-2.7037677E+002
3	0	6.119809946173336E+002	1.2649003E+000	-2.7037326E+002
3	0	6.124809946047026E+002	1.2647686E+000	-2.7037677E+002
3	0	6.129809945920715E+002	1.2646375E+000	-2.7036972E+002
3	0	6.134809945794404E+002	1.2644802E+000	-2.7036618E+002
3	0	6.139809945668094E+002	1.2642496E+000	-2.7039447E+002
3	0	6.144809945541783E+002	1.2639555E+000	-2.7038742E+002
3	0	6.149809945415473E+002	1.2637525E+000	-2.7039447E+002
3	0	6.154809945289162E+002	1.2635901E+000	-2.7039447E+002
3	0	6.159809945162851E+002	1.2634159E+000	-2.7038031E+002
3	0	6.164809945036541E+002	1.2632416E+000	-2.7039801E+002
3	0	6.169809944910230E+002	1.2630686E+000	-2.7038385E+002
3	0	6.174809944783919E+002	1.2628536E+000	-2.7037326E+002
3	0	6.179809944657609E+002	1.2625821E+000	-2.7038031E+002
3	0	6.184809944531298E+002	1.2622693E+000	-2.7039447E+002
3	0	6.189809944404988E+002	1.2620379E+000	-2.7038031E+002
3	0	6.194809944278677E+002	1.2618678E+000	-2.7037677E+002
3	0	6.199809944152366E+002	1.2617092E+000	-2.7037677E+002
3	0	6.204809944026056E+002	1.2615627E+000	-2.7036618E+002
3	0	6.209809943899745E+002	1.2614278E+000	-2.7038742E+002
3	0	6.214809943773435E+002	1.2612845E+000	-2.7038385E+002
3	0	6.219809943647124E+002	1.2610775E+000	-2.7037326E+002
3	0	6.224809943520813E+002	1.2608187E+000	-2.7037677E+002
3	0	6.229809943394503E+002	1.2606604E+000	-2.7039093E+002
3	0	6.234809943268192E+002	1.2605503E+000	-2.7038385E+002
3	0	6.239809943141881E+002	1.2604395E+000	-2.7036618E+002
3	0	6.244809943015571E+002	1.2603245E+000	-2.7037326E+002
3	0	6.249809942889260E+002	1.2602116E+000	-2.7039801E+002
3	0	6.254809942762950E+002	1.2600806E+000	-2.7039093E+002
3	0	6.259809942636639E+002	1.2598785E+000	-2.7038742E+002
3	0	6.264809942510328E+002	1.2596148E+000	-2.7038742E+002
3	0	6.269809942384018E+002	1.2594330E+000	-2.7038385E+002
3	0	6.274809942257707E+002	1.2593052E+000	-2.7036267E+002
3	0	6.279809942131396E+002	1.2591715E+000	-2.7037326E+002
3	0	6.284809942005086E+002	1.2590281E+000	-2.7037326E+002
3	0	6.289809941878775E+002	1.2588750E+000	-2.7038742E+002
3	0	6.294809941752465E+002	1.2586945E+000	-2.7037677E+002
3	0	6.299809941626154E+002	1.2584466E+000	-2.7038742E+002
3	0	6.304809941499843E+002	1.2581393E+000	-2.7038385E+002
3	0	6.309809941373533E+002	1.2579120E+000	-2.7038031E+002
3	0	6.314809941247222E+002	1.2577323E+000	-2.7035913E+002
3	0	6.319809941120911E+002	1.2575437E+000	-2.7036267E+002
3	0	6.324809940994601E+002	1.2573479E+000	-2.7038031E+002
3	0	6.329809940868290E+002	1.2571524E+000	-2.7037677E+002
3	0	6.334809940741980E+002	1.2569195E+000	-2.7040506E+002
3	0	6.335055940735765E+002	1.2567637E+000	-2.7040155E+002