EC-Lab ASCII FILE
Nb header lines : 55                          

Open Circuit Voltage

Run on channel : 1 (SN 81504)
User : 
CE vs. WE compliance from -10 V to 10 V
Electrode connection : standard
Potential control : Ewe
Ewe ctrl range : min = -2.50 V, max = 2.50 V
Safety Limits :
	Do not start on E overload
Acquisition started on : 05/10/2026 06:22:15.566
Loaded Setting File :  C:\PEM-WE_measurements\2026\372_IV_IV IrOx, 5 min Pt, 30 min C, etched cathode\new station\Loopeis new\1,46 V different time gaps closed cell\Loopeis 1,46V_120s_3_PEIS from 6500Hz to 1000Hz.mps
Saved on :
	File : L_23_Loopeis 1,46V_120s_3_PEIS from 6500Hz to 1000Hz_12_OCV_C01.mpr
	Directory : C:\PEM-WE_measurements\2026\372_IV_IV IrOx, 5 min Pt, 30 min C, etched cathode\new station\Loopeis new\1,46 V different time gaps closed cell\
	Host : 192.168.0.2
Device : SP-150e (SN .005491)
Address : 192.168.0.91
EC-LAB for windows v11.71 (software)
Internet server v28.00 (firmware)
Command interpretor v14.01 (firmware)
Electrode material : 
Initial state : 
Electrolyte : 
Comments : 
Current amplifier : SP-150eB-20A
Electrode surface area : 0.001 cm²
Characteristic mass : 0.001 g
Equivalent Weight : 0.000 g/eq.
Density : 0.000 g/cm3
Volume (V) : 0.001 cm³
Record Analogic IN 1
Text export
   Mode : Standard
   Time format : Elapsed
Cycle Definition : Charge/Discharge alternance
External device configuration :
   device type : Temperature Probe
   device name : Other
   Analog IN 1 : 
      unit : T/Â°C
      max : 100.000 at 2.000 V
      min : 0.000 at 1.460 V
tR (h:m:s)          0:02:0.0000         
dER/dt (mV/h)       1.0                 
record              <Ewe>               
dER (mV)            10.00               
dtR (s)             0.5000              
E range min (V)     -2.500              
E range max (V)     2.500               

mode	error	time/s	<Ewe/V>	Analog IN 1/V	
3	0	8.726199879339401E+002	1.1243824E+000	-2.7038385E+002
3	0	8.731199879213091E+002	1.2593926E+000	-2.7037677E+002
3	0	8.736199879086780E+002	1.2576531E+000	-2.7038385E+002
3	0	8.741199878960470E+002	1.2508365E+000	-2.7036267E+002
3	0	8.746199878834159E+002	1.2369140E+000	-2.7038031E+002
3	0	8.751199878707848E+002	1.2126740E+000	-2.7038031E+002
3	0	8.756199878581538E+002	1.1725664E+000	-2.7037326E+002
3	0	8.761199878455227E+002	1.1021944E+000	-2.7039093E+002
3	0	8.766199878328916E+002	9.2186242E-001	-2.7038031E+002
3	0	8.771199878202606E+002	5.8847481E-001	-2.7039447E+002
3	0	8.776199878076295E+002	4.5014930E-001	-2.7039447E+002
3	0	8.781199877949985E+002	4.0390077E-001	-2.7037677E+002
3	0	8.786199877823674E+002	3.9058053E-001	-2.7038385E+002
3	0	8.791199877697363E+002	3.8553464E-001	-2.7039093E+002
3	0	8.796199877571053E+002	3.8235790E-001	-2.7038742E+002
3	0	8.801199877444742E+002	3.7979525E-001	-2.7038385E+002
3	0	8.806199877318431E+002	3.7739486E-001	-2.7041214E+002
3	0	8.811199877192121E+002	3.7502939E-001	-2.7039447E+002
3	0	8.816199877065810E+002	3.7327707E-001	-2.7037326E+002
3	0	8.821199876939500E+002	3.7259269E-001	-2.7037326E+002
3	0	8.826199876813189E+002	3.7190393E-001	-2.7036972E+002
3	0	8.831199876686878E+002	3.7102833E-001	-2.7038031E+002
3	0	8.836199876560568E+002	3.7020206E-001	-2.7038385E+002
3	0	8.841199876434257E+002	3.6954173E-001	-2.7039093E+002
3	0	8.846199876307946E+002	3.6885646E-001	-2.7038385E+002
3	0	8.851199876181636E+002	3.6811781E-001	-2.7037326E+002
3	0	8.856199876055325E+002	3.6781588E-001	-2.7037677E+002
3	0	8.861199875929015E+002	3.6835766E-001	-2.7036972E+002
3	0	8.866199875802704E+002	3.6891654E-001	-2.7036267E+002
3	0	8.871199875676393E+002	3.6935246E-001	-2.7037326E+002
3	0	8.876199875550083E+002	3.6980617E-001	-2.7036972E+002
3	0	8.881199875423772E+002	3.7041777E-001	-2.7036972E+002
3	0	8.886199875297461E+002	3.7089154E-001	-2.7036972E+002
3	0	8.891199875171151E+002	3.7118456E-001	-2.7036618E+002
3	0	8.896199875044840E+002	3.7164265E-001	-2.7038385E+002
3	0	8.901199874918530E+002	3.7270516E-001	-2.7038031E+002
3	0	8.906199874792219E+002	3.7358013E-001	-2.7037677E+002
3	0	8.911199874665908E+002	3.7406468E-001	-2.7036972E+002
3	0	8.916199874539598E+002	3.7447307E-001	-2.7040155E+002
3	0	8.921199874413287E+002	3.7488917E-001	-2.7038031E+002
3	0	8.926199874286976E+002	3.7509659E-001	-2.7041214E+002
3	0	8.931199874160666E+002	3.7503710E-001	-2.7040155E+002
3	0	8.936199874034355E+002	3.7513781E-001	-2.7039801E+002
3	0	8.941199873908045E+002	3.7589151E-001	-2.7038031E+002
3	0	8.946199873781734E+002	3.7646681E-001	-2.7039447E+002
3	0	8.951199873655423E+002	3.7671795E-001	-2.7040506E+002
3	0	8.956199873529113E+002	3.7687778E-001	-2.7039447E+002
3	0	8.961199873402802E+002	3.7704521E-001	-2.7039093E+002
3	0	8.966199873276491E+002	3.7699798E-001	-2.7038742E+002
3	0	8.971199873150181E+002	3.7670457E-001	-2.7037677E+002
3	0	8.976199873023870E+002	3.7661958E-001	-2.7037677E+002
3	0	8.981199872897560E+002	3.7714803E-001	-2.7038031E+002
3	0	8.986199872771249E+002	3.7751243E-001	-2.7036267E+002
3	0	8.991199872644938E+002	3.7757424E-001	-2.7039093E+002
3	0	8.996199872518628E+002	3.7755844E-001	-2.7035205E+002
3	0	9.001199872392317E+002	3.7749225E-001	-2.7038742E+002
3	0	9.006199872266006E+002	3.7723684E-001	-2.7037677E+002
3	0	9.011199872139696E+002	3.7677109E-001	-2.7039093E+002
3	0	9.016199872013385E+002	3.7650064E-001	-2.7037677E+002
3	0	9.021199871887075E+002	3.7678805E-001	-2.7038742E+002
3	0	9.026199871760764E+002	3.7697539E-001	-2.7039801E+002
3	0	9.031199871634453E+002	3.7691802E-001	-2.7039093E+002
3	0	9.036199871508143E+002	3.7676603E-001	-2.7039447E+002
3	0	9.041199871381832E+002	3.7665543E-001	-2.7040155E+002
3	0	9.046199871255521E+002	3.7639409E-001	-2.7041214E+002
3	0	9.051199871129211E+002	3.7589011E-001	-2.7037677E+002
3	0	9.056199871002900E+002	3.7566188E-001	-2.7038031E+002
3	0	9.061199870876590E+002	3.7613952E-001	-2.7039447E+002
3	0	9.066199870750279E+002	3.7658787E-001	-2.7040155E+002
3	0	9.071199870623968E+002	3.7688267E-001	-2.7036972E+002
3	0	9.076199870497658E+002	3.7720057E-001	-2.7036618E+002
3	0	9.081199870371347E+002	3.7760791E-001	-2.7038385E+002
3	0	9.086199870245036E+002	3.7790248E-001	-2.7036267E+002
3	0	9.091199870118726E+002	3.7800196E-001	-2.7036972E+002
3	0	9.096199869992415E+002	3.7825471E-001	-2.7037677E+002
3	0	9.101199869866105E+002	3.7904638E-001	-2.7036267E+002
3	0	9.106199869739794E+002	3.7971327E-001	-2.7040506E+002
3	0	9.111199869613483E+002	3.8006854E-001	-2.7039447E+002
3	0	9.116199869487173E+002	3.8023576E-001	-2.7040506E+002
3	0	9.121199869360862E+002	3.8035083E-001	-2.7038385E+002
3	0	9.126199869234551E+002	3.8023520E-001	-2.7035913E+002
3	0	9.131199869108241E+002	3.7990853E-001	-2.7036972E+002
3	0	9.136199868981930E+002	3.7973845E-001	-2.7036618E+002
3	0	9.141199868855620E+002	3.8010070E-001	-2.7039093E+002
3	0	9.146199868729309E+002	3.8033655E-001	-2.7038742E+002
3	0	9.151199868602998E+002	3.8025996E-001	-2.7037326E+002
3	0	9.156199868476688E+002	3.8007596E-001	-2.7036618E+002
3	0	9.161199868350377E+002	3.7986788E-001	-2.7035913E+002
3	0	9.166199868224066E+002	3.7946919E-001	-2.7036972E+002
3	0	9.171199868097756E+002	3.7879801E-001	-2.7039093E+002
3	0	9.176199867971445E+002	3.7831211E-001	-2.7037677E+002
3	0	9.181199867845135E+002	3.7841764E-001	-2.7038742E+002
3	0	9.186199867718824E+002	3.7841836E-001	-2.7038031E+002
3	0	9.191199867592513E+002	3.7816781E-001	-2.7039093E+002
3	0	9.196199867466203E+002	3.7783697E-001	-2.7038385E+002
3	0	9.201199867339892E+002	3.7754518E-001	-2.7037677E+002
3	0	9.206199867213581E+002	3.7709016E-001	-2.7039093E+002
3	0	9.211199867087271E+002	3.7636775E-001	-2.7037326E+002
3	0	9.216199866960960E+002	3.7578300E-001	-2.7036972E+002
3	0	9.221199866834650E+002	3.7568483E-001	-2.7039093E+002
3	0	9.226199866708339E+002	3.7549448E-001	-2.7035913E+002
3	0	9.231199866582028E+002	3.7510017E-001	-2.7036267E+002
3	0	9.236199866455718E+002	3.7460840E-001	-2.7037326E+002
3	0	9.241199866329407E+002	3.7415209E-001	-2.7038742E+002
3	0	9.246199866203096E+002	3.7351578E-001	-2.7034851E+002
3	0	9.251199866076786E+002	3.7273759E-001	-2.7037677E+002
3	0	9.256199865950475E+002	3.7231046E-001	-2.7036267E+002
3	0	9.261199865824165E+002	3.7246010E-001	-2.7039093E+002
3	0	9.266199865697854E+002	3.7261182E-001	-2.7036972E+002
3	0	9.271199865571543E+002	3.7263441E-001	-2.7039801E+002
3	0	9.276199865445233E+002	3.7271339E-001	-2.7040860E+002
3	0	9.281199865318922E+002	3.7289545E-001	-2.7038031E+002
3	0	9.286199865192611E+002	3.7299538E-001	-2.7039801E+002
3	0	9.291199865066301E+002	3.7289575E-001	-2.7038385E+002
3	0	9.296199864939990E+002	3.7294134E-001	-2.7035205E+002
3	0	9.301199864813680E+002	3.7338808E-001	-2.7036972E+002
3	0	9.306199864687369E+002	3.7370172E-001	-2.7036972E+002
3	0	9.311199864561058E+002	3.7377504E-001	-2.7037326E+002
3	0	9.316199864434748E+002	3.7371585E-001	-2.7038385E+002
3	0	9.321199864308437E+002	3.7362689E-001	-2.7035913E+002
3	0	9.326199864182126E+002	3.7343493E-001	-2.7038031E+002
3	0	9.331199864055816E+002	3.7304109E-001	-2.7036618E+002
3	0	9.336199863929505E+002	3.7276131E-001	-2.7037326E+002
3	0	9.341199863803195E+002	3.7294585E-001	-2.7037677E+002
3	0	9.346199863676884E+002	3.7302953E-001	-2.7038031E+002
3	0	9.351199863550573E+002	3.7286961E-001	-2.7037677E+002
3	0	9.356199863424263E+002	3.7259153E-001	-2.7037677E+002
3	0	9.361199863297952E+002	3.7231046E-001	-2.7039447E+002
3	0	9.366199863171641E+002	3.7186554E-001	-2.7038385E+002
3	0	9.371199863045331E+002	3.7122110E-001	-2.7037677E+002
3	0	9.376199862919020E+002	3.7077460E-001	-2.7038385E+002
3	0	9.381199862792710E+002	3.7076539E-001	-2.7038742E+002
3	0	9.386199862666399E+002	3.7064555E-001	-2.7037326E+002
3	0	9.391199862540088E+002	3.7032276E-001	-2.7035913E+002
3	0	9.396199862413778E+002	3.6990345E-001	-2.7036267E+002
3	0	9.401199862287467E+002	3.6952206E-001	-2.7036972E+002
3	0	9.406199862161156E+002	3.6898148E-001	-2.7039447E+002
3	0	9.411199862034846E+002	3.6830854E-001	-2.7039093E+002
3	0	9.416199861908535E+002	3.6778429E-001	-2.7037326E+002
3	0	9.421199861782225E+002	3.6771137E-001	-2.7036972E+002
3	0	9.426199861655914E+002	3.6757863E-001	-2.7037326E+002
3	0	9.431199861529603E+002	3.6723518E-001	-2.7038742E+002
3	0	9.436199861403293E+002	3.6680263E-001	-2.7037326E+002
3	0	9.441199861276982E+002	3.6639300E-001	-2.7036267E+002
3	0	9.446199861150672E+002	3.6588770E-001	-2.7035913E+002
3	0	9.451199861024361E+002	3.6526659E-001	-2.7039447E+002
3	0	9.456199860898050E+002	3.6480531E-001	-2.7039801E+002
3	0	9.461199860771740E+002	3.6483166E-001	-2.7036267E+002
3	0	9.466199860645429E+002	3.6487475E-001	-2.7036618E+002
3	0	9.471199860519118E+002	3.6481541E-001	-2.7038031E+002
3	0	9.476199860392808E+002	3.6477044E-001	-2.7038742E+002
3	0	9.481199860266497E+002	3.6485168E-001	-2.7038385E+002
3	0	9.486199860140187E+002	3.6492297E-001	-2.7038031E+002
3	0	9.491199860013876E+002	3.6482328E-001	-2.7036618E+002
3	0	9.496199859887565E+002	3.6489978E-001	-2.7039093E+002
3	0	9.501199859761255E+002	3.6533019E-001	-2.7036618E+002
3	0	9.506199859634944E+002	3.6559978E-001	-2.7038742E+002
3	0	9.511199859508633E+002	3.6565515E-001	-2.7038031E+002
3	0	9.516199859382323E+002	3.6566556E-001	-2.7036972E+002
3	0	9.521199859256012E+002	3.6564752E-001	-2.7035559E+002
3	0	9.526199859129702E+002	3.6549652E-001	-2.7037326E+002
3	0	9.531199859003391E+002	3.6512440E-001	-2.7037326E+002
3	0	9.536199858877080E+002	3.6486638E-001	-2.7038742E+002
3	0	9.541199858750770E+002	3.6497721E-001	-2.7038385E+002
3	0	9.546199858624459E+002	3.6497855E-001	-2.7036618E+002
3	0	9.551199858498148E+002	3.6479649E-001	-2.7038031E+002
3	0	9.556199858371838E+002	3.6453807E-001	-2.7038031E+002
3	0	9.561199858245527E+002	3.6428532E-001	-2.7036618E+002
3	0	9.566199858119217E+002	3.6392644E-001	-2.7035913E+002
3	0	9.571199857992906E+002	3.6338961E-001	-2.7038742E+002
3	0	9.576199857866595E+002	3.6295441E-001	-2.7038385E+002
3	0	9.581199857740285E+002	3.6290944E-001	-2.7036267E+002
3	0	9.586199857613974E+002	3.6281851E-001	-2.7040155E+002
3	0	9.591199857487663E+002	3.6256301E-001	-2.7039801E+002
3	0	9.596199857361353E+002	3.6220846E-001	-2.7037677E+002
3	0	9.601199857235042E+002	3.6187461E-001	-2.7037326E+002
3	0	9.606199857108732E+002	3.6139438E-001	-2.7038742E+002
3	0	9.611199856982421E+002	3.6083406E-001	-2.7036618E+002
3	0	9.616199856856110E+002	3.6036485E-001	-2.7037326E+002
3	0	9.621199856729800E+002	3.6027873E-001	-2.7040155E+002
3	0	9.626199856603489E+002	3.6012423E-001	-2.7037326E+002
3	0	9.631199856477178E+002	3.5983276E-001	-2.7037677E+002
3	0	9.636199856350868E+002	3.5947675E-001	-2.7038742E+002
3	0	9.641199856224557E+002	3.5913581E-001	-2.7038031E+002
3	0	9.646199856098247E+002	3.5867032E-001	-2.7039093E+002
3	0	9.651199855971936E+002	3.5810104E-001	-2.7036267E+002
3	0	9.656199855845625E+002	3.5766494E-001	-2.7039447E+002
3	0	9.661199855719315E+002	3.5766986E-001	-2.7036267E+002
3	0	9.666199855593004E+002	3.5770538E-001	-2.7037326E+002
3	0	9.671199855466693E+002	3.5766515E-001	-2.7039447E+002
3	0	9.676199855340383E+002	3.5763732E-001	-2.7037677E+002
3	0	9.681199855214072E+002	3.5769403E-001	-2.7035913E+002
3	0	9.686199855087762E+002	3.5768858E-001	-2.7036267E+002
3	0	9.691199854961451E+002	3.5762504E-001	-2.7038031E+002
3	0	9.696199854835140E+002	3.5764813E-001	-2.7037326E+002
3	0	9.701199854708830E+002	3.5797867E-001	-2.7037677E+002
3	0	9.706199854582519E+002	3.5825488E-001	-2.7038385E+002
3	0	9.711199854456208E+002	3.5835177E-001	-2.7036972E+002
3	0	9.716199854329898E+002	3.5834378E-001	-2.7037677E+002
3	0	9.721199854203587E+002	3.5828927E-001	-2.7038031E+002
3	0	9.726199854077277E+002	3.5810623E-001	-2.7036972E+002
3	0	9.731199853950966E+002	3.5773468E-001	-2.7038385E+002
3	0	9.736199853824655E+002	3.5747248E-001	-2.7037326E+002
3	0	9.741199853698345E+002	3.5752925E-001	-2.7035913E+002
3	0	9.746199853572034E+002	3.5751250E-001	-2.7038031E+002
3	0	9.751199853445723E+002	3.5737523E-001	-2.7039447E+002
3	0	9.756199853319413E+002	3.5714319E-001	-2.7036972E+002
3	0	9.761199853193102E+002	3.5691112E-001	-2.7038742E+002
3	0	9.766199853066792E+002	3.5654852E-001	-2.7039093E+002
3	0	9.771199852940481E+002	3.5604033E-001	-2.7038031E+002
3	0	9.776199852814170E+002	3.5562363E-001	-2.7038031E+002
3	0	9.781199852687860E+002	3.5556063E-001	-2.7038385E+002
3	0	9.786199852561549E+002	3.5544091E-001	-2.7035913E+002
3	0	9.791199852435238E+002	3.5518834E-001	-2.7036618E+002
3	0	9.796199852308928E+002	3.5487339E-001	-2.7038031E+002
3	0	9.801199852182617E+002	3.5454255E-001	-2.7038385E+002
3	0	9.806199852056307E+002	3.5409415E-001	-2.7038031E+002
3	0	9.811199851929996E+002	3.5358521E-001	-2.7037677E+002
3	0	9.816199851803685E+002	3.5313922E-001	-2.7039447E+002
3	0	9.821199851677375E+002	3.5300133E-001	-2.7039447E+002
3	0	9.826199851551064E+002	3.5285231E-001	-2.7036267E+002
3	0	9.831199851424753E+002	3.5258684E-001	-2.7038385E+002
3	0	9.836199851298443E+002	3.5225931E-001	-2.7040860E+002
3	0	9.841199851172132E+002	3.5193428E-001	-2.7036972E+002
3	0	9.846199851045822E+002	3.5151881E-001	-2.7037677E+002
3	0	9.851199850919511E+002	3.5097614E-001	-2.7035559E+002
3	0	9.856199850793200E+002	3.5056093E-001	-2.7038031E+002
3	0	9.861199850666890E+002	3.5050407E-001	-2.7037326E+002
3	0	9.866199850540579E+002	3.5047495E-001	-2.7038385E+002
3	0	9.871199850414268E+002	3.5042599E-001	-2.7039447E+002
3	0	9.876199850287958E+002	3.5042554E-001	-2.7037677E+002
3	0	9.881199850161647E+002	3.5047790E-001	-2.7038385E+002
3	0	9.886199850035337E+002	3.5044920E-001	-2.7036972E+002
3	0	9.891199849909026E+002	3.5036927E-001	-2.7035913E+002
3	0	9.896199849782715E+002	3.5034025E-001	-2.7036972E+002
3	0	9.901199849656405E+002	3.5060745E-001	-2.7036618E+002
3	0	9.906199849530094E+002	3.5079262E-001	-2.7036618E+002
3	0	9.911199849403783E+002	3.5084054E-001	-2.7036618E+002
3	0	9.916199849277473E+002	3.5079452E-001	-2.7040506E+002
3	0	9.921199849151162E+002	3.5072389E-001	-2.7036618E+002
3	0	9.921435849145200E+002	3.5063937E-001	-2.7037677E+002