EC-Lab ASCII FILE
Nb header lines : 55                          

Open Circuit Voltage

Run on channel : 1 (SN 81504)
User : 
CE vs. WE compliance from -10 V to 10 V
Electrode connection : standard
Potential control : Ewe
Ewe ctrl range : min = -2.50 V, max = 2.50 V
Safety Limits :
	Do not start on E overload
Acquisition started on : 05/10/2026 05:01:31.658
Loaded Setting File :  C:\PEM-WE_measurements\2026\372_IV_IV IrOx, 5 min Pt, 30 min C, etched cathode\new station\Loopeis new\1,46 V different time gaps closed cell\Loopeis 1,46V_90s_5_PEIS from 65Hz to 10Hz.mps
Saved on :
	File : L_20_Loopeis 1,46V_90s_5_PEIS from 65Hz to 10Hz_20_OCV_C01.mpr
	Directory : C:\PEM-WE_measurements\2026\372_IV_IV IrOx, 5 min Pt, 30 min C, etched cathode\new station\Loopeis new\1,46 V different time gaps closed cell\
	Host : 192.168.0.2
Device : SP-150e (SN .005491)
Address : 192.168.0.91
EC-LAB for windows v11.71 (software)
Internet server v28.00 (firmware)
Command interpretor v14.01 (firmware)
Electrode material : 
Initial state : 
Electrolyte : 
Comments : 
Current amplifier : SP-150eB-20A
Electrode surface area : 0.001 cm²
Characteristic mass : 0.001 g
Equivalent Weight : 0.000 g/eq.
Density : 0.000 g/cm3
Volume (V) : 0.001 cm³
Record Analogic IN 1
Text export
   Mode : Standard
   Time format : Elapsed
Cycle Definition : Charge/Discharge alternance
External device configuration :
   device type : Temperature Probe
   device name : Other
   Analog IN 1 : 
      unit : T/Â°C
      max : 100.000 at 2.000 V
      min : 0.000 at 1.460 V
tR (h:m:s)          0:01:30.0000        
dER/dt (mV/h)       1.0                 
record              <Ewe>               
dER (mV)            10.00               
dtR (s)             0.5000              
E range min (V)     -2.500              
E range max (V)     2.500               

mode	error	time/s	<Ewe/V>	Analog IN 1/V	
3	0	1.272531585100660E+003	1.2881701E+000	-2.7039801E+002
3	0	1.273031585088029E+003	1.2951953E+000	-2.7036618E+002
3	0	1.273531585075398E+003	1.2956531E+000	-2.7037326E+002
3	0	1.274031585062767E+003	1.2945042E+000	-2.7039447E+002
3	0	1.274531585050136E+003	1.2918950E+000	-2.7037326E+002
3	0	1.275031585037505E+003	1.2871761E+000	-2.7038385E+002
3	0	1.275531585024873E+003	1.2788948E+000	-2.7038031E+002
3	0	1.276031585012242E+003	1.2649537E+000	-2.7036618E+002
3	0	1.276531584999611E+003	1.2426205E+000	-2.7035913E+002
3	0	1.277031584986980E+003	1.2072114E+000	-2.7037326E+002
3	0	1.277531584974349E+003	1.1471529E+000	-2.7035913E+002
3	0	1.278031584961718E+003	1.0201429E+000	-2.7037326E+002
3	0	1.278531584949087E+003	7.3271513E-001	-2.7040860E+002
3	0	1.279031584936456E+003	5.7304871E-001	-2.7036267E+002
3	0	1.279531584923825E+003	5.2176064E-001	-2.7037677E+002
3	0	1.280031584911194E+003	5.0126827E-001	-2.7036972E+002
3	0	1.280531584898563E+003	4.9204275E-001	-2.7035559E+002
3	0	1.281031584885932E+003	4.8680070E-001	-2.7038742E+002
3	0	1.281531584873301E+003	4.8388952E-001	-2.7036972E+002
3	0	1.282031584860670E+003	4.8345008E-001	-2.7038385E+002
3	0	1.282531584848039E+003	4.8394451E-001	-2.7039447E+002
3	0	1.283031584835408E+003	4.8474276E-001	-2.7033789E+002
3	0	1.283531584822776E+003	4.8607752E-001	-2.7039093E+002
3	0	1.284031584810145E+003	4.8789710E-001	-2.7036267E+002
3	0	1.284531584797514E+003	4.8970920E-001	-2.7038031E+002
3	0	1.285031584784883E+003	4.9149406E-001	-2.7038385E+002
3	0	1.285531584772252E+003	4.9379742E-001	-2.7038031E+002
3	0	1.286031584759621E+003	4.9753860E-001	-2.7039093E+002
3	0	1.286531584746990E+003	5.0130099E-001	-2.7038385E+002
3	0	1.287031584734359E+003	5.0492686E-001	-2.7038742E+002
3	0	1.287531584721728E+003	5.0842410E-001	-2.7038742E+002
3	0	1.288031584709097E+003	5.1193994E-001	-2.7038742E+002
3	0	1.288531584696466E+003	5.1511663E-001	-2.7036972E+002
3	0	1.289031584683835E+003	5.1793891E-001	-2.7039447E+002
3	0	1.289531584671204E+003	5.2098763E-001	-2.7039093E+002
3	0	1.290031584658573E+003	5.2528876E-001	-2.7036618E+002
3	0	1.290531584645942E+003	5.2959871E-001	-2.7038742E+002
3	0	1.291031584633311E+003	5.3352338E-001	-2.7038385E+002
3	0	1.291531584620680E+003	5.3724933E-001	-2.7037326E+002
3	0	1.292031584608048E+003	5.4078513E-001	-2.7035559E+002
3	0	1.292531584595417E+003	5.4381973E-001	-2.7038385E+002
3	0	1.293031584582786E+003	5.4624236E-001	-2.7039093E+002
3	0	1.293531584570155E+003	5.4881257E-001	-2.7037677E+002
3	0	1.294031584557524E+003	5.5240202E-001	-2.7035205E+002
3	0	1.294531584544893E+003	5.5590147E-001	-2.7038742E+002
3	0	1.295031584532262E+003	5.5898285E-001	-2.7035559E+002
3	0	1.295531584519631E+003	5.6185687E-001	-2.7037677E+002
3	0	1.296031584507000E+003	5.6427991E-001	-2.7036972E+002
3	0	1.296531584494369E+003	5.6619954E-001	-2.7039093E+002
3	0	1.297031584481738E+003	5.6746769E-001	-2.7039801E+002
3	0	1.297531584469107E+003	5.6861424E-001	-2.7038742E+002
3	0	1.298031584456476E+003	5.7086217E-001	-2.7039801E+002
3	0	1.298531584443845E+003	5.7299256E-001	-2.7035559E+002
3	0	1.299031584431214E+003	5.7456434E-001	-2.7036267E+002
3	0	1.299531584418583E+003	5.7573998E-001	-2.7034851E+002
3	0	1.300031584405951E+003	5.7668191E-001	-2.7038385E+002
3	0	1.300531584393320E+003	5.7704538E-001	-2.7036972E+002
3	0	1.301031584380689E+003	5.7687068E-001	-2.7038742E+002
3	0	1.301531584368058E+003	5.7690620E-001	-2.7038031E+002
3	0	1.302031584355427E+003	5.7850528E-001	-2.7038385E+002
3	0	1.302531584342796E+003	5.8064920E-001	-2.7037326E+002
3	0	1.303031584330165E+003	5.8286643E-001	-2.7037677E+002
3	0	1.303531584317534E+003	5.8525103E-001	-2.7037677E+002
3	0	1.304031584304903E+003	5.8792871E-001	-2.7039093E+002
3	0	1.304531584292272E+003	5.9031492E-001	-2.7038031E+002
3	0	1.305031584279641E+003	5.9192508E-001	-2.7039447E+002
3	0	1.305531584267010E+003	5.9371912E-001	-2.7038742E+002
3	0	1.306031584254379E+003	5.9678626E-001	-2.7037677E+002
3	0	1.306531584241748E+003	5.9984195E-001	-2.7038385E+002
3	0	1.307031584229117E+003	6.0233384E-001	-2.7037326E+002
3	0	1.307531584216486E+003	6.0429102E-001	-2.7038742E+002
3	0	1.308031584203854E+003	6.0600823E-001	-2.7038742E+002
3	0	1.308531584191223E+003	6.0689592E-001	-2.7035913E+002
3	0	1.309031584178592E+003	6.0708499E-001	-2.7035205E+002
3	0	1.309531584165961E+003	6.0711306E-001	-2.7038742E+002
3	0	1.310031584153330E+003	6.0825247E-001	-2.7037326E+002
3	0	1.310531584140699E+003	6.0924989E-001	-2.7036618E+002
3	0	1.311031584128068E+003	6.0974282E-001	-2.7038742E+002
3	0	1.311531584115437E+003	6.0981369E-001	-2.7036972E+002
3	0	1.312031584102806E+003	6.0958165E-001	-2.7036618E+002
3	0	1.312531584090175E+003	6.0866696E-001	-2.7035913E+002
3	0	1.313031584077544E+003	6.0713148E-001	-2.7038742E+002
3	0	1.313531584064913E+003	6.0546970E-001	-2.7036267E+002
3	0	1.314031584052282E+003	6.0505992E-001	-2.7038031E+002
3	0	1.314531584039651E+003	6.0454190E-001	-2.7037677E+002
3	0	1.315031584027020E+003	6.0350823E-001	-2.7037326E+002
3	0	1.315531584014389E+003	6.0207582E-001	-2.7036972E+002
3	0	1.316031584001757E+003	6.0040647E-001	-2.7040155E+002
3	0	1.316531583989126E+003	5.9810877E-001	-2.7038031E+002
3	0	1.317031583976495E+003	5.9519225E-001	-2.7040506E+002
3	0	1.317531583963864E+003	5.9236109E-001	-2.7037677E+002
3	0	1.318031583951233E+003	5.9086710E-001	-2.7039447E+002
3	0	1.318531583938602E+003	5.8937937E-001	-2.7036972E+002
3	0	1.319031583925971E+003	5.8752996E-001	-2.7038742E+002
3	0	1.319531583913340E+003	5.8541912E-001	-2.7038031E+002
3	0	1.320031583900709E+003	5.8326882E-001	-2.7037326E+002
3	0	1.320531583888078E+003	5.8058047E-001	-2.7038385E+002
3	0	1.321031583875447E+003	5.7725960E-001	-2.7035559E+002
3	0	1.321531583862816E+003	5.7449597E-001	-2.7036267E+002
3	0	1.322031583850185E+003	5.7358706E-001	-2.7036267E+002
3	0	1.322531583837554E+003	5.7331192E-001	-2.7035559E+002
3	0	1.323031583824923E+003	5.7323903E-001	-2.7038385E+002
3	0	1.323531583812292E+003	5.7358289E-001	-2.7036618E+002
3	0	1.324031583799660E+003	5.7429099E-001	-2.7037326E+002
3	0	1.324531583787029E+003	5.7511598E-001	-2.7037677E+002
3	0	1.325031583774398E+003	5.7573044E-001	-2.7039801E+002
3	0	1.325531583761767E+003	5.7668692E-001	-2.7038031E+002
3	0	1.326031583749136E+003	5.7902747E-001	-2.7040506E+002
3	0	1.326531583736505E+003	5.8144730E-001	-2.7038031E+002
3	0	1.327031583723874E+003	5.8344376E-001	-2.7037677E+002
3	0	1.327531583711243E+003	5.8497077E-001	-2.7039093E+002
3	0	1.328031583698612E+003	5.8618540E-001	-2.7040155E+002
3	0	1.328531583685981E+003	5.8663392E-001	-2.7036267E+002
3	0	1.329031583673350E+003	5.8616614E-001	-2.7037326E+002
3	0	1.329531583660719E+003	5.8568466E-001	-2.7037326E+002
3	0	1.330031583648088E+003	5.8643895E-001	-2.7038742E+002
3	0	1.330531583635457E+003	5.8704144E-001	-2.7038385E+002
3	0	1.331031583622826E+003	5.8708084E-001	-2.7036618E+002
3	0	1.331531583610195E+003	5.8666050E-001	-2.7037326E+002
3	0	1.332031583597563E+003	5.8595091E-001	-2.7038031E+002
3	0	1.332531583584932E+003	5.8459300E-001	-2.7039447E+002
3	0	1.333031583572301E+003	5.8231038E-001	-2.7035913E+002
3	0	1.333531583559670E+003	5.7997268E-001	-2.7038031E+002
3	0	1.334031583547039E+003	5.7891852E-001	-2.7038031E+002
3	0	1.334531583534408E+003	5.7784551E-001	-2.7039801E+002
3	0	1.335031583521777E+003	5.7621413E-001	-2.7036972E+002
3	0	1.335531583509146E+003	5.7410181E-001	-2.7039093E+002
3	0	1.336031583496515E+003	5.7180738E-001	-2.7035559E+002
3	0	1.336531583483884E+003	5.6893885E-001	-2.7036618E+002
3	0	1.337031583471253E+003	5.6528831E-001	-2.7038031E+002
3	0	1.337531583458622E+003	5.6174803E-001	-2.7039093E+002
3	0	1.338031583445991E+003	5.5946040E-001	-2.7037677E+002
3	0	1.338531583433360E+003	5.5724615E-001	-2.7038742E+002
3	0	1.339031583420729E+003	5.5459380E-001	-2.7035913E+002
3	0	1.339531583408098E+003	5.5152678E-001	-2.7036618E+002
3	0	1.340031583395466E+003	5.4836404E-001	-2.7038031E+002
3	0	1.340531583382835E+003	5.4465663E-001	-2.7039093E+002
3	0	1.341031583370204E+003	5.4043138E-001	-2.7035913E+002
3	0	1.341531583357573E+003	5.3676945E-001	-2.7039093E+002
3	0	1.342031583344942E+003	5.3486669E-001	-2.7036618E+002
3	0	1.342531583332311E+003	5.3351301E-001	-2.7038031E+002
3	0	1.343031583319680E+003	5.3245199E-001	-2.7039093E+002
3	0	1.343531583307049E+003	5.3170252E-001	-2.7038385E+002
3	0	1.344031583294418E+003	5.3144139E-001	-2.7040155E+002
3	0	1.344531583281787E+003	5.3105545E-001	-2.7036618E+002
3	0	1.345031583269156E+003	5.3037149E-001	-2.7035913E+002
3	0	1.345531583256525E+003	5.2997249E-001	-2.7036972E+002
3	0	1.346031583243894E+003	5.3083074E-001	-2.7036972E+002
3	0	1.346531583231263E+003	5.3173572E-001	-2.7039447E+002
3	0	1.347031583218632E+003	5.3225315E-001	-2.7039801E+002
3	0	1.347531583206001E+003	5.3248441E-001	-2.7035559E+002
3	0	1.348031583193369E+003	5.3241956E-001	-2.7035913E+002
3	0	1.348531583180738E+003	5.3186405E-001	-2.7038031E+002
3	0	1.349031583168107E+003	5.3066874E-001	-2.7037677E+002
3	0	1.349531583155476E+003	5.2940059E-001	-2.7035913E+002
3	0	1.350031583142845E+003	5.2921313E-001	-2.7037677E+002
3	0	1.350531583130214E+003	5.2894861E-001	-2.7038031E+002
3	0	1.351031583117583E+003	5.2814955E-001	-2.7036972E+002
3	0	1.351531583104952E+003	5.2689660E-001	-2.7039093E+002
3	0	1.352031583092321E+003	5.2539909E-001	-2.7037677E+002
3	0	1.352531583079690E+003	5.2334529E-001	-2.7036267E+002
3	0	1.353031583067059E+003	5.2042049E-001	-2.7036267E+002
3	0	1.353531583054428E+003	5.1753730E-001	-2.7037326E+002
3	0	1.354031583041797E+003	5.1573026E-001	-2.7036267E+002
3	0	1.354531583029166E+003	5.1387340E-001	-2.7038742E+002
3	0	1.355031583016535E+003	5.1164609E-001	-2.7036618E+002
3	0	1.355531583003904E+003	5.0925297E-001	-2.7039801E+002
3	0	1.356031582991272E+003	5.0670362E-001	-2.7036618E+002
3	0	1.356531582978641E+003	5.0372827E-001	-2.7036972E+002
3	0	1.357031582966010E+003	5.0024509E-001	-2.7037326E+002
3	0	1.357531582953379E+003	4.9689412E-001	-2.7037326E+002
3	0	1.358031582940748E+003	4.9470612E-001	-2.7038742E+002
3	0	1.358531582928117E+003	4.9250680E-001	-2.7036618E+002
3	0	1.359031582915486E+003	4.8999181E-001	-2.7038385E+002
3	0	1.359531582902855E+003	4.8726249E-001	-2.7039447E+002
3	0	1.360031582890224E+003	4.8434407E-001	-2.7037677E+002
3	0	1.360531582877593E+003	4.8110735E-001	-2.7038742E+002
3	0	1.361031582864962E+003	4.7751656E-001	-2.7034851E+002
3	0	1.361531582852331E+003	4.7438812E-001	-2.7040506E+002
3	0	1.362031582839700E+003	4.7264305E-001	-2.7039447E+002
3	0	1.362056182839078E+003	4.7190633E-001	-2.7038385E+002