EC-Lab ASCII FILE
Nb header lines : 55                          

Open Circuit Voltage

Run on channel : 1 (SN 81504)
User : 
CE vs. WE compliance from -10 V to 10 V
Electrode connection : standard
Potential control : Ewe
Ewe ctrl range : min = -2.50 V, max = 2.50 V
Safety Limits :
	Do not start on E overload
Acquisition started on : 05/07/2026 19:49:57.838
Loaded Setting File :  C:\PEM-WE_measurements\2026\372_IV_IV IrOx, 5 min Pt, 30 min C, etched cathode\new station\Loopeis new\1,46 V different time gaps open cell\Loopeis 1,46V_90s_5_PEIS from 65Hz to 10Hz.mps
Saved on :
	File : L_20_Loopeis 1,46V_90s_5_PEIS from 65Hz to 10Hz_16_OCV_C01.mpr
	Directory : C:\PEM-WE_measurements\2026\372_IV_IV IrOx, 5 min Pt, 30 min C, etched cathode\new station\Loopeis new\1,46 V different time gaps open cell\
	Host : 192.168.0.2
Device : SP-150e (SN .005491)
Address : 192.168.0.91
EC-LAB for windows v11.71 (software)
Internet server v28.00 (firmware)
Command interpretor v14.01 (firmware)
Electrode material : 
Initial state : 
Electrolyte : 
Comments : 
Current amplifier : SP-150eB-20A
Electrode surface area : 0.001 cm²
Characteristic mass : 0.001 g
Equivalent Weight : 0.000 g/eq.
Density : 0.000 g/cm3
Volume (V) : 0.001 cm³
Record Analogic IN 1
Text export
   Mode : Standard
   Time format : Elapsed
Cycle Definition : Charge/Discharge alternance
External device configuration :
   device type : Temperature Probe
   device name : Other
   Analog IN 1 : 
      unit : T/Â°C
      max : 100.000 at 2.000 V
      min : 0.000 at 1.460 V
tR (h:m:s)          0:01:30.0000        
dER/dt (mV/h)       1.0                 
record              <Ewe>               
dER (mV)            10.00               
dtR (s)             0.5000              
E range min (V)     -2.500              
E range max (V)     2.500               

mode	error	time/s	<Ewe/V>	Analog IN 1/V	
3	0	1.434352809157717E+003	1.2627465E+000	-2.7035559E+002
3	0	1.434852809145086E+003	1.2459985E+000	-2.7039093E+002
3	0	1.435352809132455E+003	1.1690505E+000	-2.7041214E+002
3	0	1.435852809119824E+003	9.4592834E-001	-2.7040506E+002
3	0	1.436352809107193E+003	4.8420477E-001	-2.7037326E+002
3	0	1.436852809094562E+003	3.4132445E-001	-2.7038742E+002
3	0	1.437352809081931E+003	3.2402384E-001	-2.7038385E+002
3	0	1.437852809069300E+003	3.1587431E-001	-2.7036267E+002
3	0	1.438352809056669E+003	3.0918595E-001	-2.7039093E+002
3	0	1.438852809044038E+003	3.0402794E-001	-2.7039093E+002
3	0	1.439352809031407E+003	3.0010602E-001	-2.7039093E+002
3	0	1.439852809018776E+003	2.9708204E-001	-2.7038031E+002
3	0	1.440352809006145E+003	2.9466450E-001	-2.7037677E+002
3	0	1.440852808993513E+003	2.9268098E-001	-2.7038031E+002
3	0	1.441352808980882E+003	2.9100657E-001	-2.7039093E+002
3	0	1.441852808968251E+003	2.8961077E-001	-2.7038385E+002
3	0	1.442352808955620E+003	2.8839096E-001	-2.7038031E+002
3	0	1.442852808942989E+003	2.8730324E-001	-2.7038031E+002
3	0	1.443352808930358E+003	2.8631794E-001	-2.7036267E+002
3	0	1.443852808917727E+003	2.8541979E-001	-2.7039447E+002
3	0	1.444352808905096E+003	2.8458077E-001	-2.7038742E+002
3	0	1.444852808892465E+003	2.8375623E-001	-2.7039447E+002
3	0	1.445352808879834E+003	2.8296942E-001	-2.7040155E+002
3	0	1.445852808867203E+003	2.8226557E-001	-2.7035913E+002
3	0	1.446352808854572E+003	2.8157535E-001	-2.7035205E+002
3	0	1.446852808841941E+003	2.8091538E-001	-2.7037326E+002
3	0	1.447352808829310E+003	2.8028676E-001	-2.7038742E+002
3	0	1.447852808816679E+003	2.7966812E-001	-2.7038031E+002
3	0	1.448352808804048E+003	2.7905202E-001	-2.7038385E+002
3	0	1.448852808791416E+003	2.7843511E-001	-2.7037677E+002
3	0	1.449352808778785E+003	2.7781653E-001	-2.7037326E+002
3	0	1.449852808766154E+003	2.7724662E-001	-2.7037326E+002
3	0	1.450352808753523E+003	2.7668697E-001	-2.7036618E+002
3	0	1.450852808740892E+003	2.7612942E-001	-2.7038031E+002
3	0	1.451352808728261E+003	2.7558753E-001	-2.7035205E+002
3	0	1.451852808715630E+003	2.7504680E-001	-2.7038742E+002
3	0	1.452352808702999E+003	2.7450982E-001	-2.7038742E+002
3	0	1.452852808690368E+003	2.7395329E-001	-2.7039801E+002
3	0	1.453352808677737E+003	2.7339411E-001	-2.7036972E+002
3	0	1.453852808665106E+003	2.7287775E-001	-2.7037326E+002
3	0	1.454352808652475E+003	2.7236056E-001	-2.7037677E+002
3	0	1.454852808639844E+003	2.7185422E-001	-2.7037326E+002
3	0	1.455352808627213E+003	2.7134609E-001	-2.7035205E+002
3	0	1.455852808614582E+003	2.7085251E-001	-2.7039447E+002
3	0	1.456352808601951E+003	2.7034116E-001	-2.7038031E+002
3	0	1.456852808589319E+003	2.6982099E-001	-2.7037677E+002
3	0	1.457352808576688E+003	2.6930311E-001	-2.7037326E+002
3	0	1.457852808564057E+003	2.6881883E-001	-2.7036618E+002
3	0	1.458352808551426E+003	2.6833722E-001	-2.7037677E+002
3	0	1.458852808538795E+003	2.6786175E-001	-2.7036267E+002
3	0	1.459352808526164E+003	2.6738822E-001	-2.7040506E+002
3	0	1.459852808513533E+003	2.6691854E-001	-2.7038031E+002
3	0	1.460352808500902E+003	2.6644138E-001	-2.7038385E+002
3	0	1.460852808488271E+003	2.6595688E-001	-2.7038742E+002
3	0	1.461352808475640E+003	2.6546383E-001	-2.7034851E+002
3	0	1.461852808463009E+003	2.6501268E-001	-2.7037677E+002
3	0	1.462352808450378E+003	2.6456651E-001	-2.7038742E+002
3	0	1.462852808437747E+003	2.6412615E-001	-2.7038031E+002
3	0	1.463352808425116E+003	2.6368451E-001	-2.7037326E+002
3	0	1.463852808412485E+003	2.6324454E-001	-2.7038031E+002
3	0	1.464352808399854E+003	2.6277322E-001	-2.7036618E+002
3	0	1.464852808387222E+003	2.6230568E-001	-2.7038385E+002
3	0	1.465352808374591E+003	2.6185864E-001	-2.7039093E+002
3	0	1.465852808361960E+003	2.6144812E-001	-2.7038742E+002
3	0	1.466352808349329E+003	2.6105064E-001	-2.7036972E+002
3	0	1.466852808336698E+003	2.6064497E-001	-2.7038385E+002
3	0	1.467352808324067E+003	2.6024118E-001	-2.7036972E+002
3	0	1.467852808311436E+003	2.5983694E-001	-2.7039093E+002
3	0	1.468352808298805E+003	2.5943324E-001	-2.7036267E+002
3	0	1.468852808286174E+003	2.5899941E-001	-2.7036972E+002
3	0	1.469352808273543E+003	2.5857398E-001	-2.7039093E+002
3	0	1.469852808260912E+003	2.5818649E-001	-2.7036267E+002
3	0	1.470352808248281E+003	2.5781637E-001	-2.7039801E+002
3	0	1.470852808235650E+003	2.5743747E-001	-2.7036618E+002
3	0	1.471352808223019E+003	2.5705686E-001	-2.7038031E+002
3	0	1.471852808210388E+003	2.5667867E-001	-2.7038031E+002
3	0	1.472352808197757E+003	2.5629938E-001	-2.7035205E+002
3	0	1.472852808185125E+003	2.5590184E-001	-2.7039801E+002
3	0	1.473352808172494E+003	2.5550413E-001	-2.7040506E+002
3	0	1.473852808159863E+003	2.5514495E-001	-2.7037677E+002
3	0	1.474352808147232E+003	2.5480524E-001	-2.7036972E+002
3	0	1.474852808134601E+003	2.5445914E-001	-2.7037326E+002
3	0	1.475352808121970E+003	2.5411677E-001	-2.7036972E+002
3	0	1.475852808109339E+003	2.5376669E-001	-2.7040506E+002
3	0	1.476352808096708E+003	2.5341249E-001	-2.7037326E+002
3	0	1.476852808084077E+003	2.5303975E-001	-2.7039801E+002
3	0	1.477352808071446E+003	2.5266761E-001	-2.7037326E+002
3	0	1.477852808058815E+003	2.5234574E-001	-2.7039447E+002
3	0	1.478352808046184E+003	2.5202927E-001	-2.7038742E+002
3	0	1.478852808033553E+003	2.5170839E-001	-2.7038031E+002
3	0	1.479352808020922E+003	2.5138858E-001	-2.7038031E+002
3	0	1.479852808008291E+003	2.5108144E-001	-2.7035205E+002
3	0	1.480352807995660E+003	2.5075033E-001	-2.7037326E+002
3	0	1.480852807983028E+003	2.5040981E-001	-2.7038742E+002
3	0	1.481352807970397E+003	2.5006688E-001	-2.7038385E+002
3	0	1.481852807957766E+003	2.4977186E-001	-2.7040506E+002
3	0	1.482352807945135E+003	2.4948771E-001	-2.7037326E+002
3	0	1.482852807932504E+003	2.4919799E-001	-2.7038031E+002
3	0	1.483352807919873E+003	2.4890132E-001	-2.7038385E+002
3	0	1.483852807907242E+003	2.4860933E-001	-2.7038742E+002
3	0	1.484352807894611E+003	2.4830657E-001	-2.7036972E+002
3	0	1.484852807881980E+003	2.4799018E-001	-2.7035559E+002
3	0	1.485352807869349E+003	2.4766921E-001	-2.7039447E+002
3	0	1.485852807856718E+003	2.4738993E-001	-2.7038742E+002
3	0	1.486352807844087E+003	2.4712594E-001	-2.7036618E+002
3	0	1.486852807831456E+003	2.4685892E-001	-2.7038742E+002
3	0	1.487352807818825E+003	2.4659444E-001	-2.7038742E+002
3	0	1.487852807806194E+003	2.4632914E-001	-2.7038385E+002
3	0	1.488352807793563E+003	2.4605343E-001	-2.7036618E+002
3	0	1.488852807780931E+003	2.4575368E-001	-2.7039447E+002
3	0	1.489352807768300E+003	2.4546869E-001	-2.7038031E+002
3	0	1.489852807755669E+003	2.4522455E-001	-2.7035205E+002
3	0	1.490352807743038E+003	2.4498512E-001	-2.7036618E+002
3	0	1.490852807730407E+003	2.4473785E-001	-2.7037677E+002
3	0	1.491352807717776E+003	2.4450193E-001	-2.7036267E+002
3	0	1.491852807705145E+003	2.4425817E-001	-2.7037677E+002
3	0	1.492352807692514E+003	2.4400677E-001	-2.7039801E+002
3	0	1.492852807679883E+003	2.4372794E-001	-2.7036618E+002
3	0	1.493352807667252E+003	2.4345076E-001	-2.7036972E+002
3	0	1.493852807654621E+003	2.4323395E-001	-2.7038031E+002
3	0	1.494352807641990E+003	2.4301866E-001	-2.7036972E+002
3	0	1.494852807629359E+003	2.4279302E-001	-2.7036618E+002
3	0	1.495352807616728E+003	2.4257089E-001	-2.7038031E+002
3	0	1.495852807604097E+003	2.4233954E-001	-2.7038031E+002
3	0	1.496352807591466E+003	2.4210131E-001	-2.7037326E+002
3	0	1.496852807578834E+003	2.4185351E-001	-2.7037326E+002
3	0	1.497352807566203E+003	2.4159686E-001	-2.7035205E+002
3	0	1.497852807553572E+003	2.4139650E-001	-2.7037677E+002
3	0	1.498352807540941E+003	2.4119298E-001	-2.7034851E+002
3	0	1.498852807528310E+003	2.4098992E-001	-2.7036267E+002
3	0	1.499352807515679E+003	2.4078324E-001	-2.7035205E+002
3	0	1.499852807503048E+003	2.4058209E-001	-2.7038385E+002
3	0	1.500352807490417E+003	2.4036366E-001	-2.7036972E+002
3	0	1.500852807477786E+003	2.4014123E-001	-2.7036972E+002
3	0	1.501352807465155E+003	2.3991127E-001	-2.7037326E+002
3	0	1.501852807452524E+003	2.3972662E-001	-2.7037677E+002
3	0	1.502352807439893E+003	2.3954833E-001	-2.7036618E+002
3	0	1.502852807427262E+003	2.3936041E-001	-2.7038742E+002
3	0	1.503352807414631E+003	2.3917125E-001	-2.7040860E+002
3	0	1.503852807402000E+003	2.3898682E-001	-2.7038031E+002
3	0	1.504352807389369E+003	2.3878589E-001	-2.7034497E+002
3	0	1.504852807376737E+003	2.3856674E-001	-2.7039801E+002
3	0	1.505352807364106E+003	2.3834732E-001	-2.7038385E+002
3	0	1.505852807351475E+003	2.3817733E-001	-2.7036972E+002
3	0	1.506352807338844E+003	2.3801316E-001	-2.7036972E+002
3	0	1.506852807326213E+003	2.3784313E-001	-2.7036618E+002
3	0	1.507352807313582E+003	2.3767093E-001	-2.7038031E+002
3	0	1.507852807300951E+003	2.3749627E-001	-2.7039801E+002
3	0	1.508352807288320E+003	2.3731166E-001	-2.7036972E+002
3	0	1.508852807275689E+003	2.3710983E-001	-2.7037677E+002
3	0	1.509352807263058E+003	2.3691234E-001	-2.7038031E+002
3	0	1.509852807250427E+003	2.3676109E-001	-2.7038742E+002
3	0	1.510352807237796E+003	2.3661776E-001	-2.7036618E+002
3	0	1.510852807225165E+003	2.3646994E-001	-2.7038385E+002
3	0	1.511352807212534E+003	2.3631194E-001	-2.7037326E+002
3	0	1.511852807199903E+003	2.3616023E-001	-2.7038385E+002
3	0	1.512352807187272E+003	2.3599559E-001	-2.7039801E+002
3	0	1.512852807174640E+003	2.3581347E-001	-2.7039093E+002
3	0	1.513352807162009E+003	2.3563622E-001	-2.7038385E+002
3	0	1.513852807149378E+003	2.3550604E-001	-2.7036972E+002
3	0	1.514352807136747E+003	2.3537667E-001	-2.7036267E+002
3	0	1.514852807124116E+003	2.3524415E-001	-2.7038742E+002
3	0	1.515352807111485E+003	2.3510550E-001	-2.7034851E+002
3	0	1.515852807098854E+003	2.3496398E-001	-2.7035205E+002
3	0	1.516352807086223E+003	2.3481248E-001	-2.7038031E+002
3	0	1.516852807073592E+003	2.3463920E-001	-2.7036618E+002
3	0	1.517352807060961E+003	2.3446307E-001	-2.7038385E+002
3	0	1.517852807048330E+003	2.3433448E-001	-2.7039093E+002
3	0	1.518352807035699E+003	2.3421471E-001	-2.7036618E+002
3	0	1.518852807023068E+003	2.3408927E-001	-2.7038031E+002
3	0	1.519352807010437E+003	2.3395719E-001	-2.7039447E+002
3	0	1.519852806997806E+003	2.3382418E-001	-2.7037677E+002
3	0	1.520352806985175E+003	2.3367484E-001	-2.7038031E+002
3	0	1.520852806972543E+003	2.3351222E-001	-2.7039801E+002
3	0	1.521352806959912E+003	2.3334864E-001	-2.7037677E+002
3	0	1.521852806947281E+003	2.3323068E-001	-2.7037326E+002
3	0	1.522352806934650E+003	2.3312567E-001	-2.7040506E+002
3	0	1.522852806922019E+003	2.3301095E-001	-2.7035913E+002
3	0	1.523352806909388E+003	2.3288766E-001	-2.7038742E+002
3	0	1.523852806896757E+003	2.3276341E-001	-2.7036267E+002
3	0	1.523876406896161E+003	2.3268792E-001	-2.7039447E+002