EC-Lab ASCII FILE
Nb header lines : 55                          

Open Circuit Voltage

Run on channel : 1 (SN 81504)
User : 
CE vs. WE compliance from -10 V to 10 V
Electrode connection : standard
Potential control : Ewe
Ewe ctrl range : min = -2.50 V, max = 2.50 V
Safety Limits :
	Do not start on E overload
Acquisition started on : 05/07/2026 21:17:54.184
Loaded Setting File :  C:\PEM-WE_measurements\2026\372_IV_IV IrOx, 5 min Pt, 30 min C, etched cathode\new station\Loopeis new\1,46 V different time gaps open cell\Loopeis 1,46V_120s_3_PEIS from 6500Hz to 1000Hz.mps
Saved on :
	File : L_23_Loopeis 1,46V_120s_3_PEIS from 6500Hz to 1000Hz_12_OCV_C01.mpr
	Directory : C:\PEM-WE_measurements\2026\372_IV_IV IrOx, 5 min Pt, 30 min C, etched cathode\new station\Loopeis new\1,46 V different time gaps open cell\
	Host : 192.168.0.2
Device : SP-150e (SN .005491)
Address : 192.168.0.91
EC-LAB for windows v11.71 (software)
Internet server v28.00 (firmware)
Command interpretor v14.01 (firmware)
Electrode material : 
Initial state : 
Electrolyte : 
Comments : 
Current amplifier : SP-150eB-20A
Electrode surface area : 0.001 cm²
Characteristic mass : 0.001 g
Equivalent Weight : 0.000 g/eq.
Density : 0.000 g/cm3
Volume (V) : 0.001 cm³
Record Analogic IN 1
Text export
   Mode : Standard
   Time format : Elapsed
Cycle Definition : Charge/Discharge alternance
External device configuration :
   device type : Temperature Probe
   device name : Other
   Analog IN 1 : 
      unit : T/Â°C
      max : 100.000 at 2.000 V
      min : 0.000 at 1.460 V
tR (h:m:s)          0:02:0.0000         
dER/dt (mV/h)       1.0                 
record              <Ewe>               
dER (mV)            10.00               
dtR (s)             0.5000              
E range min (V)     -2.500              
E range max (V)     2.500               

mode	error	time/s	<Ewe/V>	Analog IN 1/V	
3	0	8.726229879341554E+002	9.4994992E-001	-2.7038031E+002
3	0	8.731229879215243E+002	1.1428872E+000	-2.7039447E+002
3	0	8.736229879088933E+002	8.2539243E-001	-2.7037326E+002
3	0	8.741229878962622E+002	4.1536900E-001	-2.7037677E+002
3	0	8.746229878836311E+002	3.2274881E-001	-2.7034851E+002
3	0	8.751229878710001E+002	3.1160873E-001	-2.7036972E+002
3	0	8.756229878583690E+002	3.0486697E-001	-2.7040155E+002
3	0	8.761229878457380E+002	2.9918402E-001	-2.7037326E+002
3	0	8.766229878331069E+002	2.9470846E-001	-2.7038031E+002
3	0	8.771229878204758E+002	2.9123527E-001	-2.7036267E+002
3	0	8.776229878078448E+002	2.8849897E-001	-2.7037677E+002
3	0	8.781229877952137E+002	2.8628588E-001	-2.7038385E+002
3	0	8.786229877825826E+002	2.8445524E-001	-2.7038742E+002
3	0	8.791229877699516E+002	2.8290278E-001	-2.7037677E+002
3	0	8.796229877573205E+002	2.8155798E-001	-2.7039447E+002
3	0	8.801229877446895E+002	2.8035477E-001	-2.7039801E+002
3	0	8.806229877320584E+002	2.7927962E-001	-2.7039447E+002
3	0	8.811229877194273E+002	2.7832672E-001	-2.7036618E+002
3	0	8.816229877067963E+002	2.7746063E-001	-2.7039093E+002
3	0	8.821229876941652E+002	2.7665934E-001	-2.7036972E+002
3	0	8.826229876815341E+002	2.7591011E-001	-2.7035559E+002
3	0	8.831229876689031E+002	2.7520016E-001	-2.7039801E+002
3	0	8.836229876562720E+002	2.7452886E-001	-2.7036972E+002
3	0	8.841229876436410E+002	2.7385718E-001	-2.7036972E+002
3	0	8.846229876310099E+002	2.7319038E-001	-2.7038742E+002
3	0	8.851229876183788E+002	2.7256903E-001	-2.7039093E+002
3	0	8.856229876057478E+002	2.7199474E-001	-2.7038385E+002
3	0	8.861229875931167E+002	2.7142340E-001	-2.7037677E+002
3	0	8.866229875804856E+002	2.7086636E-001	-2.7038385E+002
3	0	8.871229875678546E+002	2.7031723E-001	-2.7040155E+002
3	0	8.876229875552235E+002	2.6977202E-001	-2.7039093E+002
3	0	8.881229875425925E+002	2.6922762E-001	-2.7038385E+002
3	0	8.886229875299614E+002	2.6866767E-001	-2.7037326E+002
3	0	8.891229875173303E+002	2.6814216E-001	-2.7036267E+002
3	0	8.896229875046993E+002	2.6763624E-001	-2.7038742E+002
3	0	8.901229874920682E+002	2.6713833E-001	-2.7036267E+002
3	0	8.906229874794371E+002	2.6664677E-001	-2.7036618E+002
3	0	8.911229874668061E+002	2.6615590E-001	-2.7040155E+002
3	0	8.916229874541750E+002	2.6566985E-001	-2.7037326E+002
3	0	8.921229874415440E+002	2.6516286E-001	-2.7038385E+002
3	0	8.926229874289129E+002	2.6465705E-001	-2.7035913E+002
3	0	8.931229874162818E+002	2.6417586E-001	-2.7038385E+002
3	0	8.936229874036508E+002	2.6372299E-001	-2.7040860E+002
3	0	8.941229873910197E+002	2.6327041E-001	-2.7036972E+002
3	0	8.946229873783886E+002	2.6281205E-001	-2.7037326E+002
3	0	8.951229873657576E+002	2.6235750E-001	-2.7039447E+002
3	0	8.956229873531265E+002	2.6190099E-001	-2.7038385E+002
3	0	8.961229873404955E+002	2.6143578E-001	-2.7036267E+002
3	0	8.966229873278644E+002	2.6095495E-001	-2.7038385E+002
3	0	8.971229873152333E+002	2.6050875E-001	-2.7038031E+002
3	0	8.976229873026023E+002	2.6007682E-001	-2.7038742E+002
3	0	8.981229872899712E+002	2.5965405E-001	-2.7038031E+002
3	0	8.986229872773401E+002	2.5923795E-001	-2.7039093E+002
3	0	8.991229872647091E+002	2.5882292E-001	-2.7035913E+002
3	0	8.996229872520780E+002	2.5839511E-001	-2.7036618E+002
3	0	9.001229872394470E+002	2.5795943E-001	-2.7038742E+002
3	0	9.006229872268159E+002	2.5751591E-001	-2.7034851E+002
3	0	9.011229872141848E+002	2.5709569E-001	-2.7037677E+002
3	0	9.016229872015538E+002	2.5670117E-001	-2.7038742E+002
3	0	9.021229871889227E+002	2.5631371E-001	-2.7036972E+002
3	0	9.026229871762916E+002	2.5592873E-001	-2.7041214E+002
3	0	9.031229871636606E+002	2.5554165E-001	-2.7038031E+002
3	0	9.036229871510295E+002	2.5515008E-001	-2.7038031E+002
3	0	9.041229871383985E+002	2.5474659E-001	-2.7039093E+002
3	0	9.046229871257674E+002	2.5433517E-001	-2.7038742E+002
3	0	9.051229871131363E+002	2.5395131E-001	-2.7036618E+002
3	0	9.056229871005053E+002	2.5358677E-001	-2.7038385E+002
3	0	9.061229870878742E+002	2.5322452E-001	-2.7039447E+002
3	0	9.066229870752431E+002	2.5286266E-001	-2.7038742E+002
3	0	9.071229870626121E+002	2.5250304E-001	-2.7038031E+002
3	0	9.076229870499810E+002	2.5214311E-001	-2.7038742E+002
3	0	9.081229870373500E+002	2.5177225E-001	-2.7038031E+002
3	0	9.086229870247189E+002	2.5138301E-001	-2.7037326E+002
3	0	9.091229870120878E+002	2.5102782E-001	-2.7036972E+002
3	0	9.096229869994568E+002	2.5069451E-001	-2.7038742E+002
3	0	9.101229869868257E+002	2.5036684E-001	-2.7038031E+002
3	0	9.106229869741946E+002	2.5003198E-001	-2.7035913E+002
3	0	9.111229869615636E+002	2.4970762E-001	-2.7037326E+002
3	0	9.116229869489325E+002	2.4937540E-001	-2.7038031E+002
3	0	9.121229869363015E+002	2.4903060E-001	-2.7039093E+002
3	0	9.126229869236704E+002	2.4867281E-001	-2.7035913E+002
3	0	9.131229869110393E+002	2.4834128E-001	-2.7035913E+002
3	0	9.136229868984083E+002	2.4803668E-001	-2.7035559E+002
3	0	9.141229868857772E+002	2.4773839E-001	-2.7037326E+002
3	0	9.146229868731461E+002	2.4742682E-001	-2.7038385E+002
3	0	9.151229868605151E+002	2.4712273E-001	-2.7036618E+002
3	0	9.156229868478840E+002	2.4681506E-001	-2.7039447E+002
3	0	9.161229868352530E+002	2.4649379E-001	-2.7038385E+002
3	0	9.166229868226219E+002	2.4615905E-001	-2.7036267E+002
3	0	9.171229868099908E+002	2.4585828E-001	-2.7038385E+002
3	0	9.176229867973598E+002	2.4557933E-001	-2.7038742E+002
3	0	9.181229867847287E+002	2.4530275E-001	-2.7036618E+002
3	0	9.186229867720976E+002	2.4502072E-001	-2.7035559E+002
3	0	9.191229867594666E+002	2.4473995E-001	-2.7036618E+002
3	0	9.196229867468355E+002	2.4445960E-001	-2.7039447E+002
3	0	9.201229867342045E+002	2.4416420E-001	-2.7038742E+002
3	0	9.206229867215734E+002	2.4385177E-001	-2.7036267E+002
3	0	9.211229867089423E+002	2.4357557E-001	-2.7039801E+002
3	0	9.216229866963113E+002	2.4332780E-001	-2.7039093E+002
3	0	9.221229866836802E+002	2.4307792E-001	-2.7038031E+002
3	0	9.226229866710491E+002	2.4282342E-001	-2.7038742E+002
3	0	9.231229866584181E+002	2.4256934E-001	-2.7040506E+002
3	0	9.236229866457870E+002	2.4231155E-001	-2.7037677E+002
3	0	9.241229866331560E+002	2.4203852E-001	-2.7037677E+002
3	0	9.246229866205249E+002	2.4175631E-001	-2.7038385E+002
3	0	9.251229866078938E+002	2.4150257E-001	-2.7039801E+002
3	0	9.256229865952628E+002	2.4127193E-001	-2.7037326E+002
3	0	9.261229865826317E+002	2.4104173E-001	-2.7037677E+002
3	0	9.266229865700006E+002	2.4081285E-001	-2.7039447E+002
3	0	9.271229865573696E+002	2.4058214E-001	-2.7039447E+002
3	0	9.276229865447385E+002	2.4034794E-001	-2.7038742E+002
3	0	9.281229865321075E+002	2.4010108E-001	-2.7035559E+002
3	0	9.286229865194764E+002	2.3983544E-001	-2.7036618E+002
3	0	9.291229865068453E+002	2.3960204E-001	-2.7035559E+002
3	0	9.296229864942143E+002	2.3939000E-001	-2.7038385E+002
3	0	9.301229864815832E+002	2.3917446E-001	-2.7039093E+002
3	0	9.306229864689521E+002	2.3896867E-001	-2.7038385E+002
3	0	9.311229864563211E+002	2.3875660E-001	-2.7038031E+002
3	0	9.316229864436900E+002	2.3854205E-001	-2.7038385E+002
3	0	9.321229864310590E+002	2.3830812E-001	-2.7034143E+002
3	0	9.326229864184279E+002	2.3806344E-001	-2.7035559E+002
3	0	9.331229864057968E+002	2.3785108E-001	-2.7037326E+002
3	0	9.336229863931658E+002	2.3765294E-001	-2.7037326E+002
3	0	9.341229863805347E+002	2.3745263E-001	-2.7039801E+002
3	0	9.346229863679037E+002	2.3725145E-001	-2.7039093E+002
3	0	9.351229863552726E+002	2.3705442E-001	-2.7038031E+002
3	0	9.356229863426415E+002	2.3685291E-001	-2.7034497E+002
3	0	9.361229863300105E+002	2.3663248E-001	-2.7038385E+002
3	0	9.366229863173794E+002	2.3640661E-001	-2.7038742E+002
3	0	9.371229863047483E+002	2.3620860E-001	-2.7036972E+002
3	0	9.376229862921173E+002	2.3603472E-001	-2.7038742E+002
3	0	9.381229862794862E+002	2.3584992E-001	-2.7038385E+002
3	0	9.386229862668552E+002	2.3567837E-001	-2.7037677E+002
3	0	9.391229862542241E+002	2.3549730E-001	-2.7039801E+002
3	0	9.396229862415930E+002	2.3531324E-001	-2.7037326E+002
3	0	9.401229862289620E+002	2.3511055E-001	-2.7039447E+002
3	0	9.406229862163309E+002	2.3489855E-001	-2.7037326E+002
3	0	9.411229862036998E+002	2.3471625E-001	-2.7038742E+002
3	0	9.416229861910688E+002	2.3455958E-001	-2.7038385E+002
3	0	9.421229861784377E+002	2.3439105E-001	-2.7039801E+002
3	0	9.426229861658067E+002	2.3423380E-001	-2.7038385E+002
3	0	9.431229861531756E+002	2.3407552E-001	-2.7038031E+002
3	0	9.436229861405445E+002	2.3391767E-001	-2.7036267E+002
3	0	9.441229861279135E+002	2.3372659E-001	-2.7038385E+002
3	0	9.446229861152824E+002	2.3352428E-001	-2.7039093E+002
3	0	9.451229861026513E+002	2.3336504E-001	-2.7034851E+002
3	0	9.456229860900203E+002	2.3321810E-001	-2.7037677E+002
3	0	9.461229860773892E+002	2.3307665E-001	-2.7037326E+002
3	0	9.466229860647582E+002	2.3293607E-001	-2.7039093E+002
3	0	9.471229860521271E+002	2.3279257E-001	-2.7038742E+002
3	0	9.476229860394960E+002	2.3263285E-001	-2.7039093E+002
3	0	9.481229860268650E+002	2.3246296E-001	-2.7039801E+002
3	0	9.486229860142339E+002	2.3227689E-001	-2.7037326E+002
3	0	9.491229860016028E+002	2.3212598E-001	-2.7040860E+002
3	0	9.496229859889718E+002	2.3199190E-001	-2.7038385E+002
3	0	9.501229859763407E+002	2.3185900E-001	-2.7038742E+002
3	0	9.506229859637097E+002	2.3172465E-001	-2.7038742E+002
3	0	9.511229859510786E+002	2.3159064E-001	-2.7038385E+002
3	0	9.516229859384475E+002	2.3145065E-001	-2.7037326E+002
3	0	9.521229859258165E+002	2.3128715E-001	-2.7038385E+002
3	0	9.526229859131854E+002	2.3111060E-001	-2.7036267E+002
3	0	9.531229859005543E+002	2.3097201E-001	-2.7036618E+002
3	0	9.536229858879233E+002	2.3084559E-001	-2.7036618E+002
3	0	9.541229858752922E+002	2.3071952E-001	-2.7039093E+002
3	0	9.546229858626612E+002	2.3059477E-001	-2.7038031E+002
3	0	9.551229858500301E+002	2.3047256E-001	-2.7037326E+002
3	0	9.556229858373990E+002	2.3034693E-001	-2.7036267E+002
3	0	9.561229858247680E+002	2.3019220E-001	-2.7040506E+002
3	0	9.566229858121369E+002	2.3002532E-001	-2.7038031E+002
3	0	9.571229857995058E+002	2.2988749E-001	-2.7038031E+002
3	0	9.576229857868748E+002	2.2976905E-001	-2.7038742E+002
3	0	9.581229857742437E+002	2.2964270E-001	-2.7039801E+002
3	0	9.586229857616127E+002	2.2952354E-001	-2.7038385E+002
3	0	9.591229857489816E+002	2.2940099E-001	-2.7037677E+002
3	0	9.596229857363505E+002	2.2926995E-001	-2.7038742E+002
3	0	9.601229857237195E+002	2.2912526E-001	-2.7036618E+002
3	0	9.606229857110884E+002	2.2896534E-001	-2.7038031E+002
3	0	9.611229856984573E+002	2.2884002E-001	-2.7039447E+002
3	0	9.616229856858263E+002	2.2872888E-001	-2.7038031E+002
3	0	9.621229856731952E+002	2.2861671E-001	-2.7038031E+002
3	0	9.626229856605642E+002	2.2850470E-001	-2.7035559E+002
3	0	9.631229856479331E+002	2.2839364E-001	-2.7038742E+002
3	0	9.636229856353020E+002	2.2824618E-001	-2.7036618E+002
3	0	9.641229856226710E+002	2.2811949E-001	-2.7038742E+002
3	0	9.646229856100399E+002	2.2799298E-001	-2.7038031E+002
3	0	9.651229855974088E+002	2.2789200E-001	-2.7037326E+002
3	0	9.656229855847778E+002	2.2780409E-001	-2.7037677E+002
3	0	9.661229855721467E+002	2.2770309E-001	-2.7038742E+002
3	0	9.666229855595157E+002	2.2760275E-001	-2.7039093E+002
3	0	9.671229855468846E+002	2.2750337E-001	-2.7038385E+002
3	0	9.676229855342535E+002	2.2739200E-001	-2.7038031E+002
3	0	9.681229855216225E+002	2.2725506E-001	-2.7035913E+002
3	0	9.686229855089914E+002	2.2710484E-001	-2.7038031E+002
3	0	9.691229854963603E+002	2.2699153E-001	-2.7039447E+002
3	0	9.696229854837293E+002	2.2690338E-001	-2.7038742E+002
3	0	9.701229854710982E+002	2.2681186E-001	-2.7037677E+002
3	0	9.706229854584672E+002	2.2671786E-001	-2.7036618E+002
3	0	9.711229854458361E+002	2.2662053E-001	-2.7039801E+002
3	0	9.716229854332050E+002	2.2651429E-001	-2.7037677E+002
3	0	9.721229854205740E+002	2.2639032E-001	-2.7038742E+002
3	0	9.726229854079429E+002	2.2624879E-001	-2.7038385E+002
3	0	9.731229853953118E+002	2.2614296E-001	-2.7040506E+002
3	0	9.736229853826808E+002	2.2606082E-001	-2.7039093E+002
3	0	9.741229853700497E+002	2.2597870E-001	-2.7037326E+002
3	0	9.746229853574187E+002	2.2588912E-001	-2.7039093E+002
3	0	9.751229853447876E+002	2.2580338E-001	-2.7038031E+002
3	0	9.756229853321565E+002	2.2570550E-001	-2.7038031E+002
3	0	9.761229853195255E+002	2.2558814E-001	-2.7036972E+002
3	0	9.766229853068944E+002	2.2545868E-001	-2.7035559E+002
3	0	9.771229852942633E+002	2.2535992E-001	-2.7038742E+002
3	0	9.776229852816323E+002	2.2527589E-001	-2.7038031E+002
3	0	9.781229852690012E+002	2.2519161E-001	-2.7037326E+002
3	0	9.786229852563702E+002	2.2509748E-001	-2.7032025E+002
3	0	9.791229852437391E+002	2.2501087E-001	-2.7035205E+002
3	0	9.796229852311080E+002	2.2491495E-001	-2.7035559E+002
3	0	9.801229852184770E+002	2.2480175E-001	-2.7035205E+002
3	0	9.806229852058459E+002	2.2466080E-001	-2.7038385E+002
3	0	9.811229851932148E+002	2.2456324E-001	-2.7036972E+002
3	0	9.816229851805838E+002	2.2449513E-001	-2.7037326E+002
3	0	9.821229851679527E+002	2.2441749E-001	-2.7037677E+002
3	0	9.826229851553217E+002	2.2433241E-001	-2.7035913E+002
3	0	9.831229851426906E+002	2.2425500E-001	-2.7036972E+002
3	0	9.836229851300595E+002	2.2416659E-001	-2.7038031E+002
3	0	9.841229851174285E+002	2.2405651E-001	-2.7034851E+002
3	0	9.846229851047974E+002	2.2393265E-001	-2.7037326E+002
3	0	9.851229850921663E+002	2.2383773E-001	-2.7036972E+002
3	0	9.856229850795353E+002	2.2377834E-001	-2.7039447E+002
3	0	9.861229850669042E+002	2.2371130E-001	-2.7040155E+002
3	0	9.866229850542732E+002	2.2363620E-001	-2.7038385E+002
3	0	9.871229850416421E+002	2.2356270E-001	-2.7036267E+002
3	0	9.876229850290110E+002	2.2348255E-001	-2.7039801E+002
3	0	9.881229850163800E+002	2.2337765E-001	-2.7039093E+002
3	0	9.886229850037489E+002	2.2325920E-001	-2.7037677E+002
3	0	9.891229849911178E+002	2.2317418E-001	-2.7036972E+002
3	0	9.896229849784868E+002	2.2311583E-001	-2.7040860E+002
3	0	9.901229849658557E+002	2.2305253E-001	-2.7036618E+002
3	0	9.906229849532247E+002	2.2298019E-001	-2.7040506E+002
3	0	9.911229849405936E+002	2.2290656E-001	-2.7039093E+002
3	0	9.916229849279625E+002	2.2283211E-001	-2.7038742E+002
3	0	9.921229849153315E+002	2.2273616E-001	-2.7037677E+002
3	0	9.921475849147100E+002	2.2267029E-001	-2.7040506E+002