EC-Lab ASCII FILE
Nb header lines : 55                          

Open Circuit Voltage

Run on channel : 1 (SN 81504)
User : 
CE vs. WE compliance from -10 V to 10 V
Electrode connection : standard
Potential control : Ewe
Ewe ctrl range : min = -2.50 V, max = 2.50 V
Safety Limits :
	Do not start on E overload
Acquisition started on : 05/10/2026 10:21:59.442
Loaded Setting File :  C:\PEM-WE_measurements\2026\372_IV_IV IrOx, 5 min Pt, 30 min C, etched cathode\new station\Loopeis new\1,46 V different time gaps closed cell\Loopeis 1,46V_180s_5_PEIS from 65Hz to 10Hz.mps
Saved on :
	File : L_30_Loopeis 1,46V_180s_5_PEIS from 65Hz to 10Hz_08_OCV_C01.mpr
	Directory : C:\PEM-WE_measurements\2026\372_IV_IV IrOx, 5 min Pt, 30 min C, etched cathode\new station\Loopeis new\1,46 V different time gaps closed cell\
	Host : 192.168.0.2
Device : SP-150e (SN .005491)
Address : 192.168.0.91
EC-LAB for windows v11.71 (software)
Internet server v28.00 (firmware)
Command interpretor v14.01 (firmware)
Electrode material : 
Initial state : 
Electrolyte : 
Comments : 
Current amplifier : SP-150eB-20A
Electrode surface area : 0.001 cm²
Characteristic mass : 0.001 g
Equivalent Weight : 0.000 g/eq.
Density : 0.000 g/cm3
Volume (V) : 0.001 cm³
Record Analogic IN 1
Text export
   Mode : Standard
   Time format : Elapsed
Cycle Definition : Charge/Discharge alternance
External device configuration :
   device type : Temperature Probe
   device name : Other
   Analog IN 1 : 
      unit : T/Â°C
      max : 100.000 at 2.000 V
      min : 0.000 at 1.460 V
tR (h:m:s)          0:03:0.0000         
dER/dt (mV/h)       1.0                 
record              <Ewe>               
dER (mV)            10.00               
dtR (s)             0.5000              
E range min (V)     -2.500              
E range max (V)     2.500               

mode	error	time/s	<Ewe/V>	Analog IN 1/V	
3	0	9.430603989195515E+002	1.2922786E+000	-2.7037326E+002
3	0	9.435603989069205E+002	1.2994139E+000	-2.7037326E+002
3	0	9.440603988942894E+002	1.2967905E+000	-2.7039093E+002
3	0	9.445603988816583E+002	1.2897941E+000	-2.7038385E+002
3	0	9.450603988690273E+002	1.2769611E+000	-2.7037677E+002
3	0	9.455603988563962E+002	1.2553401E+000	-2.7039447E+002
3	0	9.460603988437651E+002	1.2197312E+000	-2.7039447E+002
3	0	9.465603988311341E+002	1.1562746E+000	-2.7039801E+002
3	0	9.470603988185030E+002	9.7679132E-001	-2.7038385E+002
3	0	9.475603988058720E+002	5.9375054E-001	-2.7036972E+002
3	0	9.480603987932409E+002	4.5805627E-001	-2.7036267E+002
3	0	9.485603987806098E+002	4.1820300E-001	-2.7036972E+002
3	0	9.490603987679788E+002	4.0751499E-001	-2.7037326E+002
3	0	9.495603987553477E+002	4.0401405E-001	-2.7038031E+002
3	0	9.500603987427166E+002	4.0191618E-001	-2.7038385E+002
3	0	9.505603987300856E+002	4.0025327E-001	-2.7038031E+002
3	0	9.510603987174545E+002	3.9888316E-001	-2.7038385E+002
3	0	9.515603987048235E+002	3.9746803E-001	-2.7037677E+002
3	0	9.520603986921924E+002	3.9626729E-001	-2.7038031E+002
3	0	9.525603986795613E+002	3.9577866E-001	-2.7036267E+002
3	0	9.530603986669303E+002	3.9587301E-001	-2.7038031E+002
3	0	9.535603986542992E+002	3.9599159E-001	-2.7036267E+002
3	0	9.540603986416681E+002	3.9603746E-001	-2.7040860E+002
3	0	9.545603986290371E+002	3.9625141E-001	-2.7040155E+002
3	0	9.550603986164060E+002	3.9663392E-001	-2.7038385E+002
3	0	9.555603986037750E+002	3.9692912E-001	-2.7039801E+002
3	0	9.560603985911439E+002	3.9713448E-001	-2.7039093E+002
3	0	9.565603985785128E+002	3.9780602E-001	-2.7036972E+002
3	0	9.570603985658818E+002	3.9878216E-001	-2.7038031E+002
3	0	9.575603985532507E+002	3.9948931E-001	-2.7037326E+002
3	0	9.580603985406196E+002	3.9991462E-001	-2.7037326E+002
3	0	9.585603985279886E+002	4.0030116E-001	-2.7038742E+002
3	0	9.590603985153575E+002	4.0055588E-001	-2.7040155E+002
3	0	9.595603985027265E+002	4.0068951E-001	-2.7036267E+002
3	0	9.600603984900954E+002	4.0073505E-001	-2.7036618E+002
3	0	9.605603984774643E+002	4.0109375E-001	-2.7036267E+002
3	0	9.610603984648333E+002	4.0181828E-001	-2.7038031E+002
3	0	9.615603984522022E+002	4.0231439E-001	-2.7039093E+002
3	0	9.620603984395711E+002	4.0252090E-001	-2.7036267E+002
3	0	9.625603984269401E+002	4.0271062E-001	-2.7038385E+002
3	0	9.630603984143090E+002	4.0284386E-001	-2.7039447E+002
3	0	9.635603984016780E+002	4.0280828E-001	-2.7038385E+002
3	0	9.640603983890469E+002	4.0264201E-001	-2.7035913E+002
3	0	9.645603983764158E+002	4.0281415E-001	-2.7037326E+002
3	0	9.650603983637848E+002	4.0328702E-001	-2.7035913E+002
3	0	9.655603983511537E+002	4.0358013E-001	-2.7036972E+002
3	0	9.660603983385226E+002	4.0369147E-001	-2.7036972E+002
3	0	9.665603983258916E+002	4.0373141E-001	-2.7038031E+002
3	0	9.670603983132605E+002	4.0374491E-001	-2.7037677E+002
3	0	9.675603983006295E+002	4.0358317E-001	-2.7039093E+002
3	0	9.680603982879984E+002	4.0325794E-001	-2.7040506E+002
3	0	9.685603982753673E+002	4.0321988E-001	-2.7036267E+002
3	0	9.690603982627363E+002	4.0356404E-001	-2.7038031E+002
3	0	9.695603982501052E+002	4.0374392E-001	-2.7037326E+002
3	0	9.700603982374741E+002	4.0365601E-001	-2.7038031E+002
3	0	9.705603982248431E+002	4.0356025E-001	-2.7038742E+002
3	0	9.710603982122120E+002	4.0349579E-001	-2.7038385E+002
3	0	9.715603981995810E+002	4.0327710E-001	-2.7039447E+002
3	0	9.720603981869499E+002	4.0294445E-001	-2.7039093E+002
3	0	9.725603981743188E+002	4.0293124E-001	-2.7037326E+002
3	0	9.730603981616878E+002	4.0336716E-001	-2.7034497E+002
3	0	9.735603981490567E+002	4.0375540E-001	-2.7038031E+002
3	0	9.740603981364256E+002	4.0405792E-001	-2.7036972E+002
3	0	9.745603981237946E+002	4.0441409E-001	-2.7039447E+002
3	0	9.750603981111635E+002	4.0484068E-001	-2.7037326E+002
3	0	9.755603980985325E+002	4.0523487E-001	-2.7038031E+002
3	0	9.760603980859014E+002	4.0553033E-001	-2.7039093E+002
3	0	9.765603980732703E+002	4.0611780E-001	-2.7038385E+002
3	0	9.770603980606393E+002	4.0703478E-001	-2.7038742E+002
3	0	9.775603980480082E+002	4.0773252E-001	-2.7036972E+002
3	0	9.780603980353771E+002	4.0814337E-001	-2.7038031E+002
3	0	9.785603980227461E+002	4.0847254E-001	-2.7037677E+002
3	0	9.790603980101150E+002	4.0868169E-001	-2.7035913E+002
3	0	9.795603979974840E+002	4.0869930E-001	-2.7039447E+002
3	0	9.800603979848529E+002	4.0855789E-001	-2.7036267E+002
3	0	9.805603979722218E+002	4.0868402E-001	-2.7035913E+002
3	0	9.810603979595908E+002	4.0913528E-001	-2.7038031E+002
3	0	9.815603979469597E+002	4.0938714E-001	-2.7038742E+002
3	0	9.820603979343286E+002	4.0937486E-001	-2.7038031E+002
3	0	9.825603979216976E+002	4.0933159E-001	-2.7038742E+002
3	0	9.830603979090665E+002	4.0916520E-001	-2.7040155E+002
3	0	9.835603978964355E+002	4.0887168E-001	-2.7038385E+002
3	0	9.840603978838044E+002	4.0845773E-001	-2.7038742E+002
3	0	9.845603978711733E+002	4.0825641E-001	-2.7035913E+002
3	0	9.850603978585423E+002	4.0845710E-001	-2.7036267E+002
3	0	9.855603978459112E+002	4.0850917E-001	-2.7037326E+002
3	0	9.860603978332801E+002	4.0831620E-001	-2.7036972E+002
3	0	9.865603978206491E+002	4.0804282E-001	-2.7039093E+002
3	0	9.870603978080180E+002	4.0774822E-001	-2.7039801E+002
3	0	9.875603977953870E+002	4.0723270E-001	-2.7035559E+002
3	0	9.880603977827559E+002	4.0657267E-001	-2.7035205E+002
3	0	9.885603977701248E+002	4.0624440E-001	-2.7037326E+002
3	0	9.890603977574938E+002	4.0628698E-001	-2.7038031E+002
3	0	9.895603977448627E+002	4.0615568E-001	-2.7035559E+002
3	0	9.900603977322317E+002	4.0581271E-001	-2.7039093E+002
3	0	9.905603977196006E+002	4.0541995E-001	-2.7038385E+002
3	0	9.910603977069695E+002	4.0503788E-001	-2.7038742E+002
3	0	9.915603976943385E+002	4.0445435E-001	-2.7037677E+002
3	0	9.920603976817074E+002	4.0375486E-001	-2.7037326E+002
3	0	9.925603976690763E+002	4.0339062E-001	-2.7039447E+002
3	0	9.930603976564453E+002	4.0348172E-001	-2.7036972E+002
3	0	9.935603976438142E+002	4.0352350E-001	-2.7038742E+002
3	0	9.940603976311832E+002	4.0355134E-001	-2.7036972E+002
3	0	9.945603976185521E+002	4.0360111E-001	-2.7037677E+002
3	0	9.950603976059210E+002	4.0374383E-001	-2.7036267E+002
3	0	9.955603975932900E+002	4.0379485E-001	-2.7036267E+002
3	0	9.960603975806589E+002	4.0376338E-001	-2.7036972E+002
3	0	9.965603975680278E+002	4.0398371E-001	-2.7037326E+002
3	0	9.970603975553968E+002	4.0453723E-001	-2.7038742E+002
3	0	9.975603975427657E+002	4.0490261E-001	-2.7036267E+002
3	0	9.980603975301347E+002	4.0504766E-001	-2.7039093E+002
3	0	9.985603975175036E+002	4.0511826E-001	-2.7038031E+002
3	0	9.990603975048725E+002	4.0512860E-001	-2.7035559E+002
3	0	9.995603974922415E+002	4.0490210E-001	-2.7039093E+002
3	0	1.000060397479610E+003	4.0449840E-001	-2.7036267E+002
3	0	1.000560397466979E+003	4.0437323E-001	-2.7039093E+002
3	0	1.001060397454348E+003	4.0456611E-001	-2.7038031E+002
3	0	1.001560397441717E+003	4.0459746E-001	-2.7037326E+002
3	0	1.002060397429086E+003	4.0441716E-001	-2.7036618E+002
3	0	1.002560397416455E+003	4.0417442E-001	-2.7034497E+002
3	0	1.003060397403824E+003	4.0391800E-001	-2.7038742E+002
3	0	1.003560397391193E+003	4.0348294E-001	-2.7038385E+002
3	0	1.004060397378562E+003	4.0292639E-001	-2.7038031E+002
3	0	1.004560397365931E+003	4.0254617E-001	-2.7036267E+002
3	0	1.005060397353300E+003	4.0253448E-001	-2.7038031E+002
3	0	1.005560397340669E+003	4.0240008E-001	-2.7036267E+002
3	0	1.006060397328038E+003	4.0206903E-001	-2.7038031E+002
3	0	1.006560397315407E+003	4.0169016E-001	-2.7040506E+002
3	0	1.007060397302776E+003	4.0127346E-001	-2.7037326E+002
3	0	1.007560397290144E+003	4.0071687E-001	-2.7036267E+002
3	0	1.008060397277513E+003	4.0003169E-001	-2.7036972E+002
3	0	1.008560397264882E+003	3.9958400E-001	-2.7037677E+002
3	0	1.009060397252251E+003	3.9948803E-001	-2.7040155E+002
3	0	1.009560397239620E+003	3.9927629E-001	-2.7038385E+002
3	0	1.010060397226989E+003	3.9893711E-001	-2.7039801E+002
3	0	1.010560397214358E+003	3.9855003E-001	-2.7035205E+002
3	0	1.011060397201727E+003	3.9813080E-001	-2.7036618E+002
3	0	1.011560397189096E+003	3.9757496E-001	-2.7036972E+002
3	0	1.012060397176465E+003	3.9690128E-001	-2.7038385E+002
3	0	1.012560397163834E+003	3.9651778E-001	-2.7036267E+002
3	0	1.013060397151203E+003	3.9649552E-001	-2.7040506E+002
3	0	1.013560397138572E+003	3.9647591E-001	-2.7038031E+002
3	0	1.014060397125941E+003	3.9640707E-001	-2.7038385E+002
3	0	1.014560397113310E+003	3.9639878E-001	-2.7038742E+002
3	0	1.015060397100679E+003	3.9646941E-001	-2.7039447E+002
3	0	1.015560397088047E+003	3.9653233E-001	-2.7038031E+002
3	0	1.016060397075416E+003	3.9649683E-001	-2.7036267E+002
3	0	1.016560397062785E+003	3.9668223E-001	-2.7034497E+002
3	0	1.017060397050154E+003	3.9717096E-001	-2.7039447E+002
3	0	1.017560397037523E+003	3.9749697E-001	-2.7038385E+002
3	0	1.018060397024892E+003	3.9760414E-001	-2.7037326E+002
3	0	1.018560397012261E+003	3.9762780E-001	-2.7039447E+002
3	0	1.019060396999630E+003	3.9760789E-001	-2.7039447E+002
3	0	1.019560396986999E+003	3.9740729E-001	-2.7038385E+002
3	0	1.020060396974368E+003	3.9706561E-001	-2.7038742E+002
3	0	1.020560396961737E+003	3.9688829E-001	-2.7038385E+002
3	0	1.021060396949106E+003	3.9702210E-001	-2.7036972E+002
3	0	1.021560396936475E+003	3.9704666E-001	-2.7038742E+002
3	0	1.022060396923844E+003	3.9689526E-001	-2.7039447E+002
3	0	1.022560396911213E+003	3.9667922E-001	-2.7039093E+002
3	0	1.023060396898582E+003	3.9641574E-001	-2.7036972E+002
3	0	1.023560396885950E+003	3.9595079E-001	-2.7038031E+002
3	0	1.024060396873319E+003	3.9540482E-001	-2.7038385E+002
3	0	1.024560396860688E+003	3.9506561E-001	-2.7034497E+002
3	0	1.025060396848057E+003	3.9504701E-001	-2.7038742E+002
3	0	1.025560396835426E+003	3.9489642E-001	-2.7038385E+002
3	0	1.026060396822795E+003	3.9459118E-001	-2.7038031E+002
3	0	1.026560396810164E+003	3.9425430E-001	-2.7037326E+002
3	0	1.027060396797533E+003	3.9390370E-001	-2.7037326E+002
3	0	1.027560396784902E+003	3.9340019E-001	-2.7037326E+002
3	0	1.028060396772271E+003	3.9281821E-001	-2.7038742E+002
3	0	1.028560396759640E+003	3.9243594E-001	-2.7037326E+002
3	0	1.029060396747009E+003	3.9235681E-001	-2.7037326E+002
3	0	1.029560396734378E+003	3.9217716E-001	-2.7038031E+002
3	0	1.030060396721747E+003	3.9184415E-001	-2.7037677E+002
3	0	1.030560396709116E+003	3.9145714E-001	-2.7038385E+002
3	0	1.031060396696485E+003	3.9105093E-001	-2.7038742E+002
3	0	1.031560396683853E+003	3.9055550E-001	-2.7039447E+002
3	0	1.032060396671222E+003	3.8995072E-001	-2.7035559E+002
3	0	1.032560396658591E+003	3.8955864E-001	-2.7036618E+002
3	0	1.033060396645960E+003	3.8951743E-001	-2.7036972E+002
3	0	1.033560396633329E+003	3.8946822E-001	-2.7039801E+002
3	0	1.034060396620698E+003	3.8935810E-001	-2.7037677E+002
3	0	1.034560396608067E+003	3.8928196E-001	-2.7038742E+002
3	0	1.035060396595436E+003	3.8928121E-001	-2.7038031E+002
3	0	1.035560396582805E+003	3.8922209E-001	-2.7037326E+002
3	0	1.036060396570174E+003	3.8911179E-001	-2.7038385E+002
3	0	1.036560396557543E+003	3.8928750E-001	-2.7035205E+002
3	0	1.037060396544912E+003	3.8969079E-001	-2.7037677E+002
3	0	1.037560396532281E+003	3.8993847E-001	-2.7036972E+002
3	0	1.038060396519650E+003	3.8998118E-001	-2.7037677E+002
3	0	1.038560396507019E+003	3.8995677E-001	-2.7036618E+002
3	0	1.039060396494388E+003	3.8987961E-001	-2.7035913E+002
3	0	1.039560396481756E+003	3.8967288E-001	-2.7040860E+002
3	0	1.040060396469125E+003	3.8932845E-001	-2.7039093E+002
3	0	1.040560396456494E+003	3.8912359E-001	-2.7037326E+002
3	0	1.041060396443863E+003	3.8917780E-001	-2.7038385E+002
3	0	1.041560396431232E+003	3.8911772E-001	-2.7039093E+002
3	0	1.042060396418601E+003	3.8893515E-001	-2.7036267E+002
3	0	1.042560396405970E+003	3.8871381E-001	-2.7038031E+002
3	0	1.043060396393339E+003	3.8845524E-001	-2.7036972E+002
3	0	1.043560396380708E+003	3.8810566E-001	-2.7035559E+002
3	0	1.044060396368077E+003	3.8759193E-001	-2.7034851E+002
3	0	1.044560396355446E+003	3.8723803E-001	-2.7037326E+002
3	0	1.045060396342815E+003	3.8720101E-001	-2.7035559E+002
3	0	1.045560396330184E+003	3.8708091E-001	-2.7038031E+002
3	0	1.046060396317553E+003	3.8682246E-001	-2.7038031E+002
3	0	1.046560396304922E+003	3.8649657E-001	-2.7036618E+002
3	0	1.047060396292291E+003	3.8614804E-001	-2.7036972E+002
3	0	1.047560396279659E+003	3.8570163E-001	-2.7036972E+002
3	0	1.048060396267028E+003	3.8513222E-001	-2.7037677E+002
3	0	1.048560396254397E+003	3.8475031E-001	-2.7037677E+002
3	0	1.049060396241766E+003	3.8462985E-001	-2.7038742E+002
3	0	1.049560396229135E+003	3.8444856E-001	-2.7038742E+002
3	0	1.050060396216504E+003	3.8414791E-001	-2.7040155E+002
3	0	1.050560396203873E+003	3.8380075E-001	-2.7038742E+002
3	0	1.051060396191242E+003	3.8344738E-001	-2.7039093E+002
3	0	1.051560396178611E+003	3.8300791E-001	-2.7034497E+002
3	0	1.052060396165980E+003	3.8244629E-001	-2.7035913E+002
3	0	1.052560396153349E+003	3.8204122E-001	-2.7039093E+002
3	0	1.053060396140718E+003	3.8194525E-001	-2.7038385E+002
3	0	1.053560396128087E+003	3.8188341E-001	-2.7037677E+002
3	0	1.054060396115456E+003	3.8177025E-001	-2.7038031E+002
3	0	1.054560396102825E+003	3.8170338E-001	-2.7037677E+002
3	0	1.055060396090194E+003	3.8172272E-001	-2.7038742E+002
3	0	1.055560396077562E+003	3.8169900E-001	-2.7036618E+002
3	0	1.056060396064931E+003	3.8162333E-001	-2.7040860E+002
3	0	1.056560396052300E+003	3.8173920E-001	-2.7040155E+002
3	0	1.057060396039669E+003	3.8213009E-001	-2.7037326E+002
3	0	1.057560396027038E+003	3.8242489E-001	-2.7039093E+002
3	0	1.058060396014407E+003	3.8253435E-001	-2.7036972E+002
3	0	1.058560396001776E+003	3.8255095E-001	-2.7038031E+002
3	0	1.059060395989145E+003	3.8249698E-001	-2.7039447E+002
3	0	1.059560395976514E+003	3.8228136E-001	-2.7039093E+002
3	0	1.060060395963883E+003	3.8196093E-001	-2.7037326E+002
3	0	1.060560395951252E+003	3.8178796E-001	-2.7038031E+002
3	0	1.061060395938621E+003	3.8185546E-001	-2.7040506E+002
3	0	1.061560395925990E+003	3.8186014E-001	-2.7036618E+002
3	0	1.062060395913359E+003	3.8171834E-001	-2.7037326E+002
3	0	1.062560395900728E+003	3.8152730E-001	-2.7036972E+002
3	0	1.063060395888097E+003	3.8129780E-001	-2.7038742E+002
3	0	1.063560395875465E+003	3.8094333E-001	-2.7037326E+002
3	0	1.064060395862834E+003	3.8050610E-001	-2.7036618E+002
3	0	1.064560395850203E+003	3.8019991E-001	-2.7036267E+002
3	0	1.065060395837572E+003	3.8013935E-001	-2.7038031E+002
3	0	1.065560395824941E+003	3.8000345E-001	-2.7036972E+002
3	0	1.066060395812310E+003	3.7974986E-001	-2.7037326E+002
3	0	1.066560395799679E+003	3.7945038E-001	-2.7037326E+002
3	0	1.067060395787048E+003	3.7912065E-001	-2.7035913E+002
3	0	1.067560395774417E+003	3.7868989E-001	-2.7037326E+002
3	0	1.068060395761786E+003	3.7817201E-001	-2.7036618E+002
3	0	1.068560395749155E+003	3.7780553E-001	-2.7039447E+002
3	0	1.069060395736524E+003	3.7768972E-001	-2.7036618E+002
3	0	1.069560395723893E+003	3.7754864E-001	-2.7038385E+002
3	0	1.070060395711262E+003	3.7727562E-001	-2.7038742E+002
3	0	1.070560395698631E+003	3.7692750E-001	-2.7037326E+002
3	0	1.071060395686000E+003	3.7653553E-001	-2.7041214E+002
3	0	1.071560395673368E+003	3.7611613E-001	-2.7036618E+002
3	0	1.072060395660737E+003	3.7563682E-001	-2.7039447E+002
3	0	1.072560395648106E+003	3.7535018E-001	-2.7037677E+002
3	0	1.073060395635475E+003	3.7525961E-001	-2.7039093E+002
3	0	1.073560395622844E+003	3.7513071E-001	-2.7039801E+002
3	0	1.074060395610213E+003	3.7498364E-001	-2.7038031E+002
3	0	1.074560395597582E+003	3.7489086E-001	-2.7038031E+002
3	0	1.075060395584951E+003	3.7489232E-001	-2.7036618E+002
3	0	1.075560395572320E+003	3.7486392E-001	-2.7038385E+002
3	0	1.076060395559689E+003	3.7481117E-001	-2.7036972E+002
3	0	1.076560395547058E+003	3.7491816E-001	-2.7037326E+002
3	0	1.077060395534427E+003	3.7523529E-001	-2.7036972E+002
3	0	1.077560395521796E+003	3.7544510E-001	-2.7034851E+002
3	0	1.078060395509165E+003	3.7552765E-001	-2.7038385E+002
3	0	1.078560395496534E+003	3.7553632E-001	-2.7038031E+002
3	0	1.079060395483903E+003	3.7549055E-001	-2.7038742E+002
3	0	1.079560395471271E+003	3.7534294E-001	-2.7037326E+002
3	0	1.080060395458640E+003	3.7506831E-001	-2.7037326E+002
3	0	1.080560395446009E+003	3.7489101E-001	-2.7038031E+002
3	0	1.081060395433378E+003	3.7489071E-001	-2.7038031E+002
3	0	1.081560395420747E+003	3.7482560E-001	-2.7038031E+002
3	0	1.082060395408116E+003	3.7465641E-001	-2.7036972E+002
3	0	1.082560395395485E+003	3.7445071E-001	-2.7037677E+002
3	0	1.083060395382854E+003	3.7423429E-001	-2.7038742E+002
3	0	1.083560395370223E+003	3.7392324E-001	-2.7038385E+002
3	0	1.084060395357592E+003	3.7352425E-001	-2.7038742E+002
3	0	1.084560395344961E+003	3.7328193E-001	-2.7037677E+002
3	0	1.085060395332330E+003	3.7319455E-001	-2.7037677E+002
3	0	1.085560395319699E+003	3.7304443E-001	-2.7039447E+002
3	0	1.086060395307068E+003	3.7280306E-001	-2.7038031E+002
3	0	1.086560395294437E+003	3.7252972E-001	-2.7036267E+002
3	0	1.087060395281806E+003	3.7226081E-001	-2.7039447E+002
3	0	1.087560395269174E+003	3.7188888E-001	-2.7035913E+002
3	0	1.088060395256543E+003	3.7141618E-001	-2.7038742E+002
3	0	1.088560395243912E+003	3.7106264E-001	-2.7038385E+002
3	0	1.089060395231281E+003	3.7089884E-001	-2.7041568E+002
3	0	1.089560395218650E+003	3.7069613E-001	-2.7038385E+002
3	0	1.090060395206019E+003	3.7041336E-001	-2.7039801E+002
3	0	1.090560395193388E+003	3.7012908E-001	-2.7038742E+002
3	0	1.091060395180757E+003	3.6982355E-001	-2.7037326E+002
3	0	1.091560395168126E+003	3.6946413E-001	-2.7039093E+002
3	0	1.092060395155495E+003	3.6902460E-001	-2.7038031E+002
3	0	1.092560395142864E+003	3.6869845E-001	-2.7037677E+002
3	0	1.093060395130233E+003	3.6857504E-001	-2.7036618E+002
3	0	1.093560395117602E+003	3.6843002E-001	-2.7036972E+002
3	0	1.094060395104971E+003	3.6827955E-001	-2.7038031E+002
3	0	1.094560395092340E+003	3.6818710E-001	-2.7037677E+002
3	0	1.095060395079709E+003	3.6815122E-001	-2.7038742E+002
3	0	1.095560395067077E+003	3.6811915E-001	-2.7036618E+002
3	0	1.096060395054446E+003	3.6805987E-001	-2.7038031E+002
3	0	1.096560395041815E+003	3.6815274E-001	-2.7035913E+002
3	0	1.097060395029184E+003	3.6842138E-001	-2.7038742E+002
3	0	1.097560395016553E+003	3.6861357E-001	-2.7038031E+002
3	0	1.098060395003922E+003	3.6868677E-001	-2.7038385E+002
3	0	1.098560394991291E+003	3.6869967E-001	-2.7037326E+002
3	0	1.099060394978660E+003	3.6867192E-001	-2.7036618E+002
3	0	1.099560394966029E+003	3.6851877E-001	-2.7039801E+002
3	0	1.100060394953398E+003	3.6823335E-001	-2.7038031E+002
3	0	1.100560394940767E+003	3.6806300E-001	-2.7036972E+002
3	0	1.101060394928136E+003	3.6806753E-001	-2.7036267E+002
3	0	1.101560394915505E+003	3.6802146E-001	-2.7036267E+002
3	0	1.102060394902874E+003	3.6787650E-001	-2.7037677E+002
3	0	1.102560394890243E+003	3.6766857E-001	-2.7038385E+002
3	0	1.103060394877612E+003	3.6744049E-001	-2.7038031E+002
3	0	1.103560394864980E+003	3.6714444E-001	-2.7037326E+002
3	0	1.104060394852349E+003	3.6674556E-001	-2.7038031E+002
3	0	1.104560394839718E+003	3.6643839E-001	-2.7036972E+002
3	0	1.105060394827087E+003	3.6632124E-001	-2.7037677E+002
3	0	1.105560394814456E+003	3.6618143E-001	-2.7039801E+002
3	0	1.106060394801825E+003	3.6594111E-001	-2.7038031E+002
3	0	1.106560394789194E+003	3.6568484E-001	-2.7038385E+002
3	0	1.107060394776563E+003	3.6541024E-001	-2.7037677E+002
3	0	1.107560394763932E+003	3.6504972E-001	-2.7037677E+002
3	0	1.108060394751301E+003	3.6462453E-001	-2.7036618E+002
3	0	1.108560394738670E+003	3.6431715E-001	-2.7035559E+002
3	0	1.109060394726039E+003	3.6417294E-001	-2.7039093E+002
3	0	1.109560394713408E+003	3.6398435E-001	-2.7037677E+002
3	0	1.110060394700777E+003	3.6374828E-001	-2.7036267E+002
3	0	1.110560394688146E+003	3.6348951E-001	-2.7037677E+002
3	0	1.111060394675515E+003	3.6321115E-001	-2.7036618E+002
3	0	1.111560394662883E+003	3.6287144E-001	-2.7036267E+002
3	0	1.112060394650252E+003	3.6245477E-001	-2.7037326E+002
3	0	1.112560394637621E+003	3.6212334E-001	-2.7034143E+002
3	0	1.113060394624990E+003	3.6199662E-001	-2.7037326E+002
3	0	1.113560394612359E+003	3.6187962E-001	-2.7038385E+002
3	0	1.114060394599728E+003	3.6174300E-001	-2.7038031E+002
3	0	1.114560394587097E+003	3.6162654E-001	-2.7039093E+002
3	0	1.115060394574466E+003	3.6156407E-001	-2.7037677E+002
3	0	1.115560394561835E+003	3.6150113E-001	-2.7035559E+002
3	0	1.116060394549204E+003	3.6140385E-001	-2.7040506E+002
3	0	1.116560394536573E+003	3.6144587E-001	-2.7040860E+002
3	0	1.117060394523942E+003	3.6170235E-001	-2.7039801E+002
3	0	1.117560394511311E+003	3.6194339E-001	-2.7037326E+002
3	0	1.118060394498680E+003	3.6208448E-001	-2.7038031E+002
3	0	1.118560394486049E+003	3.6215129E-001	-2.7034851E+002
3	0	1.119060394473418E+003	3.6215058E-001	-2.7038742E+002
3	0	1.119560394460786E+003	3.6205664E-001	-2.7041214E+002
3	0	1.120060394448155E+003	3.6184362E-001	-2.7037326E+002
3	0	1.120560394435524E+003	3.6170390E-001	-2.7036618E+002
3	0	1.121060394422893E+003	3.6171284E-001	-2.7038742E+002
3	0	1.121560394410262E+003	3.6164480E-001	-2.7036618E+002
3	0	1.122060394397631E+003	3.6151895E-001	-2.7038031E+002
3	0	1.122560394385000E+003	3.6135656E-001	-2.7036618E+002
3	0	1.122583794384409E+003	3.6127988E-001	-2.7039447E+002