EC-Lab ASCII FILE
Nb header lines : 55                          

Open Circuit Voltage

Run on channel : 1 (SN 81504)
User : 
CE vs. WE compliance from -10 V to 10 V
Electrode connection : standard
Potential control : Ewe
Ewe ctrl range : min = -2.50 V, max = 2.50 V
Safety Limits :
	Do not start on E overload
Acquisition started on : 05/09/2026 23:59:42.806
Loaded Setting File :  C:\PEM-WE_measurements\2026\372_IV_IV IrOx, 5 min Pt, 30 min C, etched cathode\new station\Loopeis new\1,46 V different time gaps closed cell\Loopeis 1,46V_30s_4_PEIS from 650Hz to 100Hz.mps
Saved on :
	File : L_04_Loopeis 1,46V_30s_4_PEIS from 650Hz to 100Hz_18_OCV_C01.mpr
	Directory : C:\PEM-WE_measurements\2026\372_IV_IV IrOx, 5 min Pt, 30 min C, etched cathode\new station\Loopeis new\1,46 V different time gaps closed cell\
	Host : 192.168.0.2
Device : SP-150e (SN .005491)
Address : 192.168.0.91
EC-LAB for windows v11.71 (software)
Internet server v28.00 (firmware)
Command interpretor v14.01 (firmware)
Electrode material : 
Initial state : 
Electrolyte : 
Comments : 
Current amplifier : SP-150eB-20A
Electrode surface area : 0.001 cm²
Characteristic mass : 0.001 g
Equivalent Weight : 0.000 g/eq.
Density : 0.000 g/cm3
Volume (V) : 0.001 cm³
Record Analogic IN 1
Text export
   Mode : Standard
   Time format : Elapsed
Cycle Definition : Charge/Discharge alternance
External device configuration :
   device type : Temperature Probe
   device name : Other
   Analog IN 1 : 
      unit : T/Â°C
      max : 100.000 at 2.000 V
      min : 0.000 at 1.460 V
tR (h:m:s)          0:00:30.0000        
dER/dt (mV/h)       1.0                 
record              <Ewe>               
dER (mV)            10.00               
dtR (s)             0.5000              
E range min (V)     -2.500              
E range max (V)     2.500               

mode	error	time/s	<Ewe/V>	Analog IN 1/V	
3	0	6.512439970623382E+002	1.4204482E+000	-2.7038031E+002
3	0	6.517439970497071E+002	1.4125531E+000	-2.7038031E+002
3	0	6.522439970370760E+002	1.4070250E+000	-2.7036618E+002
3	0	6.527439970244450E+002	1.4029824E+000	-2.7037677E+002
3	0	6.532439970118139E+002	1.3998324E+000	-2.7039093E+002
3	0	6.537439969991829E+002	1.3972239E+000	-2.7036618E+002
3	0	6.542439969865518E+002	1.3950025E+000	-2.7036972E+002
3	0	6.547439969739207E+002	1.3930721E+000	-2.7038385E+002
3	0	6.552439969612897E+002	1.3913480E+000	-2.7039093E+002
3	0	6.557439969486586E+002	1.3897400E+000	-2.7038385E+002
3	0	6.562439969360275E+002	1.3882000E+000	-2.7038742E+002
3	0	6.567439969233965E+002	1.3868186E+000	-2.7040155E+002
3	0	6.572439969107654E+002	1.3855830E+000	-2.7038031E+002
3	0	6.577439968981344E+002	1.3844262E+000	-2.7038742E+002
3	0	6.582439968855033E+002	1.3833462E+000	-2.7039093E+002
3	0	6.587439968728722E+002	1.3823413E+000	-2.7037326E+002
3	0	6.592439968602412E+002	1.3813862E+000	-2.7038385E+002
3	0	6.597439968476101E+002	1.3804325E+000	-2.7037326E+002
3	0	6.602439968349790E+002	1.3794545E+000	-2.7037677E+002
3	0	6.607439968223480E+002	1.3785689E+000	-2.7036618E+002
3	0	6.612439968097169E+002	1.3777647E+000	-2.7035559E+002
3	0	6.617439967970859E+002	1.3769752E+000	-2.7036618E+002
3	0	6.622439967844548E+002	1.3762399E+000	-2.7038385E+002
3	0	6.627439967718237E+002	1.3755252E+000	-2.7038742E+002
3	0	6.632439967591927E+002	1.3748311E+000	-2.7039093E+002
3	0	6.637439967465616E+002	1.3741060E+000	-2.7037677E+002
3	0	6.642439967339305E+002	1.3733394E+000	-2.7038385E+002
3	0	6.647439967212995E+002	1.3726364E+000	-2.7036618E+002
3	0	6.652439967086684E+002	1.3719975E+000	-2.7038742E+002
3	0	6.657439966960374E+002	1.3713676E+000	-2.7038385E+002
3	0	6.662439966834063E+002	1.3707594E+000	-2.7039801E+002
3	0	6.667439966707752E+002	1.3701843E+000	-2.7039093E+002
3	0	6.672439966581442E+002	1.3695993E+000	-2.7038031E+002
3	0	6.677439966455131E+002	1.3689579E+000	-2.7039801E+002
3	0	6.682439966328820E+002	1.3682749E+000	-2.7037326E+002
3	0	6.687439966202510E+002	1.3676411E+000	-2.7038385E+002
3	0	6.692439966076199E+002	1.3670547E+000	-2.7036972E+002
3	0	6.697439965949889E+002	1.3664701E+000	-2.7038031E+002
3	0	6.702439965823578E+002	1.3659052E+000	-2.7037677E+002
3	0	6.707439965697267E+002	1.3653530E+000	-2.7039093E+002
3	0	6.712439965570957E+002	1.3648032E+000	-2.7038742E+002
3	0	6.717439965444646E+002	1.3642098E+000	-2.7040155E+002
3	0	6.722439965318335E+002	1.3635492E+000	-2.7038385E+002
3	0	6.727439965192025E+002	1.3629537E+000	-2.7037326E+002
3	0	6.732439965065714E+002	1.3623887E+000	-2.7039093E+002
3	0	6.737439964939404E+002	1.3618367E+000	-2.7036972E+002
3	0	6.742439964813093E+002	1.3612881E+000	-2.7037326E+002
3	0	6.747439964686782E+002	1.3607516E+000	-2.7038742E+002
3	0	6.752439964560472E+002	1.3602087E+000	-2.7040506E+002
3	0	6.757439964434161E+002	1.3596194E+000	-2.7038031E+002
3	0	6.762439964307850E+002	1.3589675E+000	-2.7036618E+002
3	0	6.767439964181540E+002	1.3583688E+000	-2.7036618E+002
3	0	6.772439964055229E+002	1.3578181E+000	-2.7036972E+002
3	0	6.777439963928919E+002	1.3572652E+000	-2.7039093E+002
3	0	6.782439963802608E+002	1.3567214E+000	-2.7037326E+002
3	0	6.787439963676297E+002	1.3561751E+000	-2.7038742E+002
3	0	6.792439963549987E+002	1.3556372E+000	-2.7035205E+002
3	0	6.797439963423676E+002	1.3550484E+000	-2.7037326E+002
3	0	6.802439963297365E+002	1.3543938E+000	-2.7039093E+002
3	0	6.807439963171055E+002	1.3537918E+000	-2.7037326E+002
3	0	6.807443963170954E+002	1.3535457E+000	-2.7039801E+002