EC-Lab ASCII FILE
Nb header lines : 55                          

Open Circuit Voltage

Run on channel : 1 (SN 81504)
User : 
CE vs. WE compliance from -10 V to 10 V
Electrode connection : standard
Potential control : Ewe
Ewe ctrl range : min = -2.50 V, max = 2.50 V
Safety Limits :
	Do not start on E overload
Acquisition started on : 05/10/2026 04:38:51.126
Loaded Setting File :  C:\PEM-WE_measurements\2026\372_IV_IV IrOx, 5 min Pt, 30 min C, etched cathode\new station\Loopeis new\1,46 V different time gaps closed cell\Loopeis 1,46V_90s_4_PEIS from 650Hz to 100Hz.mps
Saved on :
	File : L_19_Loopeis 1,46V_90s_4_PEIS from 650Hz to 100Hz_06_OCV_C01.mpr
	Directory : C:\PEM-WE_measurements\2026\372_IV_IV IrOx, 5 min Pt, 30 min C, etched cathode\new station\Loopeis new\1,46 V different time gaps closed cell\
	Host : 192.168.0.2
Device : SP-150e (SN .005491)
Address : 192.168.0.91
EC-LAB for windows v11.71 (software)
Internet server v28.00 (firmware)
Command interpretor v14.01 (firmware)
Electrode material : 
Initial state : 
Electrolyte : 
Comments : 
Current amplifier : SP-150eB-20A
Electrode surface area : 0.001 cm²
Characteristic mass : 0.001 g
Equivalent Weight : 0.000 g/eq.
Density : 0.000 g/cm3
Volume (V) : 0.001 cm³
Record Analogic IN 1
Text export
   Mode : Standard
   Time format : Elapsed
Cycle Definition : Charge/Discharge alternance
External device configuration :
   device type : Temperature Probe
   device name : Other
   Analog IN 1 : 
      unit : T/Â°C
      max : 100.000 at 2.000 V
      min : 0.000 at 1.460 V
tR (h:m:s)          0:01:30.0000        
dER/dt (mV/h)       1.0                 
record              <Ewe>               
dER (mV)            10.00               
dtR (s)             0.5000              
E range min (V)     -2.500              
E range max (V)     2.500               

mode	error	time/s	<Ewe/V>	Analog IN 1/V	
3	0	3.152125952902134E+002	1.2853124E+000	-2.7037326E+002
3	0	3.157125952775823E+002	1.2920686E+000	-2.7038031E+002
3	0	3.162125952649512E+002	1.2929467E+000	-2.7039093E+002
3	0	3.167125952523202E+002	1.2924074E+000	-2.7034497E+002
3	0	3.172125952396891E+002	1.2909328E+000	-2.7037677E+002
3	0	3.177125952270580E+002	1.2884538E+000	-2.7038031E+002
3	0	3.182125952144270E+002	1.2845428E+000	-2.7038385E+002
3	0	3.187125952017959E+002	1.2783557E+000	-2.7039447E+002
3	0	3.192125951891649E+002	1.2685521E+000	-2.7039093E+002
3	0	3.197125951765338E+002	1.2530004E+000	-2.7038031E+002
3	0	3.202125951639027E+002	1.2284913E+000	-2.7035913E+002
3	0	3.207125951512717E+002	1.1887361E+000	-2.7037677E+002
3	0	3.212125951386406E+002	1.1166078E+000	-2.7039093E+002
3	0	3.217125951260095E+002	9.5937455E-001	-2.7037677E+002
3	0	3.222125951133785E+002	6.9858539E-001	-2.7040860E+002
3	0	3.227125951007474E+002	5.9178734E-001	-2.7039801E+002
3	0	3.232125950881164E+002	5.6047946E-001	-2.7035559E+002
3	0	3.237125950754853E+002	5.4940838E-001	-2.7039093E+002
3	0	3.242125950628542E+002	5.4585207E-001	-2.7038385E+002
3	0	3.247125950502232E+002	5.4518253E-001	-2.7040860E+002
3	0	3.252125950375921E+002	5.4591805E-001	-2.7040155E+002
3	0	3.257125950249610E+002	5.4701418E-001	-2.7038742E+002
3	0	3.262125950123300E+002	5.4802078E-001	-2.7040155E+002
3	0	3.267125949996989E+002	5.4902029E-001	-2.7038385E+002
3	0	3.272125949870679E+002	5.5150139E-001	-2.7040155E+002
3	0	3.277125949744368E+002	5.5479032E-001	-2.7036618E+002
3	0	3.282125949618057E+002	5.5847049E-001	-2.7038385E+002
3	0	3.287125949491747E+002	5.6231010E-001	-2.7037326E+002
3	0	3.292125949365436E+002	5.6630975E-001	-2.7037326E+002
3	0	3.297125949239125E+002	5.7046825E-001	-2.7035205E+002
3	0	3.302125949112815E+002	5.7443136E-001	-2.7038031E+002
3	0	3.307125948986504E+002	5.7828724E-001	-2.7037326E+002
3	0	3.312125948860194E+002	5.8353972E-001	-2.7038031E+002
3	0	3.317125948733883E+002	5.8919615E-001	-2.7038742E+002
3	0	3.322125948607572E+002	5.9456819E-001	-2.7038031E+002
3	0	3.327125948481262E+002	5.9936386E-001	-2.7038385E+002
3	0	3.332125948354951E+002	6.0359752E-001	-2.7039093E+002
3	0	3.337125948228640E+002	6.0723191E-001	-2.7038031E+002
3	0	3.342125948102330E+002	6.1000413E-001	-2.7041214E+002
3	0	3.347125947976019E+002	6.1209255E-001	-2.7039447E+002
3	0	3.352125947849709E+002	6.1518699E-001	-2.7036972E+002
3	0	3.357125947723398E+002	6.1863780E-001	-2.7036618E+002
3	0	3.362125947597087E+002	6.2176269E-001	-2.7038385E+002
3	0	3.367125947470777E+002	6.2445426E-001	-2.7038385E+002
3	0	3.372125947344466E+002	6.2652129E-001	-2.7038742E+002
3	0	3.377125947218155E+002	6.2791425E-001	-2.7038385E+002
3	0	3.382125947091845E+002	6.2848055E-001	-2.7038742E+002
3	0	3.387125946965534E+002	6.2861669E-001	-2.7037326E+002
3	0	3.392125946839224E+002	6.2997979E-001	-2.7036972E+002
3	0	3.397125946712913E+002	6.3161284E-001	-2.7036618E+002
3	0	3.402125946586602E+002	6.3311106E-001	-2.7038031E+002
3	0	3.407125946460292E+002	6.3419491E-001	-2.7035205E+002
3	0	3.412125946333981E+002	6.3486946E-001	-2.7039447E+002
3	0	3.417125946207671E+002	6.3504487E-001	-2.7038031E+002
3	0	3.422125946081360E+002	6.3438010E-001	-2.7038031E+002
3	0	3.427125945955049E+002	6.3324362E-001	-2.7040155E+002
3	0	3.432125945828739E+002	6.3329023E-001	-2.7039093E+002
3	0	3.437125945702428E+002	6.3380057E-001	-2.7037326E+002
3	0	3.442125945576117E+002	6.3372785E-001	-2.7038742E+002
3	0	3.447125945449807E+002	6.3390791E-001	-2.7036618E+002
3	0	3.452125945323496E+002	6.3403875E-001	-2.7038385E+002
3	0	3.457125945197186E+002	6.3363075E-001	-2.7036618E+002
3	0	3.462125945070875E+002	6.3263804E-001	-2.7040506E+002
3	0	3.467125944944564E+002	6.3105369E-001	-2.7038031E+002
3	0	3.472125944818254E+002	6.3054895E-001	-2.7035913E+002
3	0	3.477125944691943E+002	6.3067776E-001	-2.7039093E+002
3	0	3.482125944565632E+002	6.3070631E-001	-2.7035913E+002
3	0	3.487125944439322E+002	6.3105577E-001	-2.7040860E+002
3	0	3.492125944313011E+002	6.3174886E-001	-2.7036972E+002
3	0	3.497125944186701E+002	6.3260108E-001	-2.7039447E+002
3	0	3.502125944060390E+002	6.3334829E-001	-2.7037677E+002
3	0	3.507125943934079E+002	6.3420862E-001	-2.7038742E+002
3	0	3.512125943807769E+002	6.3683313E-001	-2.7039801E+002
3	0	3.517125943681458E+002	6.4029109E-001	-2.7038742E+002
3	0	3.522125943555147E+002	6.4355928E-001	-2.7036618E+002
3	0	3.527125943428837E+002	6.4658725E-001	-2.7038385E+002
3	0	3.532125943302526E+002	6.4921606E-001	-2.7039447E+002
3	0	3.537125943176216E+002	6.5120310E-001	-2.7038031E+002
3	0	3.542125943049905E+002	6.5237975E-001	-2.7039093E+002
3	0	3.547125942923594E+002	6.5290862E-001	-2.7037326E+002
3	0	3.552125942797284E+002	6.5452379E-001	-2.7036618E+002
3	0	3.557125942670973E+002	6.5656495E-001	-2.7037677E+002
3	0	3.562125942544662E+002	6.5800637E-001	-2.7037677E+002
3	0	3.567125942418352E+002	6.5893143E-001	-2.7038742E+002
3	0	3.572125942292041E+002	6.5918159E-001	-2.7040155E+002
3	0	3.577125942165731E+002	6.5864456E-001	-2.7040860E+002
3	0	3.582125942039420E+002	6.5701473E-001	-2.7035913E+002
3	0	3.587125941913109E+002	6.5472740E-001	-2.7040155E+002
3	0	3.592125941786799E+002	6.5350109E-001	-2.7038742E+002
3	0	3.597125941660488E+002	6.5284991E-001	-2.7038031E+002
3	0	3.602125941534177E+002	6.5158653E-001	-2.7037677E+002
3	0	3.607125941407867E+002	6.4991975E-001	-2.7037677E+002
3	0	3.612125941281556E+002	6.4767873E-001	-2.7038031E+002
3	0	3.617125941155246E+002	6.4491010E-001	-2.7039447E+002
3	0	3.622125941028935E+002	6.4109826E-001	-2.7038742E+002
3	0	3.627125940902624E+002	6.3700056E-001	-2.7038385E+002
3	0	3.632125940776314E+002	6.3422620E-001	-2.7036618E+002
3	0	3.637125940650003E+002	6.3222378E-001	-2.7038385E+002
3	0	3.642125940523692E+002	6.3001603E-001	-2.7038385E+002
3	0	3.647125940397382E+002	6.2769717E-001	-2.7034851E+002
3	0	3.652125940271071E+002	6.2507695E-001	-2.7038031E+002
3	0	3.657125940144761E+002	6.2208694E-001	-2.7039093E+002
3	0	3.662125940018450E+002	6.1835665E-001	-2.7036972E+002
3	0	3.667125939892139E+002	6.1430877E-001	-2.7037326E+002
3	0	3.672125939765829E+002	6.1162037E-001	-2.7037677E+002
3	0	3.677125939639518E+002	6.0989773E-001	-2.7039801E+002
3	0	3.682125939513207E+002	6.0848975E-001	-2.7037326E+002
3	0	3.687125939386897E+002	6.0755849E-001	-2.7039801E+002
3	0	3.692125939260586E+002	6.0701668E-001	-2.7036618E+002
3	0	3.697125939134276E+002	6.0675287E-001	-2.7039093E+002
3	0	3.702125939007965E+002	6.0665685E-001	-2.7039093E+002
3	0	3.707125938881654E+002	6.0701698E-001	-2.7038385E+002
3	0	3.712125938755344E+002	6.0917711E-001	-2.7035559E+002
3	0	3.717125938629033E+002	6.1257732E-001	-2.7038031E+002
3	0	3.722125938502722E+002	6.1600411E-001	-2.7040506E+002
3	0	3.727125938376412E+002	6.1946946E-001	-2.7035913E+002
3	0	3.732125938250101E+002	6.2261754E-001	-2.7037677E+002
3	0	3.737125938123791E+002	6.2508464E-001	-2.7037326E+002
3	0	3.742125937997480E+002	6.2646598E-001	-2.7036972E+002
3	0	3.747125937871169E+002	6.2722927E-001	-2.7038385E+002
3	0	3.752125937744859E+002	6.2887555E-001	-2.7039093E+002
3	0	3.757125937618548E+002	6.3085711E-001	-2.7037677E+002
3	0	3.762125937492237E+002	6.3219702E-001	-2.7037677E+002
3	0	3.767125937365927E+002	6.3288456E-001	-2.7035913E+002
3	0	3.772125937239616E+002	6.3295752E-001	-2.7037677E+002
3	0	3.777125937113306E+002	6.3211232E-001	-2.7037677E+002
3	0	3.782125936986995E+002	6.2992454E-001	-2.7039447E+002
3	0	3.787125936860684E+002	6.2698656E-001	-2.7037677E+002
3	0	3.792125936734374E+002	6.2517190E-001	-2.7038031E+002
3	0	3.797125936608063E+002	6.2383580E-001	-2.7036972E+002
3	0	3.802125936481752E+002	6.2208962E-001	-2.7035913E+002
3	0	3.807125936355442E+002	6.1999911E-001	-2.7040506E+002
3	0	3.812125936229131E+002	6.1744392E-001	-2.7037677E+002
3	0	3.817125936102821E+002	6.1427289E-001	-2.7038742E+002
3	0	3.822125935976510E+002	6.1030495E-001	-2.7036972E+002
3	0	3.827125935850199E+002	6.0592723E-001	-2.7036267E+002
3	0	3.832125935723889E+002	6.0264975E-001	-2.7038742E+002
3	0	3.837125935597578E+002	5.9999490E-001	-2.7038385E+002
3	0	3.842125935471267E+002	5.9700924E-001	-2.7038031E+002
3	0	3.847125935344957E+002	5.9378707E-001	-2.7039447E+002
3	0	3.852125935218646E+002	5.9014630E-001	-2.7039093E+002
3	0	3.857125935092336E+002	5.8605808E-001	-2.7036618E+002
3	0	3.862125934966025E+002	5.8114380E-001	-2.7039093E+002
3	0	3.867125934839714E+002	5.7599616E-001	-2.7039801E+002
3	0	3.872125934713404E+002	5.7222956E-001	-2.7037677E+002
3	0	3.877125934587093E+002	5.6925672E-001	-2.7038031E+002
3	0	3.882125934460782E+002	5.6643504E-001	-2.7036618E+002
3	0	3.887125934334472E+002	5.6405842E-001	-2.7039093E+002
3	0	3.892125934208161E+002	5.6212866E-001	-2.7036618E+002
3	0	3.897125934081851E+002	5.6063074E-001	-2.7038031E+002
3	0	3.902125933955540E+002	5.5921531E-001	-2.7038385E+002
3	0	3.907125933829229E+002	5.5810630E-001	-2.7036618E+002
3	0	3.912125933702919E+002	5.5890501E-001	-2.7038742E+002
3	0	3.917125933576608E+002	5.6069541E-001	-2.7036972E+002
3	0	3.922125933450297E+002	5.6256145E-001	-2.7038742E+002
3	0	3.927125933323987E+002	5.6445557E-001	-2.7038031E+002
3	0	3.932125933197676E+002	5.6610155E-001	-2.7036618E+002
3	0	3.937125933071366E+002	5.6744659E-001	-2.7036972E+002
3	0	3.942125932945055E+002	5.6787950E-001	-2.7037677E+002
3	0	3.947125932818744E+002	5.6788802E-001	-2.7038031E+002
3	0	3.952125932692434E+002	5.6893075E-001	-2.7037326E+002
3	0	3.957125932566123E+002	5.7044810E-001	-2.7036972E+002
3	0	3.962125932439812E+002	5.7144642E-001	-2.7037677E+002
3	0	3.967125932313502E+002	5.7208401E-001	-2.7035913E+002
3	0	3.972125932187191E+002	5.7205540E-001	-2.7038742E+002
3	0	3.977125932060881E+002	5.7135618E-001	-2.7038031E+002
3	0	3.982125931934570E+002	5.6964028E-001	-2.7036618E+002
3	0	3.987125931808259E+002	5.6723350E-001	-2.7038742E+002
3	0	3.992125931681949E+002	5.6585753E-001	-2.7041568E+002
3	0	3.997125931555638E+002	5.6475276E-001	-2.7037326E+002
3	0	4.002125931429327E+002	5.6317770E-001	-2.7038385E+002
3	0	4.007125931303017E+002	5.6121653E-001	-2.7039801E+002
3	0	4.012125931176706E+002	5.5882430E-001	-2.7038031E+002
3	0	4.017125931050396E+002	5.5588162E-001	-2.7035559E+002
3	0	4.022125930924085E+002	5.5213469E-001	-2.7035913E+002
3	0	4.027125930797774E+002	5.4773909E-001	-2.7036618E+002
3	0	4.032125930671464E+002	5.4445994E-001	-2.7036972E+002
3	0	4.037125930545153E+002	5.4159701E-001	-2.7035559E+002
3	0	4.042125930418842E+002	5.3841120E-001	-2.7037326E+002
3	0	4.047125930292532E+002	5.3504819E-001	-2.7038031E+002
3	0	4.047129930292431E+002	5.3322643E-001	-2.7039801E+002