EC-Lab ASCII FILE
Nb header lines : 55                          

Open Circuit Voltage

Run on channel : 1 (SN 81504)
User : 
CE vs. WE compliance from -10 V to 10 V
Electrode connection : standard
Potential control : Ewe
Ewe ctrl range : min = -2.50 V, max = 2.50 V
Safety Limits :
	Do not start on E overload
Acquisition started on : 05/10/2026 09:44:17.042
Loaded Setting File :  C:\PEM-WE_measurements\2026\372_IV_IV IrOx, 5 min Pt, 30 min C, etched cathode\new station\Loopeis new\1,46 V different time gaps closed cell\Loopeis 1,46V_180s_4_PEIS from 650Hz to 100Hz.mps
Saved on :
	File : L_29_Loopeis 1,46V_180s_4_PEIS from 650Hz to 100Hz_18_OCV_C01.mpr
	Directory : C:\PEM-WE_measurements\2026\372_IV_IV IrOx, 5 min Pt, 30 min C, etched cathode\new station\Loopeis new\1,46 V different time gaps closed cell\
	Host : 192.168.0.2
Device : SP-150e (SN .005491)
Address : 192.168.0.91
EC-LAB for windows v11.71 (software)
Internet server v28.00 (firmware)
Command interpretor v14.01 (firmware)
Electrode material : 
Initial state : 
Electrolyte : 
Comments : 
Current amplifier : SP-150eB-20A
Electrode surface area : 0.001 cm²
Characteristic mass : 0.001 g
Equivalent Weight : 0.000 g/eq.
Density : 0.000 g/cm3
Volume (V) : 0.001 cm³
Record Analogic IN 1
Text export
   Mode : Standard
   Time format : Elapsed
Cycle Definition : Charge/Discharge alternance
External device configuration :
   device type : Temperature Probe
   device name : Other
   Analog IN 1 : 
      unit : T/Â°C
      max : 100.000 at 2.000 V
      min : 0.000 at 1.460 V
tR (h:m:s)          0:03:0.0000         
dER/dt (mV/h)       1.0                 
record              <Ewe>               
dER (mV)            10.00               
dtR (s)             0.5000              
E range min (V)     -2.500              
E range max (V)     2.500               

mode	error	time/s	<Ewe/V>	Analog IN 1/V	
3	0	1.849600966669750E+003	1.2911893E+000	-2.7040506E+002
3	0	1.850100966657119E+003	1.2973001E+000	-2.7038742E+002
3	0	1.850600966644488E+003	1.2854859E+000	-2.7039447E+002
3	0	1.851100966631857E+003	1.2632641E+000	-2.7037326E+002
3	0	1.851600966619226E+003	1.2259696E+000	-2.7038031E+002
3	0	1.852100966606595E+003	1.1603898E+000	-2.7038031E+002
3	0	1.852600966593964E+003	9.6018004E-001	-2.7036618E+002
3	0	1.853100966581333E+003	5.3415495E-001	-2.7036267E+002
3	0	1.853600966568702E+003	3.9656553E-001	-2.7038742E+002
3	0	1.854100966556070E+003	3.6981478E-001	-2.7039801E+002
3	0	1.854600966543439E+003	3.6557472E-001	-2.7038031E+002
3	0	1.855100966530808E+003	3.6559999E-001	-2.7039093E+002
3	0	1.855600966518177E+003	3.6624575E-001	-2.7039801E+002
3	0	1.856100966505546E+003	3.6665136E-001	-2.7038385E+002
3	0	1.856600966492915E+003	3.6692199E-001	-2.7038385E+002
3	0	1.857100966480284E+003	3.6709222E-001	-2.7042273E+002
3	0	1.857600966467653E+003	3.6716211E-001	-2.7038742E+002
3	0	1.858100966455022E+003	3.6712152E-001	-2.7037677E+002
3	0	1.858600966442391E+003	3.6706236E-001	-2.7039093E+002
3	0	1.859100966429760E+003	3.6731169E-001	-2.7037677E+002
3	0	1.859600966417129E+003	3.6755857E-001	-2.7037326E+002
3	0	1.860100966404498E+003	3.6767754E-001	-2.7038031E+002
3	0	1.860600966391867E+003	3.6781368E-001	-2.7036267E+002
3	0	1.861100966379236E+003	3.6794415E-001	-2.7039801E+002
3	0	1.861600966366605E+003	3.6804950E-001	-2.7041568E+002
3	0	1.862100966353973E+003	3.6803317E-001	-2.7036618E+002
3	0	1.862600966341342E+003	3.6800086E-001	-2.7037677E+002
3	0	1.863100966328711E+003	3.6827242E-001	-2.7036618E+002
3	0	1.863600966316080E+003	3.6857247E-001	-2.7038742E+002
3	0	1.864100966303449E+003	3.6872560E-001	-2.7037326E+002
3	0	1.864600966290818E+003	3.6888519E-001	-2.7038385E+002
3	0	1.865100966278187E+003	3.6903480E-001	-2.7041568E+002
3	0	1.865600966265556E+003	3.6915123E-001	-2.7038031E+002
3	0	1.866100966252925E+003	3.6917752E-001	-2.7036618E+002
3	0	1.866600966240294E+003	3.6923736E-001	-2.7038385E+002
3	0	1.867100966227663E+003	3.6958107E-001	-2.7038385E+002
3	0	1.867600966215032E+003	3.7005025E-001	-2.7038031E+002
3	0	1.868100966202401E+003	3.7041670E-001	-2.7037677E+002
3	0	1.868600966189770E+003	3.7083605E-001	-2.7038031E+002
3	0	1.869100966177139E+003	3.7128332E-001	-2.7037677E+002
3	0	1.869600966164508E+003	3.7166730E-001	-2.7038385E+002
3	0	1.870100966151876E+003	3.7194994E-001	-2.7038385E+002
3	0	1.870600966139245E+003	3.7215978E-001	-2.7035913E+002
3	0	1.871100966126614E+003	3.7257996E-001	-2.7037326E+002
3	0	1.871600966113983E+003	3.7300220E-001	-2.7038385E+002
3	0	1.872100966101352E+003	3.7325573E-001	-2.7037326E+002
3	0	1.872600966088721E+003	3.7348580E-001	-2.7038385E+002
3	0	1.873100966076090E+003	3.7367836E-001	-2.7038742E+002
3	0	1.873600966063459E+003	3.7382272E-001	-2.7039447E+002
3	0	1.874100966050828E+003	3.7381178E-001	-2.7037326E+002
3	0	1.874600966038197E+003	3.7372166E-001	-2.7037677E+002
3	0	1.875100966025566E+003	3.7390316E-001	-2.7037326E+002
3	0	1.875600966012935E+003	3.7411478E-001	-2.7037326E+002
3	0	1.876100966000304E+003	3.7418759E-001	-2.7039447E+002
3	0	1.876600965987673E+003	3.7424672E-001	-2.7039093E+002
3	0	1.877100965975042E+003	3.7427142E-001	-2.7038385E+002
3	0	1.877600965962411E+003	3.7426880E-001	-2.7036267E+002
3	0	1.878100965949779E+003	3.7414071E-001	-2.7038385E+002
3	0	1.878600965937148E+003	3.7398610E-001	-2.7038031E+002
3	0	1.879100965924517E+003	3.7403998E-001	-2.7041214E+002
3	0	1.879600965911886E+003	3.7417307E-001	-2.7036618E+002
3	0	1.880100965899255E+003	3.7416625E-001	-2.7036618E+002
3	0	1.880600965886624E+003	3.7416857E-001	-2.7038031E+002
3	0	1.881100965873993E+003	3.7412739E-001	-2.7037677E+002
3	0	1.881600965861362E+003	3.7407503E-001	-2.7038385E+002
3	0	1.882100965848731E+003	3.7385708E-001	-2.7037326E+002
3	0	1.882600965836100E+003	3.7362248E-001	-2.7038031E+002
3	0	1.883100965823469E+003	3.7364537E-001	-2.7037677E+002
3	0	1.883600965810838E+003	3.7371969E-001	-2.7035913E+002
3	0	1.884100965798207E+003	3.7366009E-001	-2.7040155E+002
3	0	1.884600965785576E+003	3.7361264E-001	-2.7040506E+002
3	0	1.885100965772945E+003	3.7353402E-001	-2.7038742E+002
3	0	1.885600965760314E+003	3.7342855E-001	-2.7036618E+002
3	0	1.886100965747682E+003	3.7323454E-001	-2.7036618E+002
3	0	1.886600965735051E+003	3.7304303E-001	-2.7036972E+002
3	0	1.887100965722420E+003	3.7316334E-001	-2.7038385E+002
3	0	1.887600965709789E+003	3.7340173E-001	-2.7035913E+002
3	0	1.888100965697158E+003	3.7357783E-001	-2.7036267E+002
3	0	1.888600965684527E+003	3.7379813E-001	-2.7038031E+002
3	0	1.889100965671896E+003	3.7401646E-001	-2.7036618E+002
3	0	1.889600965659265E+003	3.7422091E-001	-2.7039801E+002
3	0	1.890100965646634E+003	3.7430847E-001	-2.7036267E+002
3	0	1.890600965634003E+003	3.7430599E-001	-2.7036972E+002
3	0	1.891100965621372E+003	3.7451410E-001	-2.7037677E+002
3	0	1.891600965608741E+003	3.7475416E-001	-2.7038385E+002
3	0	1.892100965596110E+003	3.7482962E-001	-2.7039447E+002
3	0	1.892600965583479E+003	3.7487003E-001	-2.7037326E+002
3	0	1.893100965570848E+003	3.7484929E-001	-2.7035205E+002
3	0	1.893600965558217E+003	3.7480262E-001	-2.7036618E+002
3	0	1.894100965545586E+003	3.7460902E-001	-2.7037677E+002
3	0	1.894600965532954E+003	3.7436500E-001	-2.7039801E+002
3	0	1.895100965520323E+003	3.7437057E-001	-2.7037326E+002
3	0	1.895600965507692E+003	3.7442225E-001	-2.7041214E+002
3	0	1.896100965495061E+003	3.7434849E-001	-2.7039801E+002
3	0	1.896600965482430E+003	3.7427932E-001	-2.7036972E+002
3	0	1.897100965469799E+003	3.7416783E-001	-2.7038031E+002
3	0	1.897600965457168E+003	3.7400720E-001	-2.7039093E+002
3	0	1.898100965444537E+003	3.7375146E-001	-2.7038385E+002
3	0	1.898600965431906E+003	3.7343574E-001	-2.7039447E+002
3	0	1.899100965419275E+003	3.7335783E-001	-2.7039447E+002
3	0	1.899600965406644E+003	3.7335405E-001	-2.7037677E+002
3	0	1.900100965394013E+003	3.7323776E-001	-2.7037677E+002
3	0	1.900600965381382E+003	3.7311581E-001	-2.7040506E+002
3	0	1.901100965368751E+003	3.7295917E-001	-2.7038742E+002
3	0	1.901600965356120E+003	3.7278944E-001	-2.7039801E+002
3	0	1.902100965343489E+003	3.7249371E-001	-2.7037677E+002
3	0	1.902600965330857E+003	3.7216383E-001	-2.7036972E+002
3	0	1.903100965318226E+003	3.7205392E-001	-2.7036618E+002
3	0	1.903600965305595E+003	3.7202588E-001	-2.7040860E+002
3	0	1.904100965292964E+003	3.7186566E-001	-2.7036267E+002
3	0	1.904600965280333E+003	3.7170810E-001	-2.7038031E+002
3	0	1.905100965267702E+003	3.7151846E-001	-2.7040506E+002
3	0	1.905600965255071E+003	3.7131754E-001	-2.7038385E+002
3	0	1.906100965242440E+003	3.7100881E-001	-2.7036267E+002
3	0	1.906600965229809E+003	3.7069374E-001	-2.7037677E+002
3	0	1.907100965217178E+003	3.7067375E-001	-2.7036972E+002
3	0	1.907600965204547E+003	3.7079459E-001	-2.7039093E+002
3	0	1.908100965191916E+003	3.7087306E-001	-2.7037326E+002
3	0	1.908600965179285E+003	3.7100834E-001	-2.7038742E+002
3	0	1.909100965166654E+003	3.7115267E-001	-2.7035913E+002
3	0	1.909600965154023E+003	3.7130344E-001	-2.7040506E+002
3	0	1.910100965141392E+003	3.7136570E-001	-2.7039447E+002
3	0	1.910600965128760E+003	3.7133536E-001	-2.7038031E+002
3	0	1.911100965116129E+003	3.7147549E-001	-2.7038385E+002
3	0	1.911600965103498E+003	3.7165883E-001	-2.7041568E+002
3	0	1.912100965090867E+003	3.7169096E-001	-2.7037677E+002
3	0	1.912600965078236E+003	3.7169996E-001	-2.7036267E+002
3	0	1.913100965065605E+003	3.7164909E-001	-2.7036267E+002
3	0	1.913600965052974E+003	3.7155217E-001	-2.7039447E+002
3	0	1.914100965040343E+003	3.7133661E-001	-2.7037326E+002
3	0	1.914600965027712E+003	3.7105504E-001	-2.7037326E+002
3	0	1.915100965015081E+003	3.7094781E-001	-2.7037677E+002
3	0	1.915600965002450E+003	3.7093624E-001	-2.7038385E+002
3	0	1.916100964989819E+003	3.7081659E-001	-2.7037326E+002
3	0	1.916600964977188E+003	3.7069872E-001	-2.7037326E+002
3	0	1.917100964964557E+003	3.7052190E-001	-2.7037677E+002
3	0	1.917600964951926E+003	3.7029454E-001	-2.7039801E+002
3	0	1.918100964939295E+003	3.6996374E-001	-2.7038031E+002
3	0	1.918600964926663E+003	3.6962026E-001	-2.7039093E+002
3	0	1.919100964914032E+003	3.6948934E-001	-2.7039093E+002
3	0	1.919600964901401E+003	3.6942142E-001	-2.7034851E+002
3	0	1.920100964888770E+003	3.6925086E-001	-2.7037677E+002
3	0	1.920600964876139E+003	3.6906454E-001	-2.7038385E+002
3	0	1.921100964863508E+003	3.6885267E-001	-2.7038385E+002
3	0	1.921600964850877E+003	3.6860070E-001	-2.7038385E+002
3	0	1.922100964838246E+003	3.6828578E-001	-2.7039447E+002
3	0	1.922600964825615E+003	3.6789972E-001	-2.7036267E+002
3	0	1.923100964812984E+003	3.6772293E-001	-2.7038385E+002
3	0	1.923600964800353E+003	3.6762556E-001	-2.7039447E+002
3	0	1.924100964787722E+003	3.6743242E-001	-2.7038031E+002
3	0	1.924600964775091E+003	3.6724597E-001	-2.7038742E+002
3	0	1.925100964762460E+003	3.6701906E-001	-2.7037326E+002
3	0	1.925600964749829E+003	3.6677912E-001	-2.7038031E+002
3	0	1.926100964737198E+003	3.6645371E-001	-2.7037677E+002
3	0	1.926600964724566E+003	3.6611879E-001	-2.7038385E+002
3	0	1.927100964711935E+003	3.6603799E-001	-2.7036267E+002
3	0	1.927600964699304E+003	3.6609390E-001	-2.7037677E+002
3	0	1.928100964686673E+003	3.6607829E-001	-2.7039801E+002
3	0	1.928600964674042E+003	3.6608687E-001	-2.7036972E+002
3	0	1.929100964661411E+003	3.6602417E-001	-2.7038742E+002
3	0	1.929600964648780E+003	3.6590901E-001	-2.7037677E+002
3	0	1.930100964636149E+003	3.6569974E-001	-2.7039447E+002
3	0	1.930600964623518E+003	3.6542863E-001	-2.7038742E+002
3	0	1.931100964610887E+003	3.6536574E-001	-2.7037326E+002
3	0	1.931600964598256E+003	3.6536473E-001	-2.7036972E+002
3	0	1.932100964585625E+003	3.6526585E-001	-2.7038031E+002
3	0	1.932600964572994E+003	3.6514384E-001	-2.7039447E+002
3	0	1.933100964560363E+003	3.6497492E-001	-2.7040506E+002
3	0	1.933600964547732E+003	3.6478859E-001	-2.7040155E+002
3	0	1.934100964535101E+003	3.6449915E-001	-2.7038385E+002
3	0	1.934600964522469E+003	3.6415148E-001	-2.7039447E+002
3	0	1.935100964509838E+003	3.6401567E-001	-2.7036267E+002
3	0	1.935600964497207E+003	3.6396575E-001	-2.7036972E+002
3	0	1.936100964484576E+003	3.6382499E-001	-2.7038031E+002
3	0	1.936600964471945E+003	3.6367962E-001	-2.7037326E+002
3	0	1.937100964459314E+003	3.6349687E-001	-2.7035559E+002
3	0	1.937600964446683E+003	3.6328065E-001	-2.7035559E+002
3	0	1.938100964434052E+003	3.6297455E-001	-2.7037326E+002
3	0	1.938600964421421E+003	3.6263275E-001	-2.7037326E+002
3	0	1.939100964408790E+003	3.6245668E-001	-2.7038031E+002
3	0	1.939600964396159E+003	3.6239576E-001	-2.7035559E+002
3	0	1.940100964383528E+003	3.6223876E-001	-2.7038742E+002
3	0	1.940600964370897E+003	3.6208034E-001	-2.7039447E+002
3	0	1.941100964358266E+003	3.6188346E-001	-2.7039093E+002
3	0	1.941600964345635E+003	3.6166212E-001	-2.7036972E+002
3	0	1.942100964333004E+003	3.6134619E-001	-2.7036618E+002
3	0	1.942600964320372E+003	3.6098042E-001	-2.7036618E+002
3	0	1.943100964307741E+003	3.6081257E-001	-2.7036267E+002
3	0	1.943600964295110E+003	3.6073622E-001	-2.7037326E+002
3	0	1.944100964282479E+003	3.6057720E-001	-2.7040506E+002
3	0	1.944600964269848E+003	3.6043400E-001	-2.7038742E+002
3	0	1.945100964257217E+003	3.6024806E-001	-2.7036972E+002
3	0	1.945600964244586E+003	3.6002481E-001	-2.7039801E+002
3	0	1.946100964231955E+003	3.5974735E-001	-2.7035205E+002
3	0	1.946600964219324E+003	3.5942042E-001	-2.7038742E+002
3	0	1.947100964206693E+003	3.5931262E-001	-2.7038031E+002
3	0	1.947600964194062E+003	3.5935211E-001	-2.7037326E+002
3	0	1.948100964181431E+003	3.5937780E-001	-2.7039447E+002
3	0	1.948600964168800E+003	3.5945028E-001	-2.7038031E+002
3	0	1.949100964156169E+003	3.5954732E-001	-2.7041568E+002
3	0	1.949600964143538E+003	3.5965428E-001	-2.7040506E+002
3	0	1.950100964130907E+003	3.5972896E-001	-2.7036618E+002
3	0	1.950600964118275E+003	3.5976261E-001	-2.7039447E+002
3	0	1.951100964105644E+003	3.5993195E-001	-2.7037326E+002
3	0	1.951600964093013E+003	3.6017826E-001	-2.7039093E+002
3	0	1.952100964080382E+003	3.6030310E-001	-2.7038031E+002
3	0	1.952600964067751E+003	3.6039269E-001	-2.7039447E+002
3	0	1.953100964055120E+003	3.6041510E-001	-2.7037677E+002
3	0	1.953600964042489E+003	3.6036000E-001	-2.7036267E+002
3	0	1.954100964029858E+003	3.6016500E-001	-2.7035559E+002
3	0	1.954600964017227E+003	3.5991362E-001	-2.7037677E+002
3	0	1.955100964004596E+003	3.5980716E-001	-2.7035913E+002
3	0	1.955600963991965E+003	3.5976288E-001	-2.7036972E+002
3	0	1.956100963979334E+003	3.5963181E-001	-2.7038031E+002
3	0	1.956600963966703E+003	3.5948619E-001	-2.7037326E+002
3	0	1.957100963954072E+003	3.5930225E-001	-2.7039447E+002
3	0	1.957600963941441E+003	3.5907906E-001	-2.7039093E+002
3	0	1.958100963928810E+003	3.5879123E-001	-2.7038031E+002
3	0	1.958600963916178E+003	3.5844749E-001	-2.7038031E+002
3	0	1.959100963903547E+003	3.5827804E-001	-2.7037326E+002
3	0	1.959600963890916E+003	3.5818526E-001	-2.7035559E+002
3	0	1.960100963878285E+003	3.5802165E-001	-2.7038031E+002
3	0	1.960600963865654E+003	3.5785702E-001	-2.7038031E+002
3	0	1.961100963853023E+003	3.5764471E-001	-2.7038031E+002
3	0	1.961600963840392E+003	3.5742113E-001	-2.7038031E+002
3	0	1.962100963827761E+003	3.5711518E-001	-2.7036618E+002
3	0	1.962600963815130E+003	3.5675505E-001	-2.7036267E+002
3	0	1.963100963802499E+003	3.5656303E-001	-2.7036618E+002
3	0	1.963600963789868E+003	3.5645795E-001	-2.7037677E+002
3	0	1.964100963777237E+003	3.5628280E-001	-2.7038385E+002
3	0	1.964600963764606E+003	3.5610458E-001	-2.7035559E+002
3	0	1.965100963751975E+003	3.5588899E-001	-2.7035559E+002
3	0	1.965600963739344E+003	3.5563844E-001	-2.7035559E+002
3	0	1.966100963726713E+003	3.5533521E-001	-2.7036618E+002
3	0	1.966600963714081E+003	3.5499784E-001	-2.7038385E+002
3	0	1.967100963701450E+003	3.5487515E-001	-2.7037677E+002
3	0	1.967600963688819E+003	3.5486677E-001	-2.7036618E+002
3	0	1.968100963676188E+003	3.5484532E-001	-2.7038742E+002
3	0	1.968600963663557E+003	3.5487768E-001	-2.7039447E+002
3	0	1.969100963650926E+003	3.5492533E-001	-2.7037677E+002
3	0	1.969600963638295E+003	3.5501164E-001	-2.7036618E+002
3	0	1.970100963625664E+003	3.5507143E-001	-2.7036618E+002
3	0	1.970600963613033E+003	3.5506803E-001	-2.7040860E+002
3	0	1.971100963600402E+003	3.5518527E-001	-2.7036267E+002
3	0	1.971600963587771E+003	3.5534865E-001	-2.7036972E+002
3	0	1.972100963575140E+003	3.5539570E-001	-2.7038742E+002
3	0	1.972600963562509E+003	3.5540357E-001	-2.7036972E+002
3	0	1.973100963549878E+003	3.5533351E-001	-2.7036618E+002
3	0	1.973600963537247E+003	3.5523424E-001	-2.7039093E+002
3	0	1.974100963524616E+003	3.5504359E-001	-2.7041568E+002
3	0	1.974600963511984E+003	3.5475853E-001	-2.7038031E+002
3	0	1.975100963499353E+003	3.5459533E-001	-2.7038385E+002
3	0	1.975600963486722E+003	3.5452789E-001	-2.7036972E+002
3	0	1.976100963474091E+003	3.5438547E-001	-2.7036972E+002
3	0	1.976600963461460E+003	3.5424659E-001	-2.7038031E+002
3	0	1.977100963448829E+003	3.5400307E-001	-2.7036972E+002
3	0	1.977600963436198E+003	3.5369834E-001	-2.7037326E+002
3	0	1.978100963423567E+003	3.5356393E-001	-2.7036972E+002
3	0	1.978600963410936E+003	3.5330194E-001	-2.7037326E+002
3	0	1.979100963398305E+003	3.5315233E-001	-2.7036618E+002
3	0	1.979600963385674E+003	3.5306805E-001	-2.7037677E+002
3	0	1.980100963373043E+003	3.5288760E-001	-2.7040155E+002
3	0	1.980600963360412E+003	3.5266131E-001	-2.7038385E+002
3	0	1.981100963347781E+003	3.5244620E-001	-2.7038742E+002
3	0	1.981600963335150E+003	3.5219601E-001	-2.7037677E+002
3	0	1.982100963322519E+003	3.5185519E-001	-2.7040506E+002
3	0	1.982600963309887E+003	3.5146385E-001	-2.7038385E+002
3	0	1.983100963297256E+003	3.5126331E-001	-2.7037326E+002
3	0	1.983600963284625E+003	3.5118905E-001	-2.7041568E+002
3	0	1.984100963271994E+003	3.5103866E-001	-2.7039093E+002
3	0	1.984600963259363E+003	3.5083604E-001	-2.7037677E+002
3	0	1.985100963246732E+003	3.5062233E-001	-2.7039093E+002
3	0	1.985600963234101E+003	3.5038358E-001	-2.7034851E+002
3	0	1.986100963221470E+003	3.5007411E-001	-2.7035559E+002
3	0	1.986600963208839E+003	3.4971675E-001	-2.7038742E+002
3	0	1.987100963196208E+003	3.4953558E-001	-2.7038385E+002
3	0	1.987600963183577E+003	3.4953746E-001	-2.7038385E+002
3	0	1.988100963170946E+003	3.4954154E-001	-2.7037326E+002
3	0	1.988600963158315E+003	3.4952760E-001	-2.7036972E+002
3	0	1.989100963145684E+003	3.4954041E-001	-2.7037326E+002
3	0	1.989600963133053E+003	3.4957996E-001	-2.7039801E+002
3	0	1.990100963120422E+003	3.4957787E-001	-2.7038385E+002
3	0	1.990600963107790E+003	3.4955758E-001	-2.7037326E+002
3	0	1.991100963095159E+003	3.4966913E-001	-2.7037326E+002
3	0	1.991600963082528E+003	3.4988070E-001	-2.7038742E+002
3	0	1.992100963069897E+003	3.4999099E-001	-2.7042627E+002
3	0	1.992600963057266E+003	3.4998602E-001	-2.7036618E+002
3	0	1.993100963044635E+003	3.4993744E-001	-2.7037677E+002
3	0	1.993600963032004E+003	3.4982187E-001	-2.7037326E+002
3	0	1.994100963019373E+003	3.4959155E-001	-2.7039447E+002
3	0	1.994600963006742E+003	3.4931016E-001	-2.7038385E+002
3	0	1.995100962994111E+003	3.4917235E-001	-2.7036972E+002
3	0	1.995600962981480E+003	3.4915257E-001	-2.7040155E+002
3	0	1.996100962968849E+003	3.4904751E-001	-2.7037677E+002
3	0	1.996600962956218E+003	3.4886479E-001	-2.7039093E+002
3	0	1.997100962943587E+003	3.4866777E-001	-2.7038385E+002
3	0	1.997600962930956E+003	3.4842858E-001	-2.7038742E+002
3	0	1.998100962918325E+003	3.4812751E-001	-2.7035913E+002
3	0	1.998600962905693E+003	3.4775415E-001	-2.7036972E+002
3	0	1.999100962893062E+003	3.4752312E-001	-2.7035559E+002
3	0	1.999600962880431E+003	3.4743240E-001	-2.7035913E+002
3	0	2.000100962867800E+003	3.4729227E-001	-2.7035913E+002
3	0	2.000600962855169E+003	3.4708747E-001	-2.7036267E+002
3	0	2.001100962842538E+003	3.4685126E-001	-2.7035913E+002
3	0	2.001600962829907E+003	3.4658277E-001	-2.7038742E+002
3	0	2.002100962817276E+003	3.4627277E-001	-2.7037326E+002
3	0	2.002600962804645E+003	3.4589770E-001	-2.7036618E+002
3	0	2.003100962792014E+003	3.4566915E-001	-2.7039447E+002
3	0	2.003600962779383E+003	3.4557235E-001	-2.7038031E+002
3	0	2.004100962766752E+003	3.4543175E-001	-2.7036972E+002
3	0	2.004600962754121E+003	3.4522584E-001	-2.7038385E+002
3	0	2.005100962741490E+003	3.4500948E-001	-2.7036267E+002
3	0	2.005600962728859E+003	3.4476823E-001	-2.7036618E+002
3	0	2.006100962716228E+003	3.4446725E-001	-2.7037677E+002
3	0	2.006600962703596E+003	3.4409386E-001	-2.7037677E+002
3	0	2.007100962690965E+003	3.4390610E-001	-2.7038742E+002
3	0	2.007600962678334E+003	3.4389082E-001	-2.7039093E+002
3	0	2.008100962665703E+003	3.4386930E-001	-2.7039093E+002
3	0	2.008600962653072E+003	3.4383270E-001	-2.7039093E+002
3	0	2.009100962640441E+003	3.4382081E-001	-2.7036618E+002
3	0	2.009600962627810E+003	3.4382793E-001	-2.7040155E+002
3	0	2.010100962615179E+003	3.4381479E-001	-2.7037677E+002
3	0	2.010600962602548E+003	3.4379685E-001	-2.7034143E+002
3	0	2.011100962589917E+003	3.4388396E-001	-2.7039093E+002
3	0	2.011600962577286E+003	3.4408328E-001	-2.7035205E+002
3	0	2.012100962564655E+003	3.4421489E-001	-2.7038742E+002
3	0	2.012600962552024E+003	3.4424868E-001	-2.7036618E+002
3	0	2.013100962539393E+003	3.4421954E-001	-2.7037326E+002
3	0	2.013600962526762E+003	3.4413967E-001	-2.7037326E+002
3	0	2.014100962514131E+003	3.4393495E-001	-2.7036267E+002
3	0	2.014600962501499E+003	3.4366733E-001	-2.7035913E+002
3	0	2.015100962488868E+003	3.4350708E-001	-2.7038742E+002
3	0	2.015600962476237E+003	3.4345493E-001	-2.7037677E+002
3	0	2.016100962463606E+003	3.4335995E-001	-2.7036618E+002
3	0	2.016600962450975E+003	3.4319806E-001	-2.7037677E+002
3	0	2.017100962438344E+003	3.4301040E-001	-2.7038742E+002
3	0	2.017600962425713E+003	3.4279892E-001	-2.7035559E+002
3	0	2.018100962413082E+003	3.4250429E-001	-2.7037326E+002
3	0	2.018600962400451E+003	3.4214249E-001	-2.7037677E+002
3	0	2.019100962387820E+003	3.4191495E-001	-2.7037677E+002
3	0	2.019600962375189E+003	3.4182313E-001	-2.7036972E+002
3	0	2.020100962362558E+003	3.4168878E-001	-2.7040155E+002
3	0	2.020600962349927E+003	3.4149498E-001	-2.7039447E+002
3	0	2.021100962337296E+003	3.4129214E-001	-2.7040506E+002
3	0	2.021600962324665E+003	3.4106433E-001	-2.7035913E+002
3	0	2.022100962312034E+003	3.4075946E-001	-2.7040506E+002
3	0	2.022600962299402E+003	3.4040198E-001	-2.7038385E+002
3	0	2.023100962286771E+003	3.4015521E-001	-2.7035913E+002
3	0	2.023600962274140E+003	3.4004253E-001	-2.7039093E+002
3	0	2.024100962261509E+003	3.3991587E-001	-2.7039801E+002
3	0	2.024600962248878E+003	3.3973294E-001	-2.7039801E+002
3	0	2.025100962236247E+003	3.3952835E-001	-2.7040506E+002
3	0	2.025600962223616E+003	3.3931985E-001	-2.7039447E+002
3	0	2.026100962210985E+003	3.3903676E-001	-2.7038742E+002
3	0	2.026600962198354E+003	3.3866364E-001	-2.7038031E+002
3	0	2.027100962185723E+003	3.3843839E-001	-2.7036972E+002
3	0	2.027600962173092E+003	3.3837453E-001	-2.7038031E+002
3	0	2.028100962160461E+003	3.3833292E-001	-2.7038031E+002
3	0	2.028600962147830E+003	3.3826804E-001	-2.7036618E+002
3	0	2.029100962135199E+003	3.3824068E-001	-2.7039093E+002
3	0	2.029101362135189E+003	3.3821192E-001	-2.7036267E+002