EC-Lab ASCII FILE
Nb header lines : 55                          

Open Circuit Voltage

Run on channel : 1 (SN 81504)
User : 
CE vs. WE compliance from -10 V to 10 V
Electrode connection : standard
Potential control : Ewe
Ewe ctrl range : min = -2.50 V, max = 2.50 V
Safety Limits :
	Do not start on E overload
Acquisition started on : 05/07/2026 17:34:11.611
Loaded Setting File :  C:\PEM-WE_measurements\2026\372_IV_IV IrOx, 5 min Pt, 30 min C, etched cathode\new station\Loopeis new\1,46 V different time gaps open cell\Loopeis 1,46V_60s_4_PEIS from 650Hz to 100Hz.mps
Saved on :
	File : L_14_Loopeis 1,46V_60s_4_PEIS from 650Hz to 100Hz_18_OCV_C01.mpr
	Directory : C:\PEM-WE_measurements\2026\372_IV_IV IrOx, 5 min Pt, 30 min C, etched cathode\new station\Loopeis new\1,46 V different time gaps open cell\
	Host : 192.168.0.2
Device : SP-150e (SN .005491)
Address : 192.168.0.91
EC-LAB for windows v11.71 (software)
Internet server v28.00 (firmware)
Command interpretor v14.01 (firmware)
Electrode material : 
Initial state : 
Electrolyte : 
Comments : 
Current amplifier : SP-150eB-20A
Electrode surface area : 0.001 cm²
Characteristic mass : 0.001 g
Equivalent Weight : 0.000 g/eq.
Density : 0.000 g/cm3
Volume (V) : 0.001 cm³
Record Analogic IN 1
Text export
   Mode : Standard
   Time format : Elapsed
Cycle Definition : Charge/Discharge alternance
External device configuration :
   device type : Temperature Probe
   device name : Other
   Analog IN 1 : 
      unit : T/Â°C
      max : 100.000 at 2.000 V
      min : 0.000 at 1.460 V
tR (h:m:s)          0:01:0.0000         
dER/dt (mV/h)       1.0                 
record              <Ewe>               
dER (mV)            10.00               
dtR (s)             0.5000              
E range min (V)     -2.500              
E range max (V)     2.500               

mode	error	time/s	<Ewe/V>	Analog IN 1/V	
3	0	8.898579909335967E+002	1.2758397E+000	-2.7036618E+002
3	0	8.903579909209657E+002	1.2690735E+000	-2.7036267E+002
3	0	8.908579909083346E+002	1.2314394E+000	-2.7038742E+002
3	0	8.913579908957036E+002	1.1564744E+000	-2.7038385E+002
3	0	8.918579908830725E+002	9.3633121E-001	-2.7039093E+002
3	0	8.923579908704414E+002	4.8950714E-001	-2.7036618E+002
3	0	8.928579908578104E+002	3.5220885E-001	-2.7038031E+002
3	0	8.933579908451793E+002	3.3316901E-001	-2.7038742E+002
3	0	8.938579908325482E+002	3.2447857E-001	-2.7036267E+002
3	0	8.943579908199172E+002	3.1747976E-001	-2.7041568E+002
3	0	8.948579908072861E+002	3.1211331E-001	-2.7036618E+002
3	0	8.953579907946551E+002	3.0798379E-001	-2.7038385E+002
3	0	8.958579907820240E+002	3.0472440E-001	-2.7038031E+002
3	0	8.963579907693929E+002	3.0211398E-001	-2.7036267E+002
3	0	8.968579907567619E+002	2.9999447E-001	-2.7039801E+002
3	0	8.973579907441308E+002	2.9821318E-001	-2.7039801E+002
3	0	8.978579907314997E+002	2.9668000E-001	-2.7037326E+002
3	0	8.983579907188687E+002	2.9533926E-001	-2.7036267E+002
3	0	8.988579907062376E+002	2.9414734E-001	-2.7037677E+002
3	0	8.993579906936066E+002	2.9306319E-001	-2.7039093E+002
3	0	8.998579906809755E+002	2.9204530E-001	-2.7037677E+002
3	0	9.003579906683444E+002	2.9109779E-001	-2.7037326E+002
3	0	9.008579906557134E+002	2.9024392E-001	-2.7038031E+002
3	0	9.013579906430823E+002	2.8943816E-001	-2.7038742E+002
3	0	9.018579906304512E+002	2.8868002E-001	-2.7036267E+002
3	0	9.023579906178202E+002	2.8795010E-001	-2.7037326E+002
3	0	9.028579906051891E+002	2.8724495E-001	-2.7036972E+002
3	0	9.033579905925581E+002	2.8654954E-001	-2.7039801E+002
3	0	9.038579905799270E+002	2.8585827E-001	-2.7036267E+002
3	0	9.043579905672959E+002	2.8518462E-001	-2.7038742E+002
3	0	9.048579905546649E+002	2.8456688E-001	-2.7039801E+002
3	0	9.053579905420338E+002	2.8394723E-001	-2.7036618E+002
3	0	9.058579905294027E+002	2.8333998E-001	-2.7038385E+002
3	0	9.063579905167717E+002	2.8274444E-001	-2.7035205E+002
3	0	9.068579905041406E+002	2.8216591E-001	-2.7035559E+002
3	0	9.073579904915096E+002	2.8158253E-001	-2.7037677E+002
3	0	9.078579904788785E+002	2.8098327E-001	-2.7038385E+002
3	0	9.083579904662474E+002	2.8040382E-001	-2.7038031E+002
3	0	9.088579904536164E+002	2.7986342E-001	-2.7037677E+002
3	0	9.093579904409853E+002	2.7932465E-001	-2.7038742E+002
3	0	9.098579904283542E+002	2.7878627E-001	-2.7035913E+002
3	0	9.103579904157232E+002	2.7825853E-001	-2.7040155E+002
3	0	9.108579904030921E+002	2.7773571E-001	-2.7036267E+002
3	0	9.113579903904611E+002	2.7720138E-001	-2.7038742E+002
3	0	9.118579903778300E+002	2.7665532E-001	-2.7038742E+002
3	0	9.123579903651989E+002	2.7611652E-001	-2.7039093E+002
3	0	9.128579903525679E+002	2.7561817E-001	-2.7038385E+002
3	0	9.133579903399368E+002	2.7510801E-001	-2.7036618E+002
3	0	9.138579903273057E+002	2.7461791E-001	-2.7039447E+002
3	0	9.143579903146747E+002	2.7412841E-001	-2.7038031E+002
3	0	9.148579903020436E+002	2.7363983E-001	-2.7037677E+002
3	0	9.153579902894126E+002	2.7314520E-001	-2.7039093E+002
3	0	9.158579902767815E+002	2.7263311E-001	-2.7039447E+002
3	0	9.163579902641504E+002	2.7213708E-001	-2.7039093E+002
3	0	9.168579902515194E+002	2.7167472E-001	-2.7035913E+002
3	0	9.173579902388883E+002	2.7120116E-001	-2.7038742E+002
3	0	9.178579902262572E+002	2.7074000E-001	-2.7039801E+002
3	0	9.183579902136262E+002	2.7028027E-001	-2.7038385E+002
3	0	9.188579902009951E+002	2.6982674E-001	-2.7037677E+002
3	0	9.193579901883641E+002	2.6937112E-001	-2.7037326E+002
3	0	9.198579901757330E+002	2.6889613E-001	-2.7038385E+002
3	0	9.203579901631019E+002	2.6842690E-001	-2.7038742E+002
3	0	9.208579901504709E+002	2.6800081E-001	-2.7035913E+002
3	0	9.213579901378398E+002	2.6756215E-001	-2.7035205E+002
3	0	9.218579901252087E+002	2.6713473E-001	-2.7036972E+002
3	0	9.223579901125777E+002	2.6671332E-001	-2.7038385E+002
3	0	9.228579900999466E+002	2.6628751E-001	-2.7038385E+002
3	0	9.233579900873156E+002	2.6585689E-001	-2.7038031E+002
3	0	9.238579900746845E+002	2.6541469E-001	-2.7036972E+002
3	0	9.243579900620534E+002	2.6497281E-001	-2.7038031E+002
3	0	9.248579900494224E+002	2.6458287E-001	-2.7038031E+002
3	0	9.253579900367913E+002	2.6418790E-001	-2.7036267E+002
3	0	9.258579900241602E+002	2.6379159E-001	-2.7038385E+002
3	0	9.263579900115292E+002	2.6339492E-001	-2.7041568E+002
3	0	9.268579899988981E+002	2.6300308E-001	-2.7038742E+002
3	0	9.273579899862671E+002	2.6260716E-001	-2.7037326E+002
3	0	9.278579899736360E+002	2.6219308E-001	-2.7036618E+002
3	0	9.283579899610049E+002	2.6178718E-001	-2.7038385E+002
3	0	9.288579899483739E+002	2.6141825E-001	-2.7038742E+002
3	0	9.293579899357428E+002	2.6104838E-001	-2.7038031E+002
3	0	9.298579899231117E+002	2.6068458E-001	-2.7036618E+002
3	0	9.303579899104807E+002	2.6031974E-001	-2.7039801E+002
3	0	9.308579898978496E+002	2.5995749E-001	-2.7036267E+002
3	0	9.313579898852186E+002	2.5959736E-001	-2.7036618E+002
3	0	9.318579898725875E+002	2.5921685E-001	-2.7039093E+002
3	0	9.323579898599564E+002	2.5884405E-001	-2.7036972E+002
3	0	9.328579898473254E+002	2.5850436E-001	-2.7036267E+002
3	0	9.333579898346943E+002	2.5815976E-001	-2.7038742E+002
3	0	9.338579898220632E+002	2.5782380E-001	-2.7037326E+002
3	0	9.343579898094322E+002	2.5748527E-001	-2.7039093E+002
3	0	9.348579897968011E+002	2.5715166E-001	-2.7037326E+002
3	0	9.353579897841701E+002	2.5680941E-001	-2.7036618E+002
3	0	9.358579897715390E+002	2.5644684E-001	-2.7037326E+002
3	0	9.363579897589079E+002	2.5609738E-001	-2.7036972E+002
3	0	9.368579897462769E+002	2.5578317E-001	-2.7035913E+002
3	0	9.373579897336458E+002	2.5547260E-001	-2.7038742E+002
3	0	9.378579897210147E+002	2.5516301E-001	-2.7038031E+002
3	0	9.383579897083837E+002	2.5485939E-001	-2.7037326E+002
3	0	9.388579896957526E+002	2.5455597E-001	-2.7035205E+002
3	0	9.393579896831216E+002	2.5425017E-001	-2.7038385E+002
3	0	9.398579896704905E+002	2.5392151E-001	-2.7037677E+002
3	0	9.403579896578594E+002	2.5360477E-001	-2.7036267E+002
3	0	9.408579896452284E+002	2.5332069E-001	-2.7037677E+002
3	0	9.413579896325973E+002	2.5303736E-001	-2.7038031E+002
3	0	9.418579896199662E+002	2.5275332E-001	-2.7037326E+002
3	0	9.423579896073352E+002	2.5247416E-001	-2.7036972E+002
3	0	9.428579895947041E+002	2.5219494E-001	-2.7038031E+002
3	0	9.433579895820731E+002	2.5190699E-001	-2.7039801E+002
3	0	9.438579895694420E+002	2.5160474E-001	-2.7038031E+002
3	0	9.443579895568109E+002	2.5130460E-001	-2.7038031E+002
3	0	9.448579895441799E+002	2.5105351E-001	-2.7037326E+002
3	0	9.453579895315488E+002	2.5079933E-001	-2.7038031E+002
3	0	9.458579895189177E+002	2.5054047E-001	-2.7037326E+002
3	0	9.463579895062867E+002	2.5029135E-001	-2.7039801E+002
3	0	9.468579894936556E+002	2.5003690E-001	-2.7039447E+002
3	0	9.473579894810246E+002	2.4978131E-001	-2.7041568E+002
3	0	9.478579894683935E+002	2.4950011E-001	-2.7038031E+002
3	0	9.483579894557624E+002	2.4923104E-001	-2.7039447E+002
3	0	9.488579894431314E+002	2.4899772E-001	-2.7039447E+002
3	0	9.493579894305003E+002	2.4875648E-001	-2.7036267E+002
3	0	9.493583894304902E+002	2.4854645E-001	-2.7037677E+002