EC-Lab ASCII FILE
Nb header lines : 55                          

Open Circuit Voltage

Run on channel : 1 (SN 81504)
User : 
CE vs. WE compliance from -10 V to 10 V
Electrode connection : standard
Potential control : Ewe
Ewe ctrl range : min = -2.50 V, max = 2.50 V
Safety Limits :
	Do not start on E overload
Acquisition started on : 05/07/2026 14:41:51.868
Loaded Setting File :  C:\PEM-WE_measurements\2026\372_IV_IV IrOx, 5 min Pt, 30 min C, etched cathode\new station\Loopeis new\1,46 V different time gaps open cell\Loopeis 1,46V_30s_4_PEIS from 650Hz to 100Hz.mps
Saved on :
	File : L_04_Loopeis 1,46V_30s_4_PEIS from 650Hz to 100Hz_18_OCV_C01.mpr
	Directory : C:\PEM-WE_measurements\2026\372_IV_IV IrOx, 5 min Pt, 30 min C, etched cathode\new station\Loopeis new\1,46 V different time gaps open cell\
	Host : 192.168.0.2
Device : SP-150e (SN .005491)
Address : 192.168.0.91
EC-LAB for windows v11.71 (software)
Internet server v28.00 (firmware)
Command interpretor v14.01 (firmware)
Electrode material : 
Initial state : 
Electrolyte : 
Comments : 
Current amplifier : SP-150eB-20A
Electrode surface area : 0.001 cm²
Characteristic mass : 0.001 g
Equivalent Weight : 0.000 g/eq.
Density : 0.000 g/cm3
Volume (V) : 0.001 cm³
Record Analogic IN 1
Text export
   Mode : Standard
   Time format : Elapsed
Cycle Definition : Charge/Discharge alternance
External device configuration :
   device type : Temperature Probe
   device name : Other
   Analog IN 1 : 
      unit : T/Â°C
      max : 100.000 at 2.000 V
      min : 0.000 at 1.460 V
tR (h:m:s)          0:00:30.0000        
dER/dt (mV/h)       1.0                 
record              <Ewe>               
dER (mV)            10.00               
dtR (s)             0.5000              
E range min (V)     -2.500              
E range max (V)     2.500               

mode	error	time/s	<Ewe/V>	Analog IN 1/V	
3	0	6.498629969967442E+002	1.2754587E+000	-2.7037326E+002
3	0	6.503629969841131E+002	1.2687944E+000	-2.7037677E+002
3	0	6.508629969714821E+002	1.2239772E+000	-2.7036972E+002
3	0	6.513629969588510E+002	1.1234300E+000	-2.7036267E+002
3	0	6.518629969462199E+002	7.2679144E-001	-2.7038385E+002
3	0	6.523629969335889E+002	4.0330863E-001	-2.7038031E+002
3	0	6.528629969209578E+002	3.5402226E-001	-2.7035913E+002
3	0	6.533629969083268E+002	3.4324655E-001	-2.7041214E+002
3	0	6.538629968956957E+002	3.3509731E-001	-2.7039093E+002
3	0	6.543629968830646E+002	3.2892269E-001	-2.7036618E+002
3	0	6.548629968704336E+002	3.2429296E-001	-2.7038742E+002
3	0	6.553629968578025E+002	3.2075268E-001	-2.7039447E+002
3	0	6.558629968451714E+002	3.1797177E-001	-2.7037326E+002
3	0	6.563629968325404E+002	3.1569317E-001	-2.7036267E+002
3	0	6.568629968199093E+002	3.1378943E-001	-2.7039093E+002
3	0	6.573629968072783E+002	3.1220260E-001	-2.7036972E+002
3	0	6.578629967946472E+002	3.1083271E-001	-2.7038031E+002
3	0	6.583629967820161E+002	3.0961135E-001	-2.7038031E+002
3	0	6.588629967693851E+002	3.0852157E-001	-2.7039447E+002
3	0	6.593629967567540E+002	3.0752531E-001	-2.7039093E+002
3	0	6.598629967441229E+002	3.0659637E-001	-2.7035913E+002
3	0	6.603629967314919E+002	3.0569139E-001	-2.7037677E+002
3	0	6.608629967188608E+002	3.0483538E-001	-2.7038385E+002
3	0	6.613629967062298E+002	3.0406228E-001	-2.7036972E+002
3	0	6.618629966935987E+002	3.0332905E-001	-2.7038385E+002
3	0	6.623629966809676E+002	3.0263007E-001	-2.7038742E+002
3	0	6.628629966683366E+002	3.0194733E-001	-2.7036972E+002
3	0	6.633629966557055E+002	3.0128554E-001	-2.7038031E+002
3	0	6.638629966430744E+002	3.0062702E-001	-2.7035205E+002
3	0	6.643629966304434E+002	2.9996780E-001	-2.7036972E+002
3	0	6.648629966178123E+002	2.9930905E-001	-2.7039093E+002
3	0	6.653629966051813E+002	2.9869741E-001	-2.7037677E+002
3	0	6.658629965925502E+002	2.9811040E-001	-2.7039093E+002
3	0	6.663629965799191E+002	2.9752600E-001	-2.7039093E+002
3	0	6.668629965672881E+002	2.9695275E-001	-2.7037677E+002
3	0	6.673629965546570E+002	2.9638556E-001	-2.7036267E+002
3	0	6.678629965420259E+002	2.9581308E-001	-2.7038031E+002
3	0	6.683629965293949E+002	2.9522118E-001	-2.7036618E+002
3	0	6.688629965167638E+002	2.9462695E-001	-2.7038385E+002
3	0	6.693629965041328E+002	2.9407883E-001	-2.7038385E+002
3	0	6.698629964915017E+002	2.9355097E-001	-2.7037326E+002
3	0	6.703629964788706E+002	2.9302028E-001	-2.7037326E+002
3	0	6.708629964662396E+002	2.9248941E-001	-2.7038385E+002
3	0	6.713629964536085E+002	2.9196766E-001	-2.7035559E+002
3	0	6.718629964409774E+002	2.9143545E-001	-2.7038031E+002
3	0	6.723629964283464E+002	2.9088524E-001	-2.7040155E+002
3	0	6.728629964157153E+002	2.9033798E-001	-2.7035913E+002
3	0	6.733629964030843E+002	2.8982595E-001	-2.7036618E+002
3	0	6.738629963904532E+002	2.8933179E-001	-2.7035559E+002
3	0	6.743629963778221E+002	2.8883952E-001	-2.7038385E+002
3	0	6.748629963651911E+002	2.8835005E-001	-2.7038385E+002
3	0	6.753629963525600E+002	2.8786305E-001	-2.7037326E+002
3	0	6.758629963399289E+002	2.8736779E-001	-2.7037326E+002
3	0	6.763629963272979E+002	2.8685606E-001	-2.7038031E+002
3	0	6.768629963146668E+002	2.8633976E-001	-2.7038385E+002
3	0	6.773629963020358E+002	2.8586614E-001	-2.7036972E+002
3	0	6.778629962894047E+002	2.8540614E-001	-2.7038742E+002
3	0	6.783629962767736E+002	2.8494745E-001	-2.7035913E+002
3	0	6.788629962641426E+002	2.8449130E-001	-2.7038742E+002
3	0	6.793629962515115E+002	2.8403649E-001	-2.7039801E+002
3	0	6.793633962515014E+002	2.8385159E-001	-2.7039093E+002