EC-Lab ASCII FILE
Nb header lines : 48                          

Open Circuit Voltage

Run on channel : 1 (SN 81504)
User : 
CE vs. WE compliance from -10 V to 10 V
Electrode connection : standard
Potential control : Ewe
Ewe ctrl range : min = -2.50 V, max = 2.50 V
Safety Limits :
	Do not start on E overload
Acquisition started on : 05/07/2026 23:27:51.851
Loaded Setting File :  C:\PEM-WE_measurements\2026\372_IV_IV IrOx, 5 min Pt, 30 min C, etched cathode\new station\Loopeis new\1,46 V different time gaps open cell\Loopeis 1,46V_180s_2_PEIS from 65kHz to 10kHz.mps
Saved on :
	File : L_27_Loopeis 1,46V_180s_2_PEIS from 65kHz to 10kHz_18_OCV_C01.mpr
	Directory : C:\PEM-WE_measurements\2026\372_IV_IV IrOx, 5 min Pt, 30 min C, etched cathode\new station\Loopeis new\1,46 V different time gaps open cell\
	Host : 192.168.0.2
Device : SP-150e (SN .005491)
Address : 192.168.0.91
EC-LAB for windows v11.71 (software)
Internet server v28.00 (firmware)
Command interpretor v14.01 (firmware)
Electrode material : 
Initial state : 
Electrolyte : 
Comments : 
Current amplifier : SP-150eB-20A
Electrode surface area : 0.001 cm²
Characteristic mass : 0.001 g
Equivalent Weight : 0.000 g/eq.
Density : 0.000 g/cm3
Volume (V) : 0.001 cm³
Record Analogic IN 1
Text export
   Mode : Standard
   Time format : Elapsed
Cycle Definition : Charge/Discharge alternance
tR (h:m:s)          0:03:0.0000         
dER/dt (mV/h)       1.0                 
record              <Ewe>               
dER (mV)            10.00               
dtR (s)             0.5000              
E range min (V)     -2.500              
E range max (V)     2.500               

mode	error	time/s	<Ewe/V>	Analog IN 1/V	
3	0	1.847431966566728E+003	1.2179872E+000	-1.6790499E-004
3	0	1.847931966554097E+003	1.1660142E+000	-1.2973390E-004
3	0	1.848431966541466E+003	7.8474426E-001	-1.1064836E-004
3	0	1.848931966528835E+003	4.1443855E-001	-1.5220648E-005
3	0	1.849431966516204E+003	3.4408733E-001	-7.2477276E-005
3	0	1.849931966503573E+003	3.3267459E-001	-5.3391734E-005
3	0	1.850431966490942E+003	3.2509559E-001	-1.1064836E-004
3	0	1.850931966478311E+003	3.1911755E-001	3.8648941E-006
3	0	1.851431966465680E+003	3.1454182E-001	-1.4881945E-004
3	0	1.851931966453049E+003	3.1100851E-001	-1.8699054E-004
3	0	1.852431966440417E+003	3.0820149E-001	-2.4424717E-004
3	0	1.852931966427786E+003	3.0591476E-001	-5.3391734E-005
3	0	1.853431966415155E+003	3.0399248E-001	2.2950437E-005
3	0	1.853931966402524E+003	3.0233645E-001	-7.2477276E-005
3	0	1.854431966389893E+003	3.0091342E-001	-5.3391734E-005
3	0	1.854931966377262E+003	2.9967836E-001	-5.3391734E-005
3	0	1.855431966364631E+003	2.9856813E-001	3.8648941E-006
3	0	1.855931966352000E+003	2.9755655E-001	-7.2477276E-005
3	0	1.856431966339369E+003	2.9662189E-001	-7.2477276E-005
3	0	1.856931966326738E+003	2.9574457E-001	-1.5220648E-005
3	0	1.857431966314107E+003	2.9491022E-001	-3.4306191E-005
3	0	1.857931966301476E+003	2.9409826E-001	-7.2477276E-005
3	0	1.858431966288845E+003	2.9334101E-001	-3.4306191E-005
3	0	1.858931966276214E+003	2.9264030E-001	-1.2973390E-004
3	0	1.859431966263583E+003	2.9196945E-001	2.2950437E-005
3	0	1.859931966250952E+003	2.9131034E-001	-7.2477276E-005
3	0	1.860431966238320E+003	2.9067177E-001	-1.4881945E-004
3	0	1.860931966225689E+003	2.9004210E-001	-1.1064836E-004
3	0	1.861431966213058E+003	2.8941590E-001	-1.1064836E-004
3	0	1.861931966200427E+003	2.8878236E-001	-7.2477276E-005
3	0	1.862431966187796E+003	2.8817961E-001	4.2035979E-005
3	0	1.862931966175165E+003	2.8761211E-001	-1.8699054E-004
3	0	1.863431966162534E+003	2.8706282E-001	-5.3391734E-005
3	0	1.863931966149903E+003	2.8651208E-001	-1.6790499E-004
3	0	1.864431966137272E+003	2.8596464E-001	9.9292607E-005
3	0	1.864931966124641E+003	2.8542984E-001	6.1121522E-005
3	0	1.865431966112010E+003	2.8487736E-001	8.0207064E-005
3	0	1.865931966099379E+003	2.8432003E-001	3.8648941E-006
3	0	1.866431966086748E+003	2.8377810E-001	-5.3391734E-005
3	0	1.866931966074117E+003	2.8327525E-001	3.8648941E-006
3	0	1.867431966061486E+003	2.8277874E-001	-9.1562819E-005
3	0	1.867931966048855E+003	2.8229067E-001	-1.2973390E-004
3	0	1.868431966036223E+003	2.8180087E-001	3.8648941E-006
3	0	1.868931966023592E+003	2.8130987E-001	2.2950437E-005
3	0	1.869431966010961E+003	2.8080890E-001	2.2950437E-005
3	0	1.869931965998330E+003	2.8029165E-001	-3.4306191E-005
3	0	1.870431965985699E+003	2.7979523E-001	-3.4306191E-005
3	0	1.870931965973068E+003	2.7933773E-001	-7.2477276E-005
3	0	1.871431965960437E+003	2.7888754E-001	-1.5220648E-005
3	0	1.871931965947806E+003	2.7842447E-001	-9.1562819E-005
3	0	1.872431965935175E+003	2.7797389E-001	1.1837815E-004
3	0	1.872931965922544E+003	2.7752420E-001	-1.2973390E-004
3	0	1.873431965909913E+003	2.7705649E-001	-3.4306191E-005
3	0	1.873931965897282E+003	2.7657431E-001	-3.4306191E-005
3	0	1.874431965884651E+003	2.7612039E-001	-5.3391734E-005
3	0	1.874931965872020E+003	2.7570081E-001	6.1121522E-005
3	0	1.875431965859389E+003	2.7527717E-001	-1.4881945E-004
3	0	1.875931965846758E+003	2.7485746E-001	2.2950437E-005
3	0	1.876431965834126E+003	2.7444822E-001	3.8648941E-006
3	0	1.876931965821495E+003	2.7403530E-001	-1.2973390E-004
3	0	1.877431965808864E+003	2.7360559E-001	3.8648941E-006
3	0	1.877931965796233E+003	2.7315766E-001	-3.4306191E-005
3	0	1.878431965783602E+003	2.7273357E-001	8.0207064E-005
3	0	1.878931965770971E+003	2.7234721E-001	3.8648941E-006
3	0	1.879431965758340E+003	2.7196693E-001	-1.2973390E-004
3	0	1.879931965745709E+003	2.7157718E-001	2.2950437E-005
3	0	1.880431965733078E+003	2.7118927E-001	-1.8699054E-004
3	0	1.880931965720447E+003	2.7081552E-001	4.2035979E-005
3	0	1.881431965707816E+003	2.7041897E-001	8.0207064E-005
3	0	1.881931965695185E+003	2.7001077E-001	2.2950437E-005
3	0	1.882431965682554E+003	2.6962277E-001	1.3746369E-004
3	0	1.882931965669923E+003	2.6927376E-001	-7.2477276E-005
3	0	1.883431965657292E+003	2.6892242E-001	-1.1064836E-004
3	0	1.883931965644661E+003	2.6856574E-001	-1.4881945E-004
3	0	1.884431965632029E+003	2.6821375E-001	4.2035979E-005
3	0	1.884931965619398E+003	2.6786008E-001	-9.1562819E-005
3	0	1.885431965606767E+003	2.6749301E-001	-3.4306191E-005
3	0	1.885931965594136E+003	2.6711357E-001	-3.4306191E-005
3	0	1.886431965581505E+003	2.6675737E-001	-5.3391734E-005
3	0	1.886931965568874E+003	2.6643106E-001	-1.5220648E-005
3	0	1.887431965556243E+003	2.6611000E-001	-3.4306191E-005
3	0	1.887931965543612E+003	2.6579019E-001	-7.2477276E-005
3	0	1.888431965530981E+003	2.6546568E-001	-3.4306191E-005
3	0	1.888931965518350E+003	2.6513967E-001	4.2035979E-005
3	0	1.889431965505719E+003	2.6479882E-001	-7.2477276E-005
3	0	1.889931965493088E+003	2.6445076E-001	-3.4306191E-005
3	0	1.890431965480457E+003	2.6412177E-001	6.1121522E-005
3	0	1.890931965467826E+003	2.6382965E-001	-7.2477276E-005
3	0	1.891431965455195E+003	2.6353303E-001	-3.4306191E-005
3	0	1.891931965442564E+003	2.6323974E-001	-5.3391734E-005
3	0	1.892431965429932E+003	2.6294112E-001	3.8648941E-006
3	0	1.892931965417301E+003	2.6264894E-001	-1.1064836E-004
3	0	1.893431965404670E+003	2.6233590E-001	-3.4306191E-005
3	0	1.893931965392039E+003	2.6200914E-001	-9.1562819E-005
3	0	1.894431965379408E+003	2.6170233E-001	-5.3391734E-005
3	0	1.894931965366777E+003	2.6143184E-001	-5.3391734E-005
3	0	1.895431965354146E+003	2.6116425E-001	-9.1562819E-005
3	0	1.895931965341515E+003	2.6088554E-001	-7.2477276E-005
3	0	1.896431965328884E+003	2.6061615E-001	3.8648941E-006
3	0	1.896931965316253E+003	2.6034129E-001	-1.5220648E-005
3	0	1.897431965303622E+003	2.6004973E-001	6.1121522E-005
3	0	1.897931965290991E+003	2.5974756E-001	-1.2973390E-004
3	0	1.898431965278360E+003	2.5947413E-001	6.1121522E-005
3	0	1.898931965265729E+003	2.5923291E-001	2.2950437E-005
3	0	1.899431965253098E+003	2.5899228E-001	-1.5220648E-005
3	0	1.899931965240467E+003	2.5874263E-001	-1.4881945E-004
3	0	1.900431965227835E+003	2.5849622E-001	3.8648941E-006
3	0	1.900931965215204E+003	2.5824282E-001	-3.4306191E-005
3	0	1.901431965202573E+003	2.5798273E-001	-3.4306191E-005
3	0	1.901931965189942E+003	2.5770336E-001	-3.4306191E-005
3	0	1.902431965177311E+003	2.5744000E-001	3.8648941E-006
3	0	1.902931965164680E+003	2.5721490E-001	4.2035979E-005
3	0	1.903431965152049E+003	2.5698772E-001	-7.2477276E-005
3	0	1.903931965139418E+003	2.5675207E-001	-1.1064836E-004
3	0	1.904431965126787E+003	2.5652087E-001	-1.1064836E-004
3	0	1.904931965114156E+003	2.5628975E-001	3.8648941E-006
3	0	1.905431965101525E+003	2.5604406E-001	-1.1064836E-004
3	0	1.905931965088894E+003	2.5577858E-001	-7.2477276E-005
3	0	1.906431965076263E+003	2.5554031E-001	2.2950437E-005
3	0	1.906931965063632E+003	2.5533244E-001	-1.2973390E-004
3	0	1.907431965051001E+003	2.5512785E-001	-7.2477276E-005
3	0	1.907931965038370E+003	2.5491869E-001	-1.5220648E-005
3	0	1.908431965025738E+003	2.5470930E-001	-2.0607607E-004
3	0	1.908931965013107E+003	2.5449881E-001	3.8648941E-006
3	0	1.909431965000476E+003	2.5427619E-001	-9.1562819E-005
3	0	1.909931964987845E+003	2.5403580E-001	-5.3391734E-005
3	0	1.910431964975214E+003	2.5381961E-001	-1.5220648E-005
3	0	1.910931964962583E+003	2.5363433E-001	-3.4306191E-005
3	0	1.911431964949952E+003	2.5344703E-001	4.2035979E-005
3	0	1.911931964937321E+003	2.5325507E-001	1.3746369E-004
3	0	1.912431964924690E+003	2.5306657E-001	-1.1064836E-004
3	0	1.912931964912059E+003	2.5287968E-001	-3.4306191E-005
3	0	1.913431964899428E+003	2.5266492E-001	-1.5220648E-005
3	0	1.913931964886797E+003	2.5243676E-001	-1.2973390E-004
3	0	1.914431964874166E+003	2.5222936E-001	-1.5220648E-005
3	0	1.914931964861535E+003	2.5205481E-001	8.0207064E-005
3	0	1.915431964848904E+003	2.5188518E-001	-7.2477276E-005
3	0	1.915931964836273E+003	2.5170800E-001	3.8648941E-006
3	0	1.916431964823641E+003	2.5152636E-001	-1.5220648E-005
3	0	1.916931964811010E+003	2.5134230E-001	-5.3391734E-005
3	0	1.917431964798379E+003	2.5114256E-001	-9.1562819E-005
3	0	1.917931964785748E+003	2.5092083E-001	-1.5220648E-005
3	0	1.918431964773117E+003	2.5073063E-001	-1.2973390E-004
3	0	1.918931964760486E+003	2.5057581E-001	-1.2973390E-004
3	0	1.919431964747855E+003	2.5041965E-001	3.8648941E-006
3	0	1.919931964735224E+003	2.5025824E-001	-3.4306191E-005
3	0	1.920431964722593E+003	2.5008911E-001	-9.1562819E-005
3	0	1.920931964709962E+003	2.4992502E-001	3.8648941E-006
3	0	1.921431964697331E+003	2.4974674E-001	2.2950437E-005
3	0	1.921931964684700E+003	2.4954811E-001	-1.2973390E-004
3	0	1.922431964672069E+003	2.4937394E-001	2.2950437E-005
3	0	1.922931964659438E+003	2.4923824E-001	-5.3391734E-005
3	0	1.923431964646807E+003	2.4909669E-001	-9.1562819E-005
3	0	1.923931964634176E+003	2.4894981E-001	2.2950437E-005
3	0	1.924431964621544E+003	2.4879706E-001	-5.3391734E-005
3	0	1.924931964608913E+003	2.4864735E-001	-1.5220648E-005
3	0	1.925431964596282E+003	2.4847589E-001	-5.3391734E-005
3	0	1.925931964583651E+003	2.4828565E-001	-5.3391734E-005
3	0	1.926431964571020E+003	2.4812450E-001	4.2035979E-005
3	0	1.926931964558389E+003	2.4799344E-001	-9.1562819E-005
3	0	1.927431964545758E+003	2.4786486E-001	-1.5220648E-005
3	0	1.927931964533127E+003	2.4772336E-001	-7.2477276E-005
3	0	1.928431964520496E+003	2.4758045E-001	-1.2973390E-004
3	0	1.928931964507865E+003	2.4744266E-001	3.8648941E-006
3	0	1.929431964495234E+003	2.4727853E-001	-9.1562819E-005
3	0	1.929931964482603E+003	2.4709481E-001	-3.4306191E-005
3	0	1.930431964469972E+003	2.4694183E-001	-9.1562819E-005
3	0	1.930931964457341E+003	2.4682079E-001	-1.2973390E-004
3	0	1.931431964444710E+003	2.4669904E-001	3.8648941E-006
3	0	1.931931964432079E+003	2.4656929E-001	-1.1064836E-004
3	0	1.932431964419447E+003	2.4643731E-001	-3.4306191E-005
3	0	1.932931964406816E+003	2.4630196E-001	-2.0607607E-004
3	0	1.933431964394185E+003	2.4614482E-001	-3.4306191E-005
3	0	1.933931964381554E+003	2.4597450E-001	-1.1064836E-004
3	0	1.934431964368923E+003	2.4582577E-001	-3.4306191E-005
3	0	1.934931964356292E+003	2.4571183E-001	6.1121522E-005
3	0	1.935431964343661E+003	2.4559394E-001	-5.3391734E-005
3	0	1.935931964331030E+003	2.4546537E-001	-1.2973390E-004
3	0	1.936431964318399E+003	2.4534188E-001	-9.1562819E-005
3	0	1.936931964305768E+003	2.4520829E-001	-3.4306191E-005
3	0	1.937431964293137E+003	2.4505773E-001	-1.4881945E-004
3	0	1.937931964280506E+003	2.4488886E-001	-9.1562819E-005
3	0	1.938431964267875E+003	2.4474354E-001	-7.2477276E-005
3	0	1.938931964255244E+003	2.4463210E-001	-9.1562819E-005
3	0	1.939431964242613E+003	2.4452335E-001	-1.5220648E-005
3	0	1.939931964229982E+003	2.4441281E-001	-9.1562819E-005
3	0	1.940431964217350E+003	2.4429743E-001	-3.4306191E-005
3	0	1.940931964204719E+003	2.4417821E-001	-5.3391734E-005
3	0	1.941431964192088E+003	2.4404126E-001	-9.1562819E-005
3	0	1.941931964179457E+003	2.4388719E-001	-1.4881945E-004
3	0	1.942431964166826E+003	2.4375533E-001	-1.2973390E-004
3	0	1.942931964154195E+003	2.4365439E-001	-5.3391734E-005
3	0	1.943431964141564E+003	2.4355404E-001	-7.2477276E-005
3	0	1.943931964128933E+003	2.4345045E-001	-9.1562819E-005
3	0	1.944431964116302E+003	2.4334018E-001	-3.4306191E-005
3	0	1.944931964103671E+003	2.4323073E-001	-1.6790499E-004
3	0	1.945431964091040E+003	2.4310258E-001	-9.1562819E-005
3	0	1.945931964078409E+003	2.4295317E-001	-1.5220648E-005
3	0	1.946431964065778E+003	2.4282847E-001	-1.1064836E-004
3	0	1.946931964053147E+003	2.4273887E-001	-1.1064836E-004
3	0	1.947431964040516E+003	2.4264383E-001	-1.5220648E-005
3	0	1.947931964027885E+003	2.4254307E-001	4.2035979E-005
3	0	1.948431964015253E+003	2.4244149E-001	-7.2477276E-005
3	0	1.948931964002622E+003	2.4233292E-001	-1.2973390E-004
3	0	1.949431963989991E+003	2.4220160E-001	-1.1064836E-004
3	0	1.949931963977360E+003	2.4205279E-001	-5.3391734E-005
3	0	1.950431963964729E+003	2.4193534E-001	2.2950437E-005
3	0	1.950931963952098E+003	2.4184667E-001	2.2950437E-005
3	0	1.951431963939467E+003	2.4175622E-001	4.2035979E-005
3	0	1.951931963926836E+003	2.4166261E-001	-7.2477276E-005
3	0	1.952431963914205E+003	2.4156161E-001	-9.1562819E-005
3	0	1.952931963901574E+003	2.4146536E-001	-1.1064836E-004
3	0	1.953431963888943E+003	2.4133998E-001	-7.2477276E-005
3	0	1.953931963876312E+003	2.4119456E-001	2.2950437E-005
3	0	1.954431963863681E+003	2.4107423E-001	-1.1064836E-004
3	0	1.954931963851050E+003	2.4098620E-001	2.2950437E-005
3	0	1.955431963838419E+003	2.4089947E-001	-1.2973390E-004
3	0	1.955931963825788E+003	2.4080230E-001	3.8648941E-006
3	0	1.956431963813156E+003	2.4070382E-001	2.2950437E-005
3	0	1.956931963800525E+003	2.4060370E-001	8.0207064E-005
3	0	1.957431963787894E+003	2.4048187E-001	2.2950437E-005
3	0	1.957931963775263E+003	2.4034730E-001	4.2035979E-005
3	0	1.958431963762632E+003	2.4024418E-001	3.8648941E-006
3	0	1.958931963750001E+003	2.4017668E-001	-3.4306191E-005
3	0	1.959431963737370E+003	2.4010524E-001	-3.4306191E-005
3	0	1.959931963724739E+003	2.4002585E-001	-5.3391734E-005
3	0	1.960431963712108E+003	2.3994562E-001	-9.1562819E-005
3	0	1.960931963699477E+003	2.3985997E-001	-9.1562819E-005
3	0	1.961431963686846E+003	2.3975404E-001	2.2950437E-005
3	0	1.961931963674215E+003	2.3962718E-001	-5.3391734E-005
3	0	1.962431963661584E+003	2.3952359E-001	-1.2973390E-004
3	0	1.962931963648953E+003	2.3945391E-001	-3.4306191E-005
3	0	1.963431963636322E+003	2.3938133E-001	-3.4306191E-005
3	0	1.963931963623691E+003	2.3930021E-001	-3.4306191E-005
3	0	1.964431963611059E+003	2.3922679E-001	-1.5220648E-005
3	0	1.964931963598428E+003	2.3913924E-001	-7.2477276E-005
3	0	1.965431963585797E+003	2.3904562E-001	-1.4881945E-004
3	0	1.965931963573166E+003	2.3891996E-001	-7.2477276E-005
3	0	1.966431963560535E+003	2.3882303E-001	-1.5220648E-005
3	0	1.966931963547904E+003	2.3875096E-001	-5.3391734E-005
3	0	1.967431963535273E+003	2.3867521E-001	-5.3391734E-005
3	0	1.967931963522642E+003	2.3860282E-001	1.1837815E-004
3	0	1.968431963510011E+003	2.3852859E-001	-3.4306191E-005
3	0	1.968931963497380E+003	2.3844637E-001	-9.1562819E-005
3	0	1.969431963484749E+003	2.3834793E-001	-1.5220648E-005
3	0	1.969931963472118E+003	2.3822697E-001	6.1121522E-005
3	0	1.970431963459487E+003	2.3813659E-001	-1.6790499E-004
3	0	1.970931963446856E+003	2.3807511E-001	4.2035979E-005
3	0	1.971431963434225E+003	2.3801114E-001	-1.1064836E-004
3	0	1.971931963421594E+003	2.3793966E-001	-5.3391734E-005
3	0	1.972431963408962E+003	2.3787145E-001	-1.8699054E-004
3	0	1.972931963396331E+003	2.3779279E-001	1.3746369E-004
3	0	1.973431963383700E+003	2.3769544E-001	3.8648941E-006
3	0	1.973931963371069E+003	2.3757608E-001	4.2035979E-005
3	0	1.974431963358438E+003	2.3748113E-001	-3.4306191E-005
3	0	1.974931963345807E+003	2.3741412E-001	2.2950437E-005
3	0	1.975431963333176E+003	2.3734657E-001	2.2950437E-005
3	0	1.975931963320545E+003	2.3727533E-001	4.2035979E-005
3	0	1.976431963307914E+003	2.3719729E-001	-9.1562819E-005
3	0	1.976931963295283E+003	2.3711766E-001	9.9292607E-005
3	0	1.977431963282652E+003	2.3701735E-001	-1.4881945E-004
3	0	1.977931963270021E+003	2.3689027E-001	-5.3391734E-005
3	0	1.978431963257390E+003	2.3678848E-001	-5.3391734E-005
3	0	1.978931963244759E+003	2.3671678E-001	-7.2477276E-005
3	0	1.979431963232128E+003	2.3665360E-001	1.1837815E-004
3	0	1.979931963219497E+003	2.3657921E-001	-1.5220648E-005
3	0	1.980431963206865E+003	2.3650235E-001	2.2950437E-005
3	0	1.980931963194234E+003	2.3641939E-001	2.2950437E-005
3	0	1.981431963181603E+003	2.3631491E-001	-5.3391734E-005
3	0	1.981931963168972E+003	2.3620109E-001	1.1837815E-004
3	0	1.982431963156341E+003	2.3610587E-001	-3.4306191E-005
3	0	1.982931963143710E+003	2.3604210E-001	-1.2973390E-004
3	0	1.983431963131079E+003	2.3598118E-001	-1.5220648E-005
3	0	1.983931963118448E+003	2.3592435E-001	-9.1562819E-005
3	0	1.984431963105817E+003	2.3588893E-001	-3.4306191E-005
3	0	1.984931963093186E+003	2.3583971E-001	-1.5220648E-005
3	0	1.985431963080555E+003	2.3576044E-001	-3.4306191E-005
3	0	1.985931963067924E+003	2.3565982E-001	-5.3391734E-005
3	0	1.986431963055293E+003	2.3558961E-001	8.0207064E-005
3	0	1.986931963042662E+003	2.3553801E-001	6.1121522E-005
3	0	1.987431963030031E+003	2.3548619E-001	-1.4881945E-004
3	0	1.987931963017400E+003	2.3543686E-001	-1.2973390E-004
3	0	1.988431963004768E+003	2.3538190E-001	-5.3391734E-005
3	0	1.988931962992137E+003	2.3531918E-001	-1.5220648E-005
3	0	1.989431962979506E+003	2.3524439E-001	9.9292607E-005
3	0	1.989931962966875E+003	2.3514022E-001	-1.5220648E-005
3	0	1.990431962954244E+003	2.3505585E-001	-3.4306191E-005
3	0	1.990931962941613E+003	2.3501158E-001	-5.3391734E-005
3	0	1.991431962928982E+003	2.3495884E-001	-7.2477276E-005
3	0	1.991931962916351E+003	2.3490262E-001	-1.5220648E-005
3	0	1.992431962903720E+003	2.3484583E-001	3.8648941E-006
3	0	1.992931962891089E+003	2.3478512E-001	-5.3391734E-005
3	0	1.993431962878458E+003	2.3470107E-001	-7.2477276E-005
3	0	1.993931962865827E+003	2.3459503E-001	2.2950437E-005
3	0	1.994431962853196E+003	2.3451652E-001	-1.8699054E-004
3	0	1.994931962840565E+003	2.3446563E-001	-7.2477276E-005
3	0	1.995431962827934E+003	2.3441499E-001	-7.2477276E-005
3	0	1.995931962815303E+003	2.3435961E-001	4.2035979E-005
3	0	1.996431962802671E+003	2.3430228E-001	-3.4306191E-005
3	0	1.996931962790040E+003	2.3423575E-001	-1.2973390E-004
3	0	1.997431962777409E+003	2.3414779E-001	-1.4881945E-004
3	0	1.997931962764778E+003	2.3404549E-001	-5.3391734E-005
3	0	1.998431962752147E+003	2.3396486E-001	2.2950437E-005
3	0	1.998931962739516E+003	2.3391275E-001	1.1837815E-004
3	0	1.999431962726885E+003	2.3386043E-001	9.9292607E-005
3	0	1.999931962714254E+003	2.3380665E-001	3.8648941E-006
3	0	2.000431962701623E+003	2.3375638E-001	8.0207064E-005
3	0	2.000931962688992E+003	2.3369271E-001	4.2035979E-005
3	0	2.001431962676361E+003	2.3361480E-001	-7.2477276E-005
3	0	2.001931962663730E+003	2.3351793E-001	2.2950437E-005
3	0	2.002431962651099E+003	2.3344168E-001	2.2950437E-005
3	0	2.002931962638468E+003	2.3339900E-001	-1.1064836E-004
3	0	2.003431962625837E+003	2.3335677E-001	2.2950437E-005
3	0	2.003931962613206E+003	2.3330399E-001	6.1121522E-005
3	0	2.004431962600574E+003	2.3325641E-001	-1.5220648E-005
3	0	2.004931962587943E+003	2.3320565E-001	-1.4881945E-004
3	0	2.005431962575312E+003	2.3312601E-001	-9.1562819E-005
3	0	2.005931962562681E+003	2.3302808E-001	-9.1562819E-005
3	0	2.006431962550050E+003	2.3295113E-001	8.0207064E-005
3	0	2.006931962537419E+003	2.3291247E-001	-9.1562819E-005
3	0	2.007431962524788E+003	2.3287377E-001	-5.3391734E-005
3	0	2.007931962512157E+003	2.3283143E-001	4.2035979E-005
3	0	2.008431962499526E+003	2.3278257E-001	2.2950437E-005
3	0	2.008931962486895E+003	2.3272486E-001	-5.3391734E-005
3	0	2.009431962474264E+003	2.3264551E-001	-9.1562819E-005
3	0	2.009931962461633E+003	2.3255055E-001	-1.5220648E-005
3	0	2.010431962449002E+003	2.3247647E-001	-9.1562819E-005
3	0	2.010931962436371E+003	2.3243494E-001	9.9292607E-005
3	0	2.011431962423740E+003	2.3239496E-001	-7.2477276E-005
3	0	2.011931962411109E+003	2.3234379E-001	-5.3391734E-005
3	0	2.012431962398477E+003	2.3229787E-001	2.2950437E-005
3	0	2.012931962385846E+003	2.3225175E-001	-1.1064836E-004
3	0	2.013431962373215E+003	2.3218012E-001	-1.1064836E-004
3	0	2.013931962360584E+003	2.3208643E-001	-9.1562819E-005
3	0	2.014431962347953E+003	2.3201288E-001	4.2035979E-005
3	0	2.014931962335322E+003	2.3197454E-001	3.8648941E-006
3	0	2.015431962322691E+003	2.3193063E-001	-1.1064836E-004
3	0	2.015931962310060E+003	2.3188597E-001	-3.4306191E-005
3	0	2.016431962297429E+003	2.3183329E-001	-1.5220648E-005
3	0	2.016931962284798E+003	2.3177277E-001	4.2035979E-005
3	0	2.017431962272167E+003	2.3170038E-001	-3.4306191E-005
3	0	2.017931962259536E+003	2.3160002E-001	-5.3391734E-005
3	0	2.018431962246905E+003	2.3152320E-001	-7.2477276E-005
3	0	2.018931962234274E+003	2.3147738E-001	3.8648941E-006
3	0	2.019431962221643E+003	2.3143329E-001	-7.2477276E-005
3	0	2.019931962209012E+003	2.3139173E-001	3.8648941E-006
3	0	2.020431962196380E+003	2.3134601E-001	-7.2477276E-005
3	0	2.020931962183749E+003	2.3129310E-001	-9.1562819E-005
3	0	2.021431962171118E+003	2.3121771E-001	3.8648941E-006
3	0	2.021931962158487E+003	2.3112819E-001	-7.2477276E-005
3	0	2.022431962145856E+003	2.3105970E-001	-7.2477276E-005
3	0	2.022931962133225E+003	2.3101752E-001	-7.2477276E-005
3	0	2.023431962120594E+003	2.3097947E-001	3.8648941E-006
3	0	2.023931962107963E+003	2.3093227E-001	-7.2477276E-005
3	0	2.024431962095332E+003	2.3088698E-001	3.8648941E-006
3	0	2.024931962082701E+003	2.3083958E-001	-1.5220648E-005
3	0	2.025431962070070E+003	2.3077089E-001	4.2035979E-005
3	0	2.025931962057439E+003	2.3067997E-001	2.2950437E-005
3	0	2.026431962044808E+003	2.3061137E-001	-9.1562819E-005
3	0	2.026931962032177E+003	2.3057701E-001	2.2950437E-005
3	0	2.026932362032167E+003	2.3062672E-001	-9.1562819E-005