EC-Lab ASCII FILE
Nb header lines : 55                          

Open Circuit Voltage

Run on channel : 1 (SN 81504)
User : 
CE vs. WE compliance from -10 V to 10 V
Electrode connection : standard
Potential control : Ewe
Ewe ctrl range : min = -2.50 V, max = 2.50 V
Safety Limits :
	Do not start on E overload
Acquisition started on : 05/08/2026 00:43:10.981
Loaded Setting File :  C:\PEM-WE_measurements\2026\372_IV_IV IrOx, 5 min Pt, 30 min C, etched cathode\new station\Loopeis new\1,46 V different time gaps open cell\Loopeis 1,46V_180s_4_PEIS from 650Hz to 100Hz.mps
Saved on :
	File : L_29_Loopeis 1,46V_180s_4_PEIS from 650Hz to 100Hz_14_OCV_C01.mpr
	Directory : C:\PEM-WE_measurements\2026\372_IV_IV IrOx, 5 min Pt, 30 min C, etched cathode\new station\Loopeis new\1,46 V different time gaps open cell\
	Host : 192.168.0.2
Device : SP-150e (SN .005491)
Address : 192.168.0.91
EC-LAB for windows v11.71 (software)
Internet server v28.00 (firmware)
Command interpretor v14.01 (firmware)
Electrode material : 
Initial state : 
Electrolyte : 
Comments : 
Current amplifier : SP-150eB-20A
Electrode surface area : 0.001 cm²
Characteristic mass : 0.001 g
Equivalent Weight : 0.000 g/eq.
Density : 0.000 g/cm3
Volume (V) : 0.001 cm³
Record Analogic IN 1
Text export
   Mode : Standard
   Time format : Elapsed
Cycle Definition : Charge/Discharge alternance
External device configuration :
   device type : Temperature Probe
   device name : Other
   Analog IN 1 : 
      unit : T/Â°C
      max : 100.000 at 2.000 V
      min : 0.000 at 1.460 V
tR (h:m:s)          0:03:0.0000         
dER/dt (mV/h)       1.0                 
record              <Ewe>               
dER (mV)            10.00               
dtR (s)             0.5000              
E range min (V)     -2.500              
E range max (V)     2.500               

mode	error	time/s	<Ewe/V>	Analog IN 1/V	
3	0	1.397632174670143E+003	1.2150183E+000	-2.7036618E+002
3	0	1.398132174657512E+003	1.1616776E+000	-2.7036618E+002
3	0	1.398632174644881E+003	7.6751667E-001	-2.7038031E+002
3	0	1.399132174632250E+003	4.1099685E-001	-2.7037326E+002
3	0	1.399632174619619E+003	3.4529915E-001	-2.7040155E+002
3	0	1.400132174606988E+003	3.3410287E-001	-2.7038385E+002
3	0	1.400632174594357E+003	3.2646355E-001	-2.7039447E+002
3	0	1.401132174581726E+003	3.2045141E-001	-2.7037326E+002
3	0	1.401632174569095E+003	3.1584427E-001	-2.7036972E+002
3	0	1.402132174556464E+003	3.1227341E-001	-2.7037677E+002
3	0	1.402632174543833E+003	3.0942464E-001	-2.7037677E+002
3	0	1.403132174531202E+003	3.0711797E-001	-2.7037326E+002
3	0	1.403632174518571E+003	3.0519974E-001	-2.7036618E+002
3	0	1.404132174505939E+003	3.0356368E-001	-2.7038385E+002
3	0	1.404632174493308E+003	3.0214116E-001	-2.7036267E+002
3	0	1.405132174480677E+003	3.0088153E-001	-2.7038031E+002
3	0	1.405632174468046E+003	2.9974747E-001	-2.7038385E+002
3	0	1.406132174455415E+003	2.9869789E-001	-2.7038031E+002
3	0	1.406632174442784E+003	2.9771733E-001	-2.7038031E+002
3	0	1.407132174430153E+003	2.9681247E-001	-2.7038031E+002
3	0	1.407632174417522E+003	2.9599002E-001	-2.7038031E+002
3	0	1.408132174404891E+003	2.9521793E-001	-2.7038742E+002
3	0	1.408632174392260E+003	2.9447895E-001	-2.7039447E+002
3	0	1.409132174379629E+003	2.9377186E-001	-2.7036972E+002
3	0	1.409632174366998E+003	2.9309326E-001	-2.7037677E+002
3	0	1.410132174354367E+003	2.9240954E-001	-2.7038742E+002
3	0	1.410632174341736E+003	2.9173061E-001	-2.7038031E+002
3	0	1.411132174329105E+003	2.9107785E-001	-2.7037677E+002
3	0	1.411632174316474E+003	2.9046860E-001	-2.7037677E+002
3	0	1.412132174303842E+003	2.8988388E-001	-2.7039801E+002
3	0	1.412632174291211E+003	2.8929892E-001	-2.7036618E+002
3	0	1.413132174278580E+003	2.8873214E-001	-2.7038031E+002
3	0	1.413632174265949E+003	2.8816658E-001	-2.7035559E+002
3	0	1.414132174253318E+003	2.8758758E-001	-2.7035559E+002
3	0	1.414632174240687E+003	2.8700343E-001	-2.7034851E+002
3	0	1.415132174228056E+003	2.8643808E-001	-2.7036972E+002
3	0	1.415632174215425E+003	2.8591412E-001	-2.7037326E+002
3	0	1.416132174202794E+003	2.8539729E-001	-2.7036972E+002
3	0	1.416632174190163E+003	2.8488046E-001	-2.7038031E+002
3	0	1.417132174177532E+003	2.8437719E-001	-2.7039447E+002
3	0	1.417632174164901E+003	2.8386354E-001	-2.7036972E+002
3	0	1.418132174152270E+003	2.8334606E-001	-2.7038031E+002
3	0	1.418632174139639E+003	2.8281486E-001	-2.7038031E+002
3	0	1.419132174127008E+003	2.8230432E-001	-2.7040155E+002
3	0	1.419632174114377E+003	2.8183526E-001	-2.7039447E+002
3	0	1.420132174101745E+003	2.8136009E-001	-2.7038031E+002
3	0	1.420632174089114E+003	2.8089210E-001	-2.7038742E+002
3	0	1.421132174076483E+003	2.8042588E-001	-2.7037326E+002
3	0	1.421632174063852E+003	2.7995861E-001	-2.7039447E+002
3	0	1.422132174051221E+003	2.7948537E-001	-2.7038742E+002
3	0	1.422632174038590E+003	2.7899650E-001	-2.7040506E+002
3	0	1.423132174025959E+003	2.7852252E-001	-2.7040155E+002
3	0	1.423632174013328E+003	2.7808550E-001	-2.7039093E+002
3	0	1.424132174000697E+003	2.7765229E-001	-2.7038385E+002
3	0	1.424632173988066E+003	2.7722126E-001	-2.7035913E+002
3	0	1.425132173975435E+003	2.7679428E-001	-2.7036972E+002
3	0	1.425632173962804E+003	2.7636108E-001	-2.7038742E+002
3	0	1.426132173950173E+003	2.7592316E-001	-2.7037326E+002
3	0	1.426632173937542E+003	2.7546784E-001	-2.7038385E+002
3	0	1.427132173924911E+003	2.7503172E-001	-2.7038031E+002
3	0	1.427632173912280E+003	2.7464092E-001	-2.7036972E+002
3	0	1.428132173899648E+003	2.7424267E-001	-2.7037677E+002
3	0	1.428632173887017E+003	2.7384654E-001	-2.7036618E+002
3	0	1.429132173874386E+003	2.7345458E-001	-2.7037677E+002
3	0	1.429632173861755E+003	2.7306163E-001	-2.7036972E+002
3	0	1.430132173849124E+003	2.7265537E-001	-2.7038031E+002
3	0	1.430632173836493E+003	2.7223933E-001	-2.7038031E+002
3	0	1.431132173823862E+003	2.7183816E-001	-2.7036972E+002
3	0	1.431632173811231E+003	2.7147117E-001	-2.7037677E+002
3	0	1.432132173798600E+003	2.7110335E-001	-2.7039447E+002
3	0	1.432632173785969E+003	2.7073652E-001	-2.7036618E+002
3	0	1.433132173773338E+003	2.7036843E-001	-2.7034497E+002
3	0	1.433632173760707E+003	2.7000356E-001	-2.7038742E+002
3	0	1.434132173748076E+003	2.6963827E-001	-2.7038385E+002
3	0	1.434632173735445E+003	2.6925179E-001	-2.7035913E+002
3	0	1.435132173722814E+003	2.6888105E-001	-2.7036267E+002
3	0	1.435632173710183E+003	2.6854739E-001	-2.7039447E+002
3	0	1.436132173697551E+003	2.6821679E-001	-2.7038385E+002
3	0	1.436632173684920E+003	2.6787475E-001	-2.7036618E+002
3	0	1.437132173672289E+003	2.6753929E-001	-2.7036267E+002
3	0	1.437632173659658E+003	2.6720917E-001	-2.7038031E+002
3	0	1.438132173647027E+003	2.6686072E-001	-2.7036618E+002
3	0	1.438632173634396E+003	2.6649317E-001	-2.7038385E+002
3	0	1.439132173621765E+003	2.6615334E-001	-2.7037326E+002
3	0	1.439632173609134E+003	2.6585174E-001	-2.7039447E+002
3	0	1.440132173596503E+003	2.6554915E-001	-2.7039093E+002
3	0	1.440632173583872E+003	2.6523456E-001	-2.7036972E+002
3	0	1.441132173571241E+003	2.6492584E-001	-2.7038385E+002
3	0	1.441632173558610E+003	2.6462325E-001	-2.7037677E+002
3	0	1.442132173545979E+003	2.6429296E-001	-2.7037677E+002
3	0	1.442632173533348E+003	2.6396331E-001	-2.7038742E+002
3	0	1.443132173520717E+003	2.6364285E-001	-2.7036972E+002
3	0	1.443632173508086E+003	2.6336521E-001	-2.7036972E+002
3	0	1.444132173495454E+003	2.6308897E-001	-2.7037326E+002
3	0	1.444632173482823E+003	2.6280034E-001	-2.7036267E+002
3	0	1.445132173470192E+003	2.6252183E-001	-2.7038742E+002
3	0	1.445632173457561E+003	2.6224053E-001	-2.7037677E+002
3	0	1.446132173444930E+003	2.6194471E-001	-2.7036972E+002
3	0	1.446632173432299E+003	2.6163536E-001	-2.7036618E+002
3	0	1.447132173419668E+003	2.6134953E-001	-2.7038742E+002
3	0	1.447632173407037E+003	2.6109269E-001	-2.7038385E+002
3	0	1.448132173394406E+003	2.6083899E-001	-2.7035205E+002
3	0	1.448632173381775E+003	2.6058573E-001	-2.7038742E+002
3	0	1.449132173369144E+003	2.6033276E-001	-2.7035205E+002
3	0	1.449632173356513E+003	2.6007888E-001	-2.7039093E+002
3	0	1.450132173343882E+003	2.5980449E-001	-2.7036267E+002
3	0	1.450632173331251E+003	2.5951791E-001	-2.7038385E+002
3	0	1.451132173318620E+003	2.5925410E-001	-2.7036972E+002
3	0	1.451632173305989E+003	2.5902492E-001	-2.7037677E+002
3	0	1.452132173293357E+003	2.5879541E-001	-2.7039801E+002
3	0	1.452632173280726E+003	2.5855875E-001	-2.7038385E+002
3	0	1.453132173268095E+003	2.5833079E-001	-2.7038385E+002
3	0	1.453632173255464E+003	2.5809941E-001	-2.7035559E+002
3	0	1.454132173242833E+003	2.5785202E-001	-2.7039093E+002
3	0	1.454632173230202E+003	2.5758046E-001	-2.7038742E+002
3	0	1.455132173217571E+003	2.5733995E-001	-2.7038031E+002
3	0	1.455632173204940E+003	2.5713018E-001	-2.7038742E+002
3	0	1.456132173192309E+003	2.5692287E-001	-2.7038385E+002
3	0	1.456632173179678E+003	2.5671199E-001	-2.7038385E+002
3	0	1.457132173167047E+003	2.5649861E-001	-2.7038742E+002
3	0	1.457632173154416E+003	2.5627971E-001	-2.7039093E+002
3	0	1.458132173141785E+003	2.5604409E-001	-2.7036618E+002
3	0	1.458632173129154E+003	2.5579733E-001	-2.7040155E+002
3	0	1.459132173116523E+003	2.5557178E-001	-2.7039801E+002
3	0	1.459632173103892E+003	2.5538042E-001	-2.7036972E+002
3	0	1.460132173091260E+003	2.5518441E-001	-2.7038385E+002
3	0	1.460632173078629E+003	2.5498787E-001	-2.7036618E+002
3	0	1.461132173065998E+003	2.5479445E-001	-2.7036267E+002
3	0	1.461632173053367E+003	2.5459391E-001	-2.7036972E+002
3	0	1.462132173040736E+003	2.5437474E-001	-2.7038742E+002
3	0	1.462632173028105E+003	2.5413710E-001	-2.7035913E+002
3	0	1.463132173015474E+003	2.5391608E-001	-2.7038385E+002
3	0	1.463632173002843E+003	2.5374076E-001	-2.7039801E+002
3	0	1.464132172990212E+003	2.5355244E-001	-2.7038742E+002
3	0	1.464632172977581E+003	2.5336948E-001	-2.7037326E+002
3	0	1.465132172964950E+003	2.5318551E-001	-2.7039447E+002
3	0	1.465632172952319E+003	2.5300404E-001	-2.7035913E+002
3	0	1.466132172939688E+003	2.5280604E-001	-2.7037326E+002
3	0	1.466632172927057E+003	2.5258169E-001	-2.7040155E+002
3	0	1.467132172914426E+003	2.5238827E-001	-2.7039801E+002
3	0	1.467632172901795E+003	2.5222430E-001	-2.7040155E+002
3	0	1.468132172889163E+003	2.5205564E-001	-2.7037326E+002
3	0	1.468632172876532E+003	2.5189221E-001	-2.7035205E+002
3	0	1.469132172863901E+003	2.5172180E-001	-2.7038385E+002
3	0	1.469632172851270E+003	2.5155270E-001	-2.7039801E+002
3	0	1.470132172838639E+003	2.5136155E-001	-2.7038742E+002
3	0	1.470632172826008E+003	2.5116014E-001	-2.7038031E+002
3	0	1.471132172813377E+003	2.5097463E-001	-2.7038385E+002
3	0	1.471632172800746E+003	2.5082555E-001	-2.7037677E+002
3	0	1.472132172788115E+003	2.5067773E-001	-2.7037326E+002
3	0	1.472632172775484E+003	2.5052103E-001	-2.7039093E+002
3	0	1.473132172762853E+003	2.5037143E-001	-2.7038385E+002
3	0	1.473632172750222E+003	2.5021020E-001	-2.7038031E+002
3	0	1.474132172737591E+003	2.5003600E-001	-2.7037326E+002
3	0	1.474632172724960E+003	2.4984422E-001	-2.7039801E+002
3	0	1.475132172712329E+003	2.4967377E-001	-2.7038742E+002
3	0	1.475632172699698E+003	2.4953522E-001	-2.7036267E+002
3	0	1.476132172687066E+003	2.4939762E-001	-2.7038385E+002
3	0	1.476632172674435E+003	2.4925713E-001	-2.7036618E+002
3	0	1.477132172661804E+003	2.4911697E-001	-2.7038742E+002
3	0	1.477632172649173E+003	2.4897255E-001	-2.7037326E+002
3	0	1.478132172636542E+003	2.4880911E-001	-2.7036267E+002
3	0	1.478632172623911E+003	2.4862795E-001	-2.7036618E+002
3	0	1.479132172611280E+003	2.4846348E-001	-2.7036972E+002
3	0	1.479632172598649E+003	2.4833483E-001	-2.7037326E+002
3	0	1.480132172586018E+003	2.4820377E-001	-2.7038385E+002
3	0	1.480632172573387E+003	2.4807355E-001	-2.7040506E+002
3	0	1.481132172560756E+003	2.4793874E-001	-2.7036267E+002
3	0	1.481632172548125E+003	2.4780019E-001	-2.7040860E+002
3	0	1.482132172535494E+003	2.4764249E-001	-2.7039447E+002
3	0	1.482632172522863E+003	2.4746099E-001	-2.7039447E+002
3	0	1.483132172510232E+003	2.4730070E-001	-2.7034497E+002
3	0	1.483632172497601E+003	2.4717499E-001	-2.7039447E+002
3	0	1.484132172484969E+003	2.4704772E-001	-2.7034851E+002
3	0	1.484632172472338E+003	2.4692357E-001	-2.7039093E+002
3	0	1.485132172459707E+003	2.4680260E-001	-2.7039801E+002
3	0	1.485632172447076E+003	2.4667315E-001	-2.7036618E+002
3	0	1.486132172434445E+003	2.4652351E-001	-2.7036267E+002
3	0	1.486632172421814E+003	2.4635738E-001	-2.7037326E+002
3	0	1.487132172409183E+003	2.4621087E-001	-2.7037677E+002
3	0	1.487632172396552E+003	2.4609473E-001	-2.7038385E+002
3	0	1.488132172383921E+003	2.4598581E-001	-2.7038742E+002
3	0	1.488632172371290E+003	2.4587063E-001	-2.7036618E+002
3	0	1.489132172358659E+003	2.4575529E-001	-2.7037326E+002
3	0	1.489632172346028E+003	2.4564010E-001	-2.7039093E+002
3	0	1.490132172333397E+003	2.4550626E-001	-2.7036618E+002
3	0	1.490632172320766E+003	2.4534962E-001	-2.7037326E+002
3	0	1.491132172308135E+003	2.4521537E-001	-2.7038385E+002
3	0	1.491632172295504E+003	2.4511090E-001	-2.7038385E+002
3	0	1.492132172282872E+003	2.4500936E-001	-2.7038385E+002
3	0	1.492632172270241E+003	2.4489735E-001	-2.7039447E+002
3	0	1.493132172257610E+003	2.4479093E-001	-2.7039801E+002
3	0	1.493632172244979E+003	2.4467745E-001	-2.7039093E+002
3	0	1.494132172232348E+003	2.4454686E-001	-2.7037677E+002
3	0	1.494632172219717E+003	2.4440116E-001	-2.7039447E+002
3	0	1.495132172207086E+003	2.4427232E-001	-2.7039093E+002
3	0	1.495632172194455E+003	2.4417625E-001	-2.7037677E+002
3	0	1.496132172181824E+003	2.4407861E-001	-2.7038385E+002
3	0	1.496632172169193E+003	2.4397965E-001	-2.7038385E+002
3	0	1.497132172156562E+003	2.4388017E-001	-2.7034851E+002
3	0	1.497632172143931E+003	2.4377470E-001	-2.7037326E+002
3	0	1.498132172131300E+003	2.4364610E-001	-2.7038031E+002
3	0	1.498632172118669E+003	2.4350104E-001	-2.7039801E+002
3	0	1.499132172106038E+003	2.4337552E-001	-2.7038031E+002
3	0	1.499632172093407E+003	2.4328727E-001	-2.7039801E+002
3	0	1.500132172080775E+003	2.4319847E-001	-2.7039447E+002
3	0	1.500632172068144E+003	2.4310067E-001	-2.7038031E+002
3	0	1.501132172055513E+003	2.4300824E-001	-2.7037326E+002
3	0	1.501632172042882E+003	2.4290441E-001	-2.7036972E+002
3	0	1.502132172030251E+003	2.4278361E-001	-2.7036267E+002
3	0	1.502632172017620E+003	2.4264069E-001	-2.7039093E+002
3	0	1.503132172004989E+003	2.4251290E-001	-2.7037677E+002
3	0	1.503632171992358E+003	2.4242811E-001	-2.7037677E+002
3	0	1.504132171979727E+003	2.4233446E-001	-2.7034851E+002
3	0	1.504632171967096E+003	2.4224155E-001	-2.7038031E+002
3	0	1.505132171954465E+003	2.4214816E-001	-2.7037326E+002
3	0	1.505632171941834E+003	2.4205194E-001	-2.7039093E+002
3	0	1.506132171929203E+003	2.4193543E-001	-2.7038031E+002
3	0	1.506632171916572E+003	2.4179767E-001	-2.7036972E+002
3	0	1.507132171903941E+003	2.4167970E-001	-2.7039447E+002
3	0	1.507632171891310E+003	2.4159867E-001	-2.7036267E+002
3	0	1.508132171878678E+003	2.4151728E-001	-2.7038031E+002
3	0	1.508632171866047E+003	2.4142972E-001	-2.7037326E+002
3	0	1.509132171853416E+003	2.4134891E-001	-2.7037677E+002
3	0	1.509632171840785E+003	2.4124999E-001	-2.7036972E+002
3	0	1.510132171828154E+003	2.4112804E-001	-2.7038031E+002
3	0	1.510632171815523E+003	2.4099681E-001	-2.7036618E+002
3	0	1.511132171802892E+003	2.4088605E-001	-2.7038031E+002
3	0	1.511632171790261E+003	2.4080296E-001	-2.7039447E+002
3	0	1.512132171777630E+003	2.4072298E-001	-2.7037326E+002
3	0	1.512632171764999E+003	2.4063951E-001	-2.7037326E+002
3	0	1.513132171752368E+003	2.4055329E-001	-2.7035559E+002
3	0	1.513632171739737E+003	2.4046263E-001	-2.7035913E+002
3	0	1.514132171727106E+003	2.4035521E-001	-2.7037677E+002
3	0	1.514632171714475E+003	2.4022885E-001	-2.7035913E+002
3	0	1.515132171701844E+003	2.4012509E-001	-2.7039093E+002
3	0	1.515632171689213E+003	2.4005023E-001	-2.7037326E+002
3	0	1.516132171676581E+003	2.3998000E-001	-2.7038031E+002
3	0	1.516632171663950E+003	2.3989862E-001	-2.7035913E+002
3	0	1.517132171651319E+003	2.3982032E-001	-2.7038742E+002
3	0	1.517632171638688E+003	2.3973659E-001	-2.7035913E+002
3	0	1.518132171626057E+003	2.3963222E-001	-2.7037326E+002
3	0	1.518632171613426E+003	2.3951454E-001	-2.7039093E+002
3	0	1.519132171600795E+003	2.3941110E-001	-2.7038031E+002
3	0	1.519632171588164E+003	2.3934254E-001	-2.7039447E+002
3	0	1.520132171575533E+003	2.3927417E-001	-2.7038385E+002
3	0	1.520632171562902E+003	2.3919742E-001	-2.7036267E+002
3	0	1.521132171550271E+003	2.3912093E-001	-2.7038031E+002
3	0	1.521632171537640E+003	2.3903951E-001	-2.7037326E+002
3	0	1.522132171525009E+003	2.3894027E-001	-2.7036618E+002
3	0	1.522632171512378E+003	2.3881544E-001	-2.7038385E+002
3	0	1.523132171499747E+003	2.3871107E-001	-2.7037326E+002
3	0	1.523632171487116E+003	2.3864132E-001	-2.7041568E+002
3	0	1.524132171474484E+003	2.3857066E-001	-2.7040155E+002
3	0	1.524632171461853E+003	2.3849142E-001	-2.7037326E+002
3	0	1.525132171449222E+003	2.3841791E-001	-2.7039447E+002
3	0	1.525632171436591E+003	2.3834237E-001	-2.7039093E+002
3	0	1.526132171423960E+003	2.3824455E-001	-2.7037326E+002
3	0	1.526632171411329E+003	2.3812895E-001	-2.7033438E+002
3	0	1.527132171398698E+003	2.3803571E-001	-2.7037326E+002
3	0	1.527632171386067E+003	2.3797537E-001	-2.7038031E+002
3	0	1.528132171373436E+003	2.3790829E-001	-2.7039093E+002
3	0	1.528632171360805E+003	2.3784423E-001	-2.7040155E+002
3	0	1.529132171348174E+003	2.3777418E-001	-2.7039093E+002
3	0	1.529632171335543E+003	2.3770030E-001	-2.7037677E+002
3	0	1.530132171322912E+003	2.3760949E-001	-2.7038031E+002
3	0	1.530632171310281E+003	2.3749156E-001	-2.7036618E+002
3	0	1.531132171297650E+003	2.3739542E-001	-2.7040155E+002
3	0	1.531632171285019E+003	2.3733672E-001	-2.7036267E+002
3	0	1.532132171272388E+003	2.3727825E-001	-2.7036618E+002
3	0	1.532632171259756E+003	2.3721652E-001	-2.7038031E+002
3	0	1.533132171247125E+003	2.3715441E-001	-2.7039093E+002
3	0	1.533632171234494E+003	2.3708811E-001	-2.7037326E+002
3	0	1.534132171221863E+003	2.3699471E-001	-2.7037326E+002
3	0	1.534632171209232E+003	2.3688293E-001	-2.7038385E+002
3	0	1.535132171196601E+003	2.3679398E-001	-2.7039093E+002
3	0	1.535632171183970E+003	2.3673773E-001	-2.7038031E+002
3	0	1.536132171171339E+003	2.3667674E-001	-2.7037677E+002
3	0	1.536632171158708E+003	2.3662208E-001	-2.7038742E+002
3	0	1.537132171146077E+003	2.3656185E-001	-2.7038742E+002
3	0	1.537632171133446E+003	2.3649776E-001	-2.7037677E+002
3	0	1.538132171120815E+003	2.3641053E-001	-2.7037677E+002
3	0	1.538632171108184E+003	2.3630042E-001	-2.7037677E+002
3	0	1.539132171095553E+003	2.3621276E-001	-2.7036267E+002
3	0	1.539632171082922E+003	2.3615375E-001	-2.7037326E+002
3	0	1.540132171070291E+003	2.3610346E-001	-2.7036972E+002
3	0	1.540632171057659E+003	2.3604195E-001	-2.7038031E+002
3	0	1.541132171045028E+003	2.3598246E-001	-2.7036267E+002
3	0	1.541632171032397E+003	2.3591819E-001	-2.7038742E+002
3	0	1.542132171019766E+003	2.3583192E-001	-2.7037677E+002
3	0	1.542632171007135E+003	2.3572840E-001	-2.7039093E+002
3	0	1.543132170994504E+003	2.3564035E-001	-2.7038031E+002
3	0	1.543632170981873E+003	2.3558648E-001	-2.7039447E+002
3	0	1.544132170969242E+003	2.3553060E-001	-2.7038031E+002
3	0	1.544632170956611E+003	2.3547454E-001	-2.7039093E+002
3	0	1.545132170943980E+003	2.3541605E-001	-2.7039093E+002
3	0	1.545632170931349E+003	2.3535709E-001	-2.7036267E+002
3	0	1.546132170918718E+003	2.3527418E-001	-2.7035913E+002
3	0	1.546632170906087E+003	2.3516718E-001	-2.7035205E+002
3	0	1.547132170893456E+003	2.3508182E-001	-2.7035913E+002
3	0	1.547632170880825E+003	2.3502974E-001	-2.7040506E+002
3	0	1.548132170868194E+003	2.3497754E-001	-2.7038742E+002
3	0	1.548632170855562E+003	2.3491941E-001	-2.7037677E+002
3	0	1.549132170842931E+003	2.3486564E-001	-2.7037326E+002
3	0	1.549632170830300E+003	2.3480453E-001	-2.7036972E+002
3	0	1.550132170817669E+003	2.3472716E-001	-2.7036972E+002
3	0	1.550632170805038E+003	2.3462562E-001	-2.7036972E+002
3	0	1.551132170792407E+003	2.3454091E-001	-2.7039093E+002
3	0	1.551632170779776E+003	2.3449203E-001	-2.7039093E+002
3	0	1.552132170767145E+003	2.3444910E-001	-2.7036267E+002
3	0	1.552632170754514E+003	2.3439682E-001	-2.7041568E+002
3	0	1.553132170741883E+003	2.3434843E-001	-2.7038031E+002
3	0	1.553632170729252E+003	2.3428947E-001	-2.7039447E+002
3	0	1.554132170716621E+003	2.3421654E-001	-2.7039801E+002
3	0	1.554632170703990E+003	2.3412074E-001	-2.7035913E+002
3	0	1.555132170691359E+003	2.3404174E-001	-2.7038742E+002
3	0	1.555632170678728E+003	2.3399626E-001	-2.7039447E+002
3	0	1.556132170666097E+003	2.3395306E-001	-2.7036618E+002
3	0	1.556632170653465E+003	2.3390800E-001	-2.7037326E+002
3	0	1.557132170640834E+003	2.3385508E-001	-2.7039801E+002
3	0	1.557632170628203E+003	2.3379526E-001	-2.7038742E+002
3	0	1.558132170615572E+003	2.3372012E-001	-2.7040155E+002
3	0	1.558632170602941E+003	2.3362213E-001	-2.7038031E+002
3	0	1.559132170590310E+003	2.3354924E-001	-2.7038385E+002
3	0	1.559632170577679E+003	2.3350465E-001	-2.7037326E+002
3	0	1.560132170565048E+003	2.3346099E-001	-2.7039801E+002
3	0	1.560632170552417E+003	2.3341402E-001	-2.7036972E+002
3	0	1.561132170539786E+003	2.3336530E-001	-2.7037326E+002
3	0	1.561632170527155E+003	2.3331524E-001	-2.7038385E+002
3	0	1.562132170514524E+003	2.3324059E-001	-2.7039801E+002
3	0	1.562632170501893E+003	2.3313993E-001	-2.7038742E+002
3	0	1.563132170489262E+003	2.3306173E-001	-2.7039093E+002
3	0	1.563632170476631E+003	2.3301522E-001	-2.7035913E+002
3	0	1.564132170464000E+003	2.3296778E-001	-2.7037677E+002
3	0	1.564632170451368E+003	2.3292089E-001	-2.7036267E+002
3	0	1.565132170438737E+003	2.3286685E-001	-2.7036267E+002
3	0	1.565632170426106E+003	2.3280674E-001	-2.7038742E+002
3	0	1.566132170413475E+003	2.3273747E-001	-2.7040155E+002
3	0	1.566632170400844E+003	2.3263924E-001	-2.7036618E+002
3	0	1.567132170388213E+003	2.3256661E-001	-2.7035913E+002
3	0	1.567632170375582E+003	2.3252098E-001	-2.7040860E+002
3	0	1.568132170362951E+003	2.3248126E-001	-2.7036267E+002
3	0	1.568632170350320E+003	2.3243964E-001	-2.7035913E+002
3	0	1.569132170337689E+003	2.3238644E-001	-2.7038031E+002
3	0	1.569632170325058E+003	2.3233765E-001	-2.7035913E+002
3	0	1.570132170312427E+003	2.3226587E-001	-2.7036618E+002
3	0	1.570632170299796E+003	2.3216987E-001	-2.7040860E+002
3	0	1.571132170287165E+003	2.3210295E-001	-2.7039801E+002
3	0	1.571632170274534E+003	2.3205791E-001	-2.7038031E+002
3	0	1.572132170261903E+003	2.3202261E-001	-2.7038031E+002
3	0	1.572632170249271E+003	2.3198043E-001	-2.7039447E+002
3	0	1.573132170236640E+003	2.3194043E-001	-2.7035205E+002
3	0	1.573632170224009E+003	2.3189278E-001	-2.7038031E+002
3	0	1.574132170211378E+003	2.3182750E-001	-2.7036972E+002
3	0	1.574632170198747E+003	2.3173854E-001	-2.7040155E+002
3	0	1.575132170186116E+003	2.3166890E-001	-2.7037326E+002
3	0	1.575632170173485E+003	2.3163061E-001	-2.7035205E+002
3	0	1.576132170160854E+003	2.3159413E-001	-2.7038385E+002
3	0	1.576632170148223E+003	2.3155302E-001	-2.7037326E+002
3	0	1.577132170135592E+003	2.3151954E-001	-2.7039801E+002
3	0	1.577132570135582E+003	2.3149504E-001	-2.7041214E+002