EC-Lab ASCII FILE
Nb header lines : 55                          

Open Circuit Voltage

Run on channel : 1 (SN 81504)
User : 
CE vs. WE compliance from -10 V to 10 V
Electrode connection : standard
Potential control : Ewe
Ewe ctrl range : min = -2.50 V, max = 2.50 V
Safety Limits :
	Do not start on E overload
Acquisition started on : 05/08/2026 00:43:10.981
Loaded Setting File :  C:\PEM-WE_measurements\2026\372_IV_IV IrOx, 5 min Pt, 30 min C, etched cathode\new station\Loopeis new\1,46 V different time gaps open cell\Loopeis 1,46V_180s_4_PEIS from 650Hz to 100Hz.mps
Saved on :
	File : L_29_Loopeis 1,46V_180s_4_PEIS from 650Hz to 100Hz_04_OCV_C01.mpr
	Directory : C:\PEM-WE_measurements\2026\372_IV_IV IrOx, 5 min Pt, 30 min C, etched cathode\new station\Loopeis new\1,46 V different time gaps open cell\
	Host : 192.168.0.2
Device : SP-150e (SN .005491)
Address : 192.168.0.91
EC-LAB for windows v11.71 (software)
Internet server v28.00 (firmware)
Command interpretor v14.01 (firmware)
Electrode material : 
Initial state : 
Electrolyte : 
Comments : 
Current amplifier : SP-150eB-20A
Electrode surface area : 0.001 cm²
Characteristic mass : 0.001 g
Equivalent Weight : 0.000 g/eq.
Density : 0.000 g/cm3
Volume (V) : 0.001 cm³
Record Analogic IN 1
Text export
   Mode : Standard
   Time format : Elapsed
Cycle Definition : Charge/Discharge alternance
External device configuration :
   device type : Temperature Probe
   device name : Other
   Analog IN 1 : 
      unit : T/Â°C
      max : 100.000 at 2.000 V
      min : 0.000 at 1.460 V
tR (h:m:s)          0:03:0.0000         
dER/dt (mV/h)       1.0                 
record              <Ewe>               
dER (mV)            10.00               
dtR (s)             0.5000              
E range min (V)     -2.500              
E range max (V)     2.500               

mode	error	time/s	<Ewe/V>	Analog IN 1/V	
3	0	2.704375964394421E+002	9.3729359E-001	-2.7038742E+002
3	0	2.709375964268111E+002	1.1240265E+000	-2.7037677E+002
3	0	2.714375964141800E+002	7.3509544E-001	-2.7038385E+002
3	0	2.719375964015489E+002	3.8506818E-001	-2.7039801E+002
3	0	2.724375963889179E+002	3.2179639E-001	-2.7037677E+002
3	0	2.729375963762868E+002	3.1258944E-001	-2.7037326E+002
3	0	2.734375963636558E+002	3.0605289E-001	-2.7037326E+002
3	0	2.739375963510247E+002	3.0064332E-001	-2.7038385E+002
3	0	2.744375963383936E+002	2.9638335E-001	-2.7038031E+002
3	0	2.749375963257626E+002	2.9304335E-001	-2.7037677E+002
3	0	2.754375963131315E+002	2.9036877E-001	-2.7039093E+002
3	0	2.759375963005004E+002	2.8821623E-001	-2.7036972E+002
3	0	2.764375962878694E+002	2.8642249E-001	-2.7039801E+002
3	0	2.769375962752383E+002	2.8489724E-001	-2.7037677E+002
3	0	2.774375962626073E+002	2.8356484E-001	-2.7035559E+002
3	0	2.779375962499762E+002	2.8238821E-001	-2.7037326E+002
3	0	2.784375962373451E+002	2.8133348E-001	-2.7038742E+002
3	0	2.789375962247141E+002	2.8034595E-001	-2.7038742E+002
3	0	2.794375962120830E+002	2.7943590E-001	-2.7038385E+002
3	0	2.799375961994519E+002	2.7862796E-001	-2.7039093E+002
3	0	2.804375961868209E+002	2.7787158E-001	-2.7037326E+002
3	0	2.809375961741898E+002	2.7715403E-001	-2.7037677E+002
3	0	2.814375961615588E+002	2.7646407E-001	-2.7036618E+002
3	0	2.819375961489277E+002	2.7580675E-001	-2.7038385E+002
3	0	2.824375961362966E+002	2.7515832E-001	-2.7039447E+002
3	0	2.829375961236656E+002	2.7452111E-001	-2.7037677E+002
3	0	2.834375961110345E+002	2.7389041E-001	-2.7036618E+002
3	0	2.839375960984034E+002	2.7331018E-001	-2.7039093E+002
3	0	2.844375960857724E+002	2.7274942E-001	-2.7039801E+002
3	0	2.849375960731413E+002	2.7220908E-001	-2.7038385E+002
3	0	2.854375960605103E+002	2.7167276E-001	-2.7036267E+002
3	0	2.859375960478792E+002	2.7113226E-001	-2.7035913E+002
3	0	2.864375960352481E+002	2.7059957E-001	-2.7038385E+002
3	0	2.869375960226171E+002	2.7004761E-001	-2.7035913E+002
3	0	2.874375960099860E+002	2.6950476E-001	-2.7037677E+002
3	0	2.879375959973549E+002	2.6900131E-001	-2.7038742E+002
3	0	2.884375959847239E+002	2.6850829E-001	-2.7036972E+002
3	0	2.889375959720928E+002	2.6802406E-001	-2.7034851E+002
3	0	2.894375959594618E+002	2.6754087E-001	-2.7040506E+002
3	0	2.899375959468307E+002	2.6706377E-001	-2.7040506E+002
3	0	2.904375959341996E+002	2.6657948E-001	-2.7040860E+002
3	0	2.909375959215686E+002	2.6607475E-001	-2.7036972E+002
3	0	2.914375959089375E+002	2.6557404E-001	-2.7036972E+002
3	0	2.919375958963064E+002	2.6510629E-001	-2.7036972E+002
3	0	2.924375958836754E+002	2.6466241E-001	-2.7038031E+002
3	0	2.929375958710443E+002	2.6421559E-001	-2.7035913E+002
3	0	2.934375958584133E+002	2.6377174E-001	-2.7034497E+002
3	0	2.939375958457822E+002	2.6332256E-001	-2.7038385E+002
3	0	2.944375958331511E+002	2.6287270E-001	-2.7037677E+002
3	0	2.949375958205201E+002	2.6239711E-001	-2.7037677E+002
3	0	2.954375958078890E+002	2.6192966E-001	-2.7039447E+002
3	0	2.959375957952579E+002	2.6149896E-001	-2.7039093E+002
3	0	2.964375957826269E+002	2.6108402E-001	-2.7039801E+002
3	0	2.969375957699958E+002	2.6066905E-001	-2.7039093E+002
3	0	2.974375957573648E+002	2.6025242E-001	-2.7038742E+002
3	0	2.979375957447337E+002	2.5984085E-001	-2.7035913E+002
3	0	2.984375957321026E+002	2.5942260E-001	-2.7037326E+002
3	0	2.989375957194716E+002	2.5899044E-001	-2.7037677E+002
3	0	2.994375957068405E+002	2.5856054E-001	-2.7035205E+002
3	0	2.999375956942094E+002	2.5817189E-001	-2.7038031E+002
3	0	3.004375956815784E+002	2.5779399E-001	-2.7037677E+002
3	0	3.009375956689473E+002	2.5741342E-001	-2.7037326E+002
3	0	3.014375956563163E+002	2.5703698E-001	-2.7039093E+002
3	0	3.019375956436852E+002	2.5666153E-001	-2.7038031E+002
3	0	3.024375956310541E+002	2.5627413E-001	-2.7038031E+002
3	0	3.029375956184231E+002	2.5586978E-001	-2.7040506E+002
3	0	3.034375956057920E+002	2.5546747E-001	-2.7040860E+002
3	0	3.039375955931610E+002	2.5510749E-001	-2.7039447E+002
3	0	3.044375955805299E+002	2.5475839E-001	-2.7040155E+002
3	0	3.049375955678988E+002	2.5440958E-001	-2.7038385E+002
3	0	3.054375955552678E+002	2.5406149E-001	-2.7036972E+002
3	0	3.059375955426367E+002	2.5371093E-001	-2.7038742E+002
3	0	3.064375955300056E+002	2.5335354E-001	-2.7038385E+002
3	0	3.069375955173746E+002	2.5298735E-001	-2.7036972E+002
3	0	3.074375955047435E+002	2.5260592E-001	-2.7039093E+002
3	0	3.079375954921125E+002	2.5227779E-001	-2.7037677E+002
3	0	3.084375954794814E+002	2.5195825E-001	-2.7036972E+002
3	0	3.089375954668503E+002	2.5163585E-001	-2.7037326E+002
3	0	3.094375954542193E+002	2.5131026E-001	-2.7036618E+002
3	0	3.099375954415882E+002	2.5098920E-001	-2.7038385E+002
3	0	3.104375954289571E+002	2.5065649E-001	-2.7039801E+002
3	0	3.109375954163261E+002	2.5030780E-001	-2.7035559E+002
3	0	3.114375954036950E+002	2.4995959E-001	-2.7039093E+002
3	0	3.119375953910640E+002	2.4966109E-001	-2.7038385E+002
3	0	3.124375953784329E+002	2.4937089E-001	-2.7039801E+002
3	0	3.129375953658018E+002	2.4907061E-001	-2.7038742E+002
3	0	3.134375953531708E+002	2.4877056E-001	-2.7035913E+002
3	0	3.139375953405397E+002	2.4847725E-001	-2.7036972E+002
3	0	3.144375953279086E+002	2.4816522E-001	-2.7036267E+002
3	0	3.149375953152776E+002	2.4784552E-001	-2.7037677E+002
3	0	3.154375953026465E+002	2.4751766E-001	-2.7039447E+002
3	0	3.159375952900155E+002	2.4723825E-001	-2.7038742E+002
3	0	3.164375952773844E+002	2.4696314E-001	-2.7038385E+002
3	0	3.169375952647533E+002	2.4669291E-001	-2.7038385E+002
3	0	3.174375952521223E+002	2.4641456E-001	-2.7037677E+002
3	0	3.179375952394912E+002	2.4614169E-001	-2.7037326E+002
3	0	3.184375952268601E+002	2.4586102E-001	-2.7035205E+002
3	0	3.189375952142291E+002	2.4556805E-001	-2.7036267E+002
3	0	3.194375952015980E+002	2.4527408E-001	-2.7037677E+002
3	0	3.199375951889670E+002	2.4501586E-001	-2.7038385E+002
3	0	3.204375951763359E+002	2.4477150E-001	-2.7037677E+002
3	0	3.209375951637048E+002	2.4452347E-001	-2.7039447E+002
3	0	3.214375951510738E+002	2.4427962E-001	-2.7036267E+002
3	0	3.219375951384427E+002	2.4403182E-001	-2.7037326E+002
3	0	3.224375951258116E+002	2.4377367E-001	-2.7036972E+002
3	0	3.229375951131806E+002	2.4349576E-001	-2.7036618E+002
3	0	3.234375951005495E+002	2.4322370E-001	-2.7038031E+002
3	0	3.239375950879185E+002	2.4299493E-001	-2.7042273E+002
3	0	3.244375950752874E+002	2.4277474E-001	-2.7038031E+002
3	0	3.249375950626563E+002	2.4254535E-001	-2.7039447E+002
3	0	3.254375950500253E+002	2.4231514E-001	-2.7038031E+002
3	0	3.259375950373942E+002	2.4209008E-001	-2.7038742E+002
3	0	3.264375950247631E+002	2.4185814E-001	-2.7036972E+002
3	0	3.269375950121321E+002	2.4160172E-001	-2.7035559E+002
3	0	3.274375949995010E+002	2.4134849E-001	-2.7038031E+002
3	0	3.279375949868700E+002	2.4113292E-001	-2.7038742E+002
3	0	3.284375949742389E+002	2.4092931E-001	-2.7035913E+002
3	0	3.289375949616078E+002	2.4071912E-001	-2.7038742E+002
3	0	3.294375949489768E+002	2.4051329E-001	-2.7039447E+002
3	0	3.299375949363457E+002	2.4030614E-001	-2.7038385E+002
3	0	3.304375949237146E+002	2.4009176E-001	-2.7040155E+002
3	0	3.309375949110836E+002	2.3985016E-001	-2.7036267E+002
3	0	3.314375948984525E+002	2.3961727E-001	-2.7037677E+002
3	0	3.319375948858215E+002	2.3942672E-001	-2.7037326E+002
3	0	3.324375948731904E+002	2.3923993E-001	-2.7036972E+002
3	0	3.329375948605593E+002	2.3905373E-001	-2.7038031E+002
3	0	3.334375948479283E+002	2.3886347E-001	-2.7038742E+002
3	0	3.339375948352972E+002	2.3867279E-001	-2.7039093E+002
3	0	3.344375948226661E+002	2.3846331E-001	-2.7038742E+002
3	0	3.349375948100351E+002	2.3823588E-001	-2.7036618E+002
3	0	3.354375947974040E+002	2.3801190E-001	-2.7038385E+002
3	0	3.359375947847730E+002	2.3783207E-001	-2.7038031E+002
3	0	3.364375947721419E+002	2.3765872E-001	-2.7038385E+002
3	0	3.369375947595108E+002	2.3747796E-001	-2.7037677E+002
3	0	3.374375947468798E+002	2.3729388E-001	-2.7037677E+002
3	0	3.379375947342487E+002	2.3711601E-001	-2.7036972E+002
3	0	3.384375947216176E+002	2.3692718E-001	-2.7039447E+002
3	0	3.389375947089866E+002	2.3670976E-001	-2.7034851E+002
3	0	3.394375946963555E+002	2.3649889E-001	-2.7037677E+002
3	0	3.399375946837245E+002	2.3633407E-001	-2.7038031E+002
3	0	3.404375946710934E+002	2.3617308E-001	-2.7035205E+002
3	0	3.409375946584623E+002	2.3601115E-001	-2.7039447E+002
3	0	3.414375946458313E+002	2.3584586E-001	-2.7040506E+002
3	0	3.419375946332002E+002	2.3568451E-001	-2.7038031E+002
3	0	3.424375946205691E+002	2.3551434E-001	-2.7038031E+002
3	0	3.429375946079381E+002	2.3532298E-001	-2.7035205E+002
3	0	3.434375945953070E+002	2.3513585E-001	-2.7040506E+002
3	0	3.439375945826760E+002	2.3498480E-001	-2.7038385E+002
3	0	3.444375945700449E+002	2.3484020E-001	-2.7037677E+002
3	0	3.449375945574138E+002	2.3469336E-001	-2.7037677E+002
3	0	3.454375945447828E+002	2.3454249E-001	-2.7038385E+002
3	0	3.459375945321517E+002	2.3439224E-001	-2.7037677E+002
3	0	3.464375945195206E+002	2.3422828E-001	-2.7039447E+002
3	0	3.469375945068896E+002	2.3404540E-001	-2.7036267E+002
3	0	3.474375944942585E+002	2.3386288E-001	-2.7037677E+002
3	0	3.479375944816275E+002	2.3371935E-001	-2.7037677E+002
3	0	3.484375944689964E+002	2.3357958E-001	-2.7036972E+002
3	0	3.489375944563653E+002	2.3344034E-001	-2.7039447E+002
3	0	3.494375944437343E+002	2.3330672E-001	-2.7036972E+002
3	0	3.499375944311032E+002	2.3316857E-001	-2.7039801E+002
3	0	3.504375944184721E+002	2.3301910E-001	-2.7039801E+002
3	0	3.509375944058411E+002	2.3284268E-001	-2.7038031E+002
3	0	3.514375943932100E+002	2.3266882E-001	-2.7038742E+002
3	0	3.519375943805790E+002	2.3253812E-001	-2.7037326E+002
3	0	3.524375943679479E+002	2.3240809E-001	-2.7037326E+002
3	0	3.529375943553168E+002	2.3228112E-001	-2.7037326E+002
3	0	3.534375943426858E+002	2.3215453E-001	-2.7036972E+002
3	0	3.539375943300547E+002	2.3202537E-001	-2.7037326E+002
3	0	3.544375943174236E+002	2.3187716E-001	-2.7036972E+002
3	0	3.549375943047926E+002	2.3170792E-001	-2.7037677E+002
3	0	3.554375942921615E+002	2.3153932E-001	-2.7038742E+002
3	0	3.559375942795305E+002	2.3141015E-001	-2.7036972E+002
3	0	3.564375942668994E+002	2.3128854E-001	-2.7037677E+002
3	0	3.569375942542683E+002	2.3116615E-001	-2.7039447E+002
3	0	3.574375942416373E+002	2.3104440E-001	-2.7036618E+002
3	0	3.579375942290062E+002	2.3091844E-001	-2.7038031E+002
3	0	3.584375942163751E+002	2.3077823E-001	-2.7038031E+002
3	0	3.589375942037441E+002	2.3062013E-001	-2.7037677E+002
3	0	3.594375941911130E+002	2.3045772E-001	-2.7038031E+002
3	0	3.599375941784820E+002	2.3034076E-001	-2.7038742E+002
3	0	3.604375941658509E+002	2.3022814E-001	-2.7039801E+002
3	0	3.609375941532198E+002	2.3011425E-001	-2.7038031E+002
3	0	3.614375941405888E+002	2.3000446E-001	-2.7037677E+002
3	0	3.619375941279577E+002	2.2989123E-001	-2.7035913E+002
3	0	3.624375941153266E+002	2.2976342E-001	-2.7037677E+002
3	0	3.629375941026956E+002	2.2961172E-001	-2.7039801E+002
3	0	3.634375940900645E+002	2.2946276E-001	-2.7039093E+002
3	0	3.639375940774335E+002	2.2935343E-001	-2.7038742E+002
3	0	3.644375940648024E+002	2.2925873E-001	-2.7038031E+002
3	0	3.649375940521713E+002	2.2915243E-001	-2.7037326E+002
3	0	3.654375940395403E+002	2.2904515E-001	-2.7039093E+002
3	0	3.659375940269092E+002	2.2894189E-001	-2.7036618E+002
3	0	3.664375940142781E+002	2.2882442E-001	-2.7035913E+002
3	0	3.669375940016471E+002	2.2868033E-001	-2.7034143E+002
3	0	3.674375939890160E+002	2.2853898E-001	-2.7037326E+002
3	0	3.679375939763850E+002	2.2843678E-001	-2.7037326E+002
3	0	3.684375939637539E+002	2.2834481E-001	-2.7036618E+002
3	0	3.689375939511228E+002	2.2825220E-001	-2.7042627E+002
3	0	3.694375939384918E+002	2.2815372E-001	-2.7037326E+002
3	0	3.699375939258607E+002	2.2805026E-001	-2.7036618E+002
3	0	3.704375939132296E+002	2.2793375E-001	-2.7037677E+002
3	0	3.709375939005986E+002	2.2779125E-001	-2.7037677E+002
3	0	3.714375938879675E+002	2.2765772E-001	-2.7036618E+002
3	0	3.719375938753365E+002	2.2756264E-001	-2.7038031E+002
3	0	3.724375938627054E+002	2.2747357E-001	-2.7035559E+002
3	0	3.729375938500743E+002	2.2738107E-001	-2.7037326E+002
3	0	3.734375938374433E+002	2.2728848E-001	-2.7040155E+002
3	0	3.739375938248122E+002	2.2719239E-001	-2.7037326E+002
3	0	3.744375938121811E+002	2.2707994E-001	-2.7037326E+002
3	0	3.749375937995501E+002	2.2694972E-001	-2.7038031E+002
3	0	3.754375937869190E+002	2.2682001E-001	-2.7036618E+002
3	0	3.759375937742880E+002	2.2672834E-001	-2.7036972E+002
3	0	3.764375937616569E+002	2.2663985E-001	-2.7038385E+002
3	0	3.769375937490258E+002	2.2654901E-001	-2.7038031E+002
3	0	3.774375937363948E+002	2.2645685E-001	-2.7038031E+002
3	0	3.779375937237637E+002	2.2636171E-001	-2.7037677E+002
3	0	3.784375937111326E+002	2.2624959E-001	-2.7039447E+002
3	0	3.789375936985016E+002	2.2612613E-001	-2.7038031E+002
3	0	3.794375936858705E+002	2.2599532E-001	-2.7037677E+002
3	0	3.799375936732395E+002	2.2590975E-001	-2.7038742E+002
3	0	3.804375936606084E+002	2.2584184E-001	-2.7038031E+002
3	0	3.809375936479773E+002	2.2576585E-001	-2.7039093E+002
3	0	3.814375936353463E+002	2.2569154E-001	-2.7036972E+002
3	0	3.819375936227152E+002	2.2560614E-001	-2.7038031E+002
3	0	3.824375936100842E+002	2.2550569E-001	-2.7036972E+002
3	0	3.829375935974531E+002	2.2538403E-001	-2.7039447E+002
3	0	3.834375935848220E+002	2.2525531E-001	-2.7038031E+002
3	0	3.839375935721910E+002	2.2517681E-001	-2.7039093E+002
3	0	3.844375935595599E+002	2.2511603E-001	-2.7035559E+002
3	0	3.849375935469288E+002	2.2507378E-001	-2.7037326E+002
3	0	3.854375935342978E+002	2.2501060E-001	-2.7036972E+002
3	0	3.859375935216667E+002	2.2494692E-001	-2.7037326E+002
3	0	3.864375935090357E+002	2.2486596E-001	-2.7036267E+002
3	0	3.869375934964046E+002	2.2476500E-001	-2.7037326E+002
3	0	3.874375934837735E+002	2.2465922E-001	-2.7036618E+002
3	0	3.879375934711425E+002	2.2459701E-001	-2.7038031E+002
3	0	3.884375934585114E+002	2.2453436E-001	-2.7037677E+002
3	0	3.889375934458803E+002	2.2447206E-001	-2.7035913E+002
3	0	3.894375934332493E+002	2.2439922E-001	-2.7040860E+002
3	0	3.899375934206182E+002	2.2432368E-001	-2.7038031E+002
3	0	3.904375934079872E+002	2.2424035E-001	-2.7036972E+002
3	0	3.909375933953561E+002	2.2413233E-001	-2.7039447E+002
3	0	3.914375933827250E+002	2.2401947E-001	-2.7035559E+002
3	0	3.919375933700940E+002	2.2395848E-001	-2.7039801E+002
3	0	3.924375933574629E+002	2.2389840E-001	-2.7037677E+002
3	0	3.929375933448318E+002	2.2383139E-001	-2.7034851E+002
3	0	3.934375933322008E+002	2.2376598E-001	-2.7040506E+002
3	0	3.939375933195697E+002	2.2369269E-001	-2.7041568E+002
3	0	3.944375933069387E+002	2.2361016E-001	-2.7039447E+002
3	0	3.949375932943076E+002	2.2350258E-001	-2.7035205E+002
3	0	3.954375932816765E+002	2.2339654E-001	-2.7039093E+002
3	0	3.959375932690455E+002	2.2332658E-001	-2.7040860E+002
3	0	3.964375932564144E+002	2.2326341E-001	-2.7038742E+002
3	0	3.969375932437833E+002	2.2319385E-001	-2.7036972E+002
3	0	3.974375932311523E+002	2.2312154E-001	-2.7038031E+002
3	0	3.979375932185212E+002	2.2305475E-001	-2.7038031E+002
3	0	3.984375932058902E+002	2.2297496E-001	-2.7034851E+002
3	0	3.989375931932591E+002	2.2286393E-001	-2.7039093E+002
3	0	3.994375931806280E+002	2.2275391E-001	-2.7037326E+002
3	0	3.999375931679970E+002	2.2268774E-001	-2.7037326E+002
3	0	4.004375931553659E+002	2.2262728E-001	-2.7038385E+002
3	0	4.009375931427348E+002	2.2256675E-001	-2.7038742E+002
3	0	4.014375931301038E+002	2.2250070E-001	-2.7036972E+002
3	0	4.019375931174727E+002	2.2244027E-001	-2.7039801E+002
3	0	4.024375931048417E+002	2.2236185E-001	-2.7036972E+002
3	0	4.029375930922106E+002	2.2226150E-001	-2.7036618E+002
3	0	4.034375930795795E+002	2.2215950E-001	-2.7037677E+002
3	0	4.039375930669485E+002	2.2209950E-001	-2.7038385E+002
3	0	4.044375930543174E+002	2.2204795E-001	-2.7038031E+002
3	0	4.049375930416863E+002	2.2199059E-001	-2.7038385E+002
3	0	4.054375930290553E+002	2.2193395E-001	-2.7036618E+002
3	0	4.059375930164242E+002	2.2186966E-001	-2.7037677E+002
3	0	4.064375930037932E+002	2.2178851E-001	-2.7039801E+002
3	0	4.069375929911621E+002	2.2168690E-001	-2.7039093E+002
3	0	4.074375929785310E+002	2.2158375E-001	-2.7039093E+002
3	0	4.079375929659000E+002	2.2152498E-001	-2.7038031E+002
3	0	4.084375929532689E+002	2.2147250E-001	-2.7038385E+002
3	0	4.089375929406378E+002	2.2141778E-001	-2.7035559E+002
3	0	4.094375929280068E+002	2.2136229E-001	-2.7037677E+002
3	0	4.099375929153757E+002	2.2130263E-001	-2.7038385E+002
3	0	4.104375929027447E+002	2.2123066E-001	-2.7036267E+002
3	0	4.109375928901136E+002	2.2113341E-001	-2.7038031E+002
3	0	4.114375928774825E+002	2.2104026E-001	-2.7040860E+002
3	0	4.119375928648515E+002	2.2098856E-001	-2.7038031E+002
3	0	4.124375928522204E+002	2.2093764E-001	-2.7035205E+002
3	0	4.129375928395893E+002	2.2088525E-001	-2.7039801E+002
3	0	4.134375928269583E+002	2.2082721E-001	-2.7036618E+002
3	0	4.139375928143272E+002	2.2077133E-001	-2.7038385E+002
3	0	4.144375928016962E+002	2.2069769E-001	-2.7036972E+002
3	0	4.149375927890651E+002	2.2060472E-001	-2.7039801E+002
3	0	4.154375927764340E+002	2.2050697E-001	-2.7039093E+002
3	0	4.159375927638030E+002	2.2044998E-001	-2.7039447E+002
3	0	4.164375927511719E+002	2.2040121E-001	-2.7039447E+002
3	0	4.169375927385408E+002	2.2034493E-001	-2.7039093E+002
3	0	4.174375927259098E+002	2.2028759E-001	-2.7038742E+002
3	0	4.179375927132787E+002	2.2022298E-001	-2.7037677E+002
3	0	4.184375927006477E+002	2.2014906E-001	-2.7037326E+002
3	0	4.189375926880166E+002	2.2005264E-001	-2.7036618E+002
3	0	4.194375926753855E+002	2.1995251E-001	-2.7037677E+002
3	0	4.199375926627545E+002	2.1990018E-001	-2.7038385E+002
3	0	4.204375926501234E+002	2.1984977E-001	-2.7040155E+002
3	0	4.209375926374923E+002	2.1980155E-001	-2.7036972E+002
3	0	4.214375926248613E+002	2.1974429E-001	-2.7040155E+002
3	0	4.219375926122302E+002	2.1969423E-001	-2.7038385E+002
3	0	4.224375925995992E+002	2.1963009E-001	-2.7039801E+002
3	0	4.229375925869681E+002	2.1953905E-001	-2.7037326E+002
3	0	4.234375925743370E+002	2.1944593E-001	-2.7035913E+002
3	0	4.239375925617060E+002	2.1940221E-001	-2.7036267E+002
3	0	4.244375925490749E+002	2.1935184E-001	-2.7038385E+002
3	0	4.249375925364438E+002	2.1930577E-001	-2.7034851E+002
3	0	4.254375925238128E+002	2.1925953E-001	-2.7038031E+002
3	0	4.259375925111817E+002	2.1920151E-001	-2.7036972E+002
3	0	4.264375924985507E+002	2.1914311E-001	-2.7036267E+002
3	0	4.269375924859196E+002	2.1905474E-001	-2.7038742E+002
3	0	4.274375924732885E+002	2.1896514E-001	-2.7040155E+002
3	0	4.279375924606575E+002	2.1891725E-001	-2.7037326E+002
3	0	4.284375924480264E+002	2.1887535E-001	-2.7038031E+002
3	0	4.289375924353953E+002	2.1883553E-001	-2.7038742E+002
3	0	4.294375924227643E+002	2.1879303E-001	-2.7037326E+002
3	0	4.299375924101332E+002	2.1874765E-001	-2.7036972E+002
3	0	4.304375923975022E+002	2.1868095E-001	-2.7036972E+002
3	0	4.309375923848711E+002	2.1859701E-001	-2.7038742E+002
3	0	4.314375923722400E+002	2.1850656E-001	-2.7038385E+002
3	0	4.319375923596090E+002	2.1846619E-001	-2.7037677E+002
3	0	4.324375923469779E+002	2.1842372E-001	-2.7040506E+002
3	0	4.329375923343468E+002	2.1838342E-001	-2.7038031E+002
3	0	4.334375923217158E+002	2.1834250E-001	-2.7035913E+002
3	0	4.339375923090847E+002	2.1829638E-001	-2.7040860E+002
3	0	4.344375922964537E+002	2.1823382E-001	-2.7038385E+002
3	0	4.349375922838226E+002	2.1814854E-001	-2.7038742E+002
3	0	4.354375922711915E+002	2.1805818E-001	-2.7039093E+002
3	0	4.359375922585605E+002	2.1801025E-001	-2.7037326E+002
3	0	4.364375922459294E+002	2.1796428E-001	-2.7037677E+002
3	0	4.369375922332983E+002	2.1792038E-001	-2.7037677E+002
3	0	4.374375922206673E+002	2.1787399E-001	-2.7035913E+002
3	0	4.379375922080362E+002	2.1782215E-001	-2.7039801E+002
3	0	4.384375921954052E+002	2.1776165E-001	-2.7036618E+002
3	0	4.389375921827741E+002	2.1767487E-001	-2.7036972E+002
3	0	4.394375921701430E+002	2.1758229E-001	-2.7039093E+002
3	0	4.399375921575120E+002	2.1753556E-001	-2.7037326E+002
3	0	4.404375921448809E+002	2.1749960E-001	-2.7037677E+002
3	0	4.409375921322498E+002	2.1746032E-001	-2.7036972E+002
3	0	4.414375921196188E+002	2.1742265E-001	-2.7038385E+002
3	0	4.419375921069877E+002	2.1738133E-001	-2.7039447E+002
3	0	4.424375920943567E+002	2.1732062E-001	-2.7038031E+002
3	0	4.429375920817256E+002	2.1723859E-001	-2.7038742E+002
3	0	4.434375920690945E+002	2.1715993E-001	-2.7038385E+002
3	0	4.439375920564635E+002	2.1711752E-001	-2.7039447E+002
3	0	4.444375920438324E+002	2.1708581E-001	-2.7039093E+002
3	0	4.449375920312013E+002	2.1704598E-001	-2.7038031E+002
3	0	4.454375920185703E+002	2.1700418E-001	-2.7036618E+002
3	0	4.459375920059392E+002	2.1695843E-001	-2.7035559E+002
3	0	4.464375919933082E+002	2.1688429E-001	-2.7039093E+002
3	0	4.469375919806771E+002	2.1681629E-001	-2.7036972E+002
3	0	4.474375919680460E+002	2.1674860E-001	-2.7039093E+002
3	0	4.479375919554150E+002	2.1672335E-001	-2.7038385E+002
3	0	4.484375919427839E+002	2.1668921E-001	-2.7039093E+002
3	0	4.489375919301528E+002	2.1665379E-001	-2.7041919E+002
3	0	4.494375919175218E+002	2.1661969E-001	-2.7037326E+002
3	0	4.499375919048907E+002	2.1658435E-001	-2.7038742E+002
3	0	4.499609919042996E+002	2.1655932E-001	-2.7038385E+002