EC-Lab ASCII FILE
Nb header lines : 55                          

Open Circuit Voltage

Run on channel : 1 (SN 81504)
User : 
CE vs. WE compliance from -10 V to 10 V
Electrode connection : standard
Potential control : Ewe
Ewe ctrl range : min = -2.50 V, max = 2.50 V
Safety Limits :
	Do not start on E overload
Acquisition started on : 05/07/2026 22:17:50.137
Loaded Setting File :  C:\PEM-WE_measurements\2026\372_IV_IV IrOx, 5 min Pt, 30 min C, etched cathode\new station\Loopeis new\1,46 V different time gaps open cell\Loopeis 1,46V_120s_5_PEIS from 65Hz to 10Hz.mps
Saved on :
	File : L_25_Loopeis 1,46V_120s_5_PEIS from 65Hz to 10Hz_12_OCV_C01.mpr
	Directory : C:\PEM-WE_measurements\2026\372_IV_IV IrOx, 5 min Pt, 30 min C, etched cathode\new station\Loopeis new\1,46 V different time gaps open cell\
	Host : 192.168.0.2
Device : SP-150e (SN .005491)
Address : 192.168.0.91
EC-LAB for windows v11.71 (software)
Internet server v28.00 (firmware)
Command interpretor v14.01 (firmware)
Electrode material : 
Initial state : 
Electrolyte : 
Comments : 
Current amplifier : SP-150eB-20A
Electrode surface area : 0.001 cm²
Characteristic mass : 0.001 g
Equivalent Weight : 0.000 g/eq.
Density : 0.000 g/cm3
Volume (V) : 0.001 cm³
Record Analogic IN 1
Text export
   Mode : Standard
   Time format : Elapsed
Cycle Definition : Charge/Discharge alternance
External device configuration :
   device type : Temperature Probe
   device name : Other
   Analog IN 1 : 
      unit : T/Â°C
      max : 100.000 at 2.000 V
      min : 0.000 at 1.460 V
tR (h:m:s)          0:02:0.0000         
dER/dt (mV/h)       1.0                 
record              <Ewe>               
dER (mV)            10.00               
dtR (s)             0.5000              
E range min (V)     -2.500              
E range max (V)     2.500               

mode	error	time/s	<Ewe/V>	Analog IN 1/V	
3	0	9.365489909704775E+002	1.2395754E+000	-2.7038031E+002
3	0	9.370489909578464E+002	1.2135030E+000	-2.7036267E+002
3	0	9.375489909452153E+002	1.0228060E+000	-2.7037677E+002
3	0	9.380489909325843E+002	5.2642858E-001	-2.7039447E+002
3	0	9.385489909199532E+002	3.5834190E-001	-2.7038031E+002
3	0	9.390489909073222E+002	3.3637378E-001	-2.7038385E+002
3	0	9.395489908946911E+002	3.2774636E-001	-2.7037326E+002
3	0	9.400489908820600E+002	3.2083836E-001	-2.7036267E+002
3	0	9.405489908694290E+002	3.1555778E-001	-2.7039447E+002
3	0	9.410489908567979E+002	3.1157809E-001	-2.7036618E+002
3	0	9.415489908441668E+002	3.0850077E-001	-2.7037677E+002
3	0	9.420489908315358E+002	3.0604711E-001	-2.7038385E+002
3	0	9.425489908189047E+002	3.0403924E-001	-2.7036618E+002
3	0	9.430489908062737E+002	3.0235669E-001	-2.7040860E+002
3	0	9.435489907936426E+002	3.0089313E-001	-2.7039093E+002
3	0	9.440489907810115E+002	2.9958293E-001	-2.7036267E+002
3	0	9.445489907683805E+002	2.9842538E-001	-2.7038385E+002
3	0	9.450489907557494E+002	2.9740942E-001	-2.7038742E+002
3	0	9.455489907431183E+002	2.9647961E-001	-2.7038031E+002
3	0	9.460489907304873E+002	2.9561940E-001	-2.7035913E+002
3	0	9.465489907178562E+002	2.9481202E-001	-2.7038031E+002
3	0	9.470489907052252E+002	2.9404896E-001	-2.7040155E+002
3	0	9.475489906925941E+002	2.9330280E-001	-2.7039093E+002
3	0	9.480489906799630E+002	2.9256177E-001	-2.7038742E+002
3	0	9.485489906673320E+002	2.9185304E-001	-2.7038031E+002
3	0	9.490489906547009E+002	2.9119354E-001	-2.7038742E+002
3	0	9.495489906420698E+002	2.9056728E-001	-2.7037326E+002
3	0	9.500489906294388E+002	2.8995165E-001	-2.7039801E+002
3	0	9.505489906168077E+002	2.8935260E-001	-2.7038742E+002
3	0	9.510489906041767E+002	2.8876460E-001	-2.7036267E+002
3	0	9.515489905915456E+002	2.8817230E-001	-2.7035913E+002
3	0	9.520489905789145E+002	2.8755066E-001	-2.7035559E+002
3	0	9.525489905662835E+002	2.8694743E-001	-2.7036267E+002
3	0	9.530489905536524E+002	2.8638557E-001	-2.7038031E+002
3	0	9.535489905410213E+002	2.8584418E-001	-2.7038031E+002
3	0	9.540489905283903E+002	2.8530905E-001	-2.7039093E+002
3	0	9.545489905157592E+002	2.8477246E-001	-2.7037326E+002
3	0	9.550489905031282E+002	2.8424904E-001	-2.7038742E+002
3	0	9.555489904904971E+002	2.8369987E-001	-2.7036618E+002
3	0	9.560489904778660E+002	2.8313974E-001	-2.7038385E+002
3	0	9.565489904652350E+002	2.8259057E-001	-2.7038742E+002
3	0	9.570489904526039E+002	2.8209174E-001	-2.7038385E+002
3	0	9.575489904399728E+002	2.8159183E-001	-2.7039093E+002
3	0	9.580489904273418E+002	2.8109023E-001	-2.7039447E+002
3	0	9.585489904147107E+002	2.8060022E-001	-2.7039093E+002
3	0	9.590489904020797E+002	2.8010875E-001	-2.7036972E+002
3	0	9.595489903894486E+002	2.7960658E-001	-2.7036618E+002
3	0	9.600489903768175E+002	2.7909341E-001	-2.7037326E+002
3	0	9.605489903641865E+002	2.7858695E-001	-2.7038031E+002
3	0	9.610489903515554E+002	2.7811995E-001	-2.7036972E+002
3	0	9.615489903389243E+002	2.7765208E-001	-2.7036618E+002
3	0	9.620489903262933E+002	2.7719405E-001	-2.7036972E+002
3	0	9.625489903136622E+002	2.7674028E-001	-2.7038031E+002
3	0	9.630489903010312E+002	2.7627569E-001	-2.7036618E+002
3	0	9.635489902884001E+002	2.7580974E-001	-2.7038031E+002
3	0	9.640489902757690E+002	2.7532399E-001	-2.7038742E+002
3	0	9.645489902631380E+002	2.7485228E-001	-2.7037326E+002
3	0	9.650489902505069E+002	2.7442691E-001	-2.7039093E+002
3	0	9.655489902378758E+002	2.7400279E-001	-2.7037326E+002
3	0	9.660489902252448E+002	2.7358389E-001	-2.7038385E+002
3	0	9.665489902126137E+002	2.7315897E-001	-2.7037326E+002
3	0	9.670489901999827E+002	2.7273405E-001	-2.7036267E+002
3	0	9.675489901873516E+002	2.7230594E-001	-2.7039093E+002
3	0	9.680489901747205E+002	2.7186054E-001	-2.7037677E+002
3	0	9.685489901620895E+002	2.7141726E-001	-2.7037326E+002
3	0	9.690489901494584E+002	2.7101895E-001	-2.7041214E+002
3	0	9.695489901368273E+002	2.7063054E-001	-2.7036267E+002
3	0	9.700489901241963E+002	2.7023238E-001	-2.7035205E+002
3	0	9.705489901115652E+002	2.6984382E-001	-2.7036972E+002
3	0	9.710489900989342E+002	2.6946163E-001	-2.7038385E+002
3	0	9.715489900863031E+002	2.6906398E-001	-2.7036267E+002
3	0	9.720489900736720E+002	2.6864791E-001	-2.7038385E+002
3	0	9.725489900610410E+002	2.6824358E-001	-2.7036972E+002
3	0	9.730489900484099E+002	2.6788554E-001	-2.7036972E+002
3	0	9.735489900357788E+002	2.6751959E-001	-2.7036618E+002
3	0	9.740489900231478E+002	2.6715767E-001	-2.7037677E+002
3	0	9.745489900105167E+002	2.6679686E-001	-2.7036618E+002
3	0	9.750489899978857E+002	2.6644298E-001	-2.7036618E+002
3	0	9.755489899852546E+002	2.6607496E-001	-2.7039093E+002
3	0	9.760489899726235E+002	2.6568922E-001	-2.7036972E+002
3	0	9.765489899599925E+002	2.6531446E-001	-2.7039801E+002
3	0	9.770489899473614E+002	2.6497507E-001	-2.7037326E+002
3	0	9.775489899347303E+002	2.6465425E-001	-2.7038385E+002
3	0	9.780489899220993E+002	2.6432770E-001	-2.7038742E+002
3	0	9.785489899094682E+002	2.6399773E-001	-2.7038742E+002
3	0	9.790489898968372E+002	2.6367083E-001	-2.7039801E+002
3	0	9.795489898842061E+002	2.6332971E-001	-2.7034851E+002
3	0	9.800489898715750E+002	2.6296750E-001	-2.7039801E+002
3	0	9.805489898589440E+002	2.6262140E-001	-2.7036267E+002
3	0	9.810489898463129E+002	2.6231208E-001	-2.7039447E+002
3	0	9.815489898336818E+002	2.6201051E-001	-2.7038031E+002
3	0	9.820489898210508E+002	2.6169994E-001	-2.7035559E+002
3	0	9.825489898084197E+002	2.6139054E-001	-2.7037326E+002
3	0	9.830489897957887E+002	2.6108444E-001	-2.7039093E+002
3	0	9.835489897831576E+002	2.6076794E-001	-2.7038385E+002
3	0	9.840489897705265E+002	2.6043400E-001	-2.7038031E+002
3	0	9.845489897578955E+002	2.6011205E-001	-2.7037677E+002
3	0	9.850489897452644E+002	2.5983149E-001	-2.7038742E+002
3	0	9.855489897326333E+002	2.5955862E-001	-2.7038031E+002
3	0	9.860489897200023E+002	2.5928050E-001	-2.7040155E+002
3	0	9.865489897073712E+002	2.5900453E-001	-2.7036618E+002
3	0	9.870489896947402E+002	2.5872663E-001	-2.7037677E+002
3	0	9.875489896821091E+002	2.5843075E-001	-2.7036267E+002
3	0	9.880489896694780E+002	2.5812644E-001	-2.7037326E+002
3	0	9.885489896568470E+002	2.5783402E-001	-2.7037326E+002
3	0	9.890489896442159E+002	2.5758308E-001	-2.7038385E+002
3	0	9.895489896315848E+002	2.5733152E-001	-2.7036972E+002
3	0	9.900489896189538E+002	2.5707906E-001	-2.7037326E+002
3	0	9.905489896063227E+002	2.5682971E-001	-2.7036618E+002
3	0	9.910489895936917E+002	2.5657845E-001	-2.7038031E+002
3	0	9.915489895810606E+002	2.5631338E-001	-2.7035559E+002
3	0	9.920489895684295E+002	2.5603166E-001	-2.7036267E+002
3	0	9.925489895557985E+002	2.5576031E-001	-2.7040506E+002
3	0	9.930489895431674E+002	2.5553560E-001	-2.7038385E+002
3	0	9.935489895305363E+002	2.5530845E-001	-2.7036972E+002
3	0	9.940489895179053E+002	2.5508335E-001	-2.7036618E+002
3	0	9.945489895052742E+002	2.5485960E-001	-2.7036972E+002
3	0	9.950489894926432E+002	2.5463268E-001	-2.7038742E+002
3	0	9.955489894800121E+002	2.5439259E-001	-2.7038742E+002
3	0	9.960489894673810E+002	2.5413752E-001	-2.7036618E+002
3	0	9.965489894547500E+002	2.5388280E-001	-2.7036618E+002
3	0	9.970489894421189E+002	2.5368538E-001	-2.7038742E+002
3	0	9.975489894294878E+002	2.5348267E-001	-2.7039093E+002
3	0	9.980489894168568E+002	2.5327072E-001	-2.7039801E+002
3	0	9.985489894042257E+002	2.5306705E-001	-2.7036972E+002
3	0	9.990489893915947E+002	2.5285652E-001	-2.7037326E+002
3	0	9.995489893789636E+002	2.5262940E-001	-2.7036267E+002
3	0	1.000048989366333E+003	2.5239354E-001	-2.7038031E+002
3	0	1.000548989353701E+003	2.5216040E-001	-2.7037677E+002
3	0	1.001048989341070E+003	2.5197315E-001	-2.7038031E+002
3	0	1.001548989328439E+003	2.5178975E-001	-2.7040155E+002
3	0	1.002048989315808E+003	2.5160640E-001	-2.7038031E+002
3	0	1.002548989303177E+003	2.5141460E-001	-2.7038031E+002
3	0	1.003048989290546E+003	2.5122544E-001	-2.7036267E+002
3	0	1.003548989277915E+003	2.5101843E-001	-2.7040155E+002
3	0	1.004048989265284E+003	2.5078598E-001	-2.7039447E+002
3	0	1.004548989252653E+003	2.5056854E-001	-2.7036972E+002
3	0	1.005048989240022E+003	2.5039339E-001	-2.7033438E+002
3	0	1.005548989227391E+003	2.5022072E-001	-2.7039093E+002
3	0	1.006048989214760E+003	2.5004277E-001	-2.7039801E+002
3	0	1.006548989202129E+003	2.4987118E-001	-2.7038742E+002
3	0	1.007048989189498E+003	2.4968812E-001	-2.7038385E+002
3	0	1.007548989176867E+003	2.4949549E-001	-2.7037677E+002
3	0	1.008048989164236E+003	2.4927850E-001	-2.7036972E+002
3	0	1.008548989151604E+003	2.4907501E-001	-2.7039801E+002
3	0	1.009048989138973E+003	2.4891366E-001	-2.7035559E+002
3	0	1.009548989126342E+003	2.4875240E-001	-2.7038031E+002
3	0	1.010048989113711E+003	2.4858554E-001	-2.7035205E+002
3	0	1.010548989101080E+003	2.4841405E-001	-2.7037326E+002
3	0	1.011048989088449E+003	2.4824634E-001	-2.7038031E+002
3	0	1.011548989075818E+003	2.4806769E-001	-2.7038031E+002
3	0	1.012048989063187E+003	2.4787258E-001	-2.7036618E+002
3	0	1.012548989050556E+003	2.4768668E-001	-2.7037326E+002
3	0	1.013048989037925E+003	2.4753758E-001	-2.7037677E+002
3	0	1.013548989025294E+003	2.4739537E-001	-2.7038385E+002
3	0	1.014048989012663E+003	2.4724920E-001	-2.7038742E+002
3	0	1.014548989000032E+003	2.4710050E-001	-2.7037677E+002
3	0	1.015048988987401E+003	2.4695331E-001	-2.7037677E+002
3	0	1.015548988974770E+003	2.4678549E-001	-2.7039447E+002
3	0	1.016048988962139E+003	2.4660102E-001	-2.7037326E+002
3	0	1.016548988949507E+003	2.4642919E-001	-2.7039093E+002
3	0	1.017048988936876E+003	2.4630092E-001	-2.7038742E+002
3	0	1.017548988924245E+003	2.4616823E-001	-2.7037677E+002
3	0	1.018048988911614E+003	2.4603431E-001	-2.7038031E+002
3	0	1.018548988898983E+003	2.4590106E-001	-2.7039093E+002
3	0	1.019048988886352E+003	2.4576220E-001	-2.7036267E+002
3	0	1.019548988873721E+003	2.4561451E-001	-2.7039801E+002
3	0	1.020048988861090E+003	2.4544120E-001	-2.7037326E+002
3	0	1.020548988848459E+003	2.4527943E-001	-2.7036618E+002
3	0	1.021048988835828E+003	2.4515598E-001	-2.7038385E+002
3	0	1.021548988823197E+003	2.4503544E-001	-2.7036972E+002
3	0	1.022048988810566E+003	2.4490763E-001	-2.7037677E+002
3	0	1.022548988797935E+003	2.4477948E-001	-2.7034497E+002
3	0	1.023048988785304E+003	2.4465337E-001	-2.7037326E+002
3	0	1.023548988772673E+003	2.4450953E-001	-2.7037326E+002
3	0	1.024048988760042E+003	2.4434371E-001	-2.7036618E+002
3	0	1.024548988747410E+003	2.4418940E-001	-2.7036618E+002
3	0	1.025048988734779E+003	2.4407563E-001	-2.7037677E+002
3	0	1.025548988722148E+003	2.4396519E-001	-2.7038031E+002
3	0	1.026048988709517E+003	2.4384828E-001	-2.7036267E+002
3	0	1.026548988696886E+003	2.4372464E-001	-2.7036972E+002
3	0	1.027048988684255E+003	2.4360403E-001	-2.7037677E+002
3	0	1.027548988671624E+003	2.4346273E-001	-2.7039801E+002
3	0	1.028048988658993E+003	2.4330628E-001	-2.7038385E+002
3	0	1.028548988646362E+003	2.4316210E-001	-2.7038031E+002
3	0	1.029048988633731E+003	2.4305606E-001	-2.7037326E+002
3	0	1.029548988621100E+003	2.4295378E-001	-2.7039447E+002
3	0	1.030048988608469E+003	2.4284311E-001	-2.7038742E+002
3	0	1.030548988595838E+003	2.4273366E-001	-2.7037677E+002
3	0	1.031048988583207E+003	2.4262957E-001	-2.7040155E+002
3	0	1.031548988570576E+003	2.4250004E-001	-2.7040506E+002
3	0	1.032048988557945E+003	2.4234813E-001	-2.7037326E+002
3	0	1.032548988545313E+003	2.4221417E-001	-2.7036618E+002
3	0	1.033048988532682E+003	2.4212028E-001	-2.7038385E+002
3	0	1.033548988520051E+003	2.4202316E-001	-2.7039801E+002
3	0	1.034048988507420E+003	2.4192677E-001	-2.7039447E+002
3	0	1.034548988494789E+003	2.4182896E-001	-2.7037677E+002
3	0	1.035048988482158E+003	2.4172238E-001	-2.7038742E+002
3	0	1.035548988469527E+003	2.4160524E-001	-2.7036972E+002
3	0	1.036048988456896E+003	2.4146692E-001	-2.7040860E+002
3	0	1.036548988444265E+003	2.4133380E-001	-2.7036618E+002
3	0	1.037048988431634E+003	2.4124469E-001	-2.7037677E+002
3	0	1.037548988419003E+003	2.4115470E-001	-2.7038031E+002
3	0	1.038048988406372E+003	2.4106324E-001	-2.7038385E+002
3	0	1.038548988393741E+003	2.4096869E-001	-2.7038385E+002
3	0	1.039048988381110E+003	2.4087042E-001	-2.7037326E+002
3	0	1.039548988368479E+003	2.4076070E-001	-2.7039093E+002
3	0	1.040048988355848E+003	2.4062768E-001	-2.7036618E+002
3	0	1.040548988343216E+003	2.4050339E-001	-2.7038031E+002
3	0	1.041048988330585E+003	2.4041793E-001	-2.7036618E+002
3	0	1.041548988317954E+003	2.4033466E-001	-2.7036618E+002
3	0	1.042048988305323E+003	2.4024950E-001	-2.7036972E+002
3	0	1.042548988292692E+003	2.4016327E-001	-2.7038031E+002
3	0	1.043048988280061E+003	2.4007753E-001	-2.7038742E+002
3	0	1.043548988267430E+003	2.3996952E-001	-2.7038385E+002
3	0	1.044048988254799E+003	2.3983927E-001	-2.7038385E+002
3	0	1.044548988242168E+003	2.3971774E-001	-2.7040506E+002
3	0	1.045048988229537E+003	2.3963334E-001	-2.7036618E+002
3	0	1.045548988216906E+003	2.3955387E-001	-2.7038385E+002
3	0	1.046048988204275E+003	2.3946390E-001	-2.7038742E+002
3	0	1.046548988191644E+003	2.3937730E-001	-2.7035913E+002
3	0	1.047048988179013E+003	2.3928429E-001	-2.7038031E+002
3	0	1.047548988166382E+003	2.3917538E-001	-2.7038031E+002
3	0	1.048048988153751E+003	2.3905313E-001	-2.7035913E+002
3	0	1.048548988141119E+003	2.3894103E-001	-2.7037326E+002
3	0	1.049048988128488E+003	2.3886451E-001	-2.7040155E+002
3	0	1.049548988115857E+003	2.3879395E-001	-2.7039093E+002
3	0	1.050048988103226E+003	2.3871581E-001	-2.7039801E+002
3	0	1.050548988090595E+003	2.3863730E-001	-2.7038385E+002
3	0	1.051048988077964E+003	2.3855735E-001	-2.7038031E+002
3	0	1.051548988065333E+003	2.3845819E-001	-2.7035913E+002
3	0	1.052048988052702E+003	2.3833461E-001	-2.7038742E+002
3	0	1.052548988040071E+003	2.3822868E-001	-2.7038031E+002
3	0	1.053048988027440E+003	2.3815797E-001	-2.7039447E+002
3	0	1.053548988014809E+003	2.3808998E-001	-2.7036972E+002
3	0	1.054048988002178E+003	2.3801607E-001	-2.7037677E+002
3	0	1.054548987989547E+003	2.3794489E-001	-2.7037326E+002
3	0	1.055048987976916E+003	2.3786490E-001	-2.7038385E+002
3	0	1.055548987964285E+003	2.3777521E-001	-2.7035913E+002
3	0	1.056048987951654E+003	2.3766305E-001	-2.7039093E+002
3	0	1.056073587951032E+003	2.3760441E-001	-2.7040155E+002