EC-Lab ASCII FILE
Nb header lines : 48                          

Open Circuit Voltage

Run on channel : 1 (SN 81504)
User : 
CE vs. WE compliance from -10 V to 10 V
Electrode connection : standard
Potential control : Ewe
Ewe ctrl range : min = -2.50 V, max = 2.50 V
Safety Limits :
	Do not start on E overload
Acquisition started on : 05/07/2026 18:41:54.331
Loaded Setting File :  C:\PEM-WE_measurements\2026\372_IV_IV IrOx, 5 min Pt, 30 min C, etched cathode\new station\Loopeis new\1,46 V different time gaps open cell\Loopeis 1,46V_90s_2_PEIS from 65kHz to 10kHz.mps
Saved on :
	File : L_17_Loopeis 1,46V_90s_2_PEIS from 65kHz to 10kHz_10_OCV_C01.mpr
	Directory : C:\PEM-WE_measurements\2026\372_IV_IV IrOx, 5 min Pt, 30 min C, etched cathode\new station\Loopeis new\1,46 V different time gaps open cell\
	Host : 192.168.0.2
Device : SP-150e (SN .005491)
Address : 192.168.0.91
EC-LAB for windows v11.71 (software)
Internet server v28.00 (firmware)
Command interpretor v14.01 (firmware)
Electrode material : 
Initial state : 
Electrolyte : 
Comments : 
Current amplifier : SP-150eB-20A
Electrode surface area : 0.001 cm²
Characteristic mass : 0.001 g
Equivalent Weight : 0.000 g/eq.
Density : 0.000 g/cm3
Volume (V) : 0.001 cm³
Record Analogic IN 1
Text export
   Mode : Standard
   Time format : Elapsed
Cycle Definition : Charge/Discharge alternance
tR (h:m:s)          0:01:30.0000        
dER/dt (mV/h)       1.0                 
record              <Ewe>               
dER (mV)            10.00               
dtR (s)             0.5000              
E range min (V)     -2.500              
E range max (V)     2.500               

mode	error	time/s	<Ewe/V>	Analog IN 1/V	
3	0	5.866313918108790E+002	1.2729770E+000	-3.4306191E-005
3	0	5.871313917982479E+002	1.2619258E+000	6.1121522E-005
3	0	5.876313917856169E+002	1.2139989E+000	-5.3391734E-005
3	0	5.881313917729858E+002	1.1175089E+000	-1.1064836E-004
3	0	5.886313917603547E+002	7.9142410E-001	-1.5220648E-005
3	0	5.891313917477237E+002	4.1576922E-001	2.2950437E-005
3	0	5.896313917350926E+002	3.3449447E-001	-1.6790499E-004
3	0	5.901313917224616E+002	3.2268155E-001	-5.3391734E-005
3	0	5.906313917098305E+002	3.1468952E-001	-3.4306191E-005
3	0	5.911313916971994E+002	3.0832291E-001	9.9292607E-005
3	0	5.916313916845684E+002	3.0343056E-001	4.2035979E-005
3	0	5.921313916719373E+002	2.9966530E-001	-1.6790499E-004
3	0	5.926313916593062E+002	2.9670390E-001	-1.4881945E-004
3	0	5.931313916466752E+002	2.9430008E-001	-1.1064836E-004
3	0	5.936313916340441E+002	2.9230747E-001	6.1121522E-005
3	0	5.941313916214131E+002	2.9063895E-001	2.2950437E-005
3	0	5.946313916087820E+002	2.8922144E-001	3.8648941E-006
3	0	5.951313915961509E+002	2.8797853E-001	3.8648941E-006
3	0	5.956313915835199E+002	2.8686282E-001	-9.1562819E-005
3	0	5.961313915708888E+002	2.8585148E-001	-7.2477276E-005
3	0	5.966313915582577E+002	2.8491408E-001	3.8648941E-006
3	0	5.971313915456267E+002	2.8402084E-001	3.8648941E-006
3	0	5.976313915329956E+002	2.8316155E-001	8.0207064E-005
3	0	5.981313915203646E+002	2.8237668E-001	-1.4881945E-004
3	0	5.986313915077335E+002	2.8164709E-001	3.8648941E-006
3	0	5.991313914951024E+002	2.8094897E-001	2.2950437E-005
3	0	5.996313914824714E+002	2.8027469E-001	-3.4306191E-005
3	0	6.001313914698403E+002	2.7961522E-001	-3.4306191E-005
3	0	6.006313914572092E+002	2.7897629E-001	-1.8699054E-004
3	0	6.011313914445782E+002	2.7832675E-001	-9.1562819E-005
3	0	6.016313914319471E+002	2.7767465E-001	-3.4306191E-005
3	0	6.021313914193161E+002	2.7706015E-001	-7.2477276E-005
3	0	6.026313914066850E+002	2.7648124E-001	-9.1562819E-005
3	0	6.031313913940539E+002	2.7590373E-001	-5.3391734E-005
3	0	6.036313913814229E+002	2.7533954E-001	4.2035979E-005
3	0	6.041313913687918E+002	2.7478153E-001	-9.1562819E-005
3	0	6.046313913561607E+002	2.7422705E-001	-9.1562819E-005
3	0	6.051313913435297E+002	2.7365261E-001	-5.3391734E-005
3	0	6.056313913308986E+002	2.7306744E-001	-1.5220648E-005
3	0	6.061313913182676E+002	2.7251825E-001	-1.4881945E-004
3	0	6.066313913056365E+002	2.7200055E-001	1.3746369E-004
3	0	6.071313912930054E+002	2.7147418E-001	-3.4306191E-005
3	0	6.076313912803744E+002	2.7095383E-001	-1.6790499E-004
3	0	6.081313912677433E+002	2.7043834E-001	-1.1064836E-004
3	0	6.086313912551122E+002	2.6991653E-001	3.8648941E-006
3	0	6.091313912424812E+002	2.6939443E-001	4.2035979E-005
3	0	6.096313912298501E+002	2.6884949E-001	-7.2477276E-005
3	0	6.101313912172191E+002	2.6834103E-001	-1.1064836E-004
3	0	6.106313912045880E+002	2.6785180E-001	-5.3391734E-005
3	0	6.111313911919569E+002	2.6736504E-001	1.5654923E-004
3	0	6.116313911793259E+002	2.6688033E-001	1.1837815E-004
3	0	6.121313911666948E+002	2.6639643E-001	2.2950437E-005
3	0	6.126313911540637E+002	2.6591039E-001	-3.4306191E-005
3	0	6.131313911414327E+002	2.6541340E-001	2.2950437E-005
3	0	6.136313911288016E+002	2.6490811E-001	-1.2973390E-004
3	0	6.141313911161706E+002	2.6443890E-001	4.2035979E-005
3	0	6.146313911035395E+002	2.6398304E-001	-3.4306191E-005
3	0	6.151313910909084E+002	2.6353243E-001	3.8648941E-006
3	0	6.156313910782774E+002	2.6308152E-001	6.1121522E-005
3	0	6.161313910656463E+002	2.6262757E-001	-1.5220648E-005
3	0	6.166313910530153E+002	2.6217580E-001	-3.4306191E-005
3	0	6.171313910403842E+002	2.6170248E-001	6.1121522E-005
3	0	6.176313910277531E+002	2.6122200E-001	-1.5220648E-005
3	0	6.181313910151221E+002	2.6077777E-001	-5.3391734E-005
3	0	6.186313910024910E+002	2.6035994E-001	-1.1064836E-004
3	0	6.191313909898599E+002	2.5993747E-001	4.2035979E-005
3	0	6.196313909772289E+002	2.5951782E-001	2.2950437E-005
3	0	6.201313909645978E+002	2.5910923E-001	-5.3391734E-005
3	0	6.206313909519668E+002	2.5869101E-001	-1.5220648E-005
3	0	6.211313909393357E+002	2.5825280E-001	-1.2973390E-004
3	0	6.216313909267046E+002	2.5780988E-001	-7.2477276E-005
3	0	6.221313909140736E+002	2.5739869E-001	-3.4306191E-005
3	0	6.226313909014425E+002	2.5701106E-001	-7.2477276E-005
3	0	6.231313908888114E+002	2.5662437E-001	-1.2973390E-004
3	0	6.236313908761804E+002	2.5623465E-001	-1.5220648E-005
3	0	6.241313908635493E+002	2.5585029E-001	6.1121522E-005
3	0	6.246313908509183E+002	2.5546190E-001	1.1837815E-004
3	0	6.251313908382872E+002	2.5505584E-001	-9.1562819E-005
3	0	6.256313908256561E+002	2.5464565E-001	2.2950437E-005
3	0	6.261313908130251E+002	2.5427330E-001	-3.4306191E-005
3	0	6.266313908003940E+002	2.5391087E-001	-3.4306191E-005
3	0	6.271313907877629E+002	2.5355229E-001	-1.5220648E-005
3	0	6.276313907751319E+002	2.5318789E-001	-2.2516162E-004
3	0	6.281313907625008E+002	2.5282958E-001	-1.1064836E-004
3	0	6.286313907498698E+002	2.5246790E-001	-7.2477276E-005
3	0	6.291313907372387E+002	2.5209022E-001	-9.1562819E-005
3	0	6.296313907246076E+002	2.5170609E-001	-7.2477276E-005
3	0	6.301313907119766E+002	2.5136584E-001	-1.1064836E-004
3	0	6.306313906993455E+002	2.5103784E-001	-7.2477276E-005
3	0	6.311313906867144E+002	2.5071022E-001	4.2035979E-005
3	0	6.316313906740834E+002	2.5038695E-001	3.8648941E-006
3	0	6.321313906614523E+002	2.5005746E-001	-9.1562819E-005
3	0	6.326313906488213E+002	2.4973316E-001	-7.2477276E-005
3	0	6.331313906361902E+002	2.4938934E-001	-7.2477276E-005
3	0	6.336313906235591E+002	2.4903822E-001	-3.4306191E-005
3	0	6.341313906109281E+002	2.4871835E-001	-1.4881945E-004
3	0	6.346313905982970E+002	2.4841781E-001	3.8648941E-006
3	0	6.351313905856659E+002	2.4811260E-001	2.2950437E-005
3	0	6.356313905730349E+002	2.4781166E-001	-9.1562819E-005
3	0	6.361313905604038E+002	2.4750729E-001	3.8648941E-006
3	0	6.366313905477728E+002	2.4719910E-001	-9.1562819E-005
3	0	6.371313905351417E+002	2.4686925E-001	-7.2477276E-005
3	0	6.376313905225106E+002	2.4653731E-001	2.2950437E-005
3	0	6.381313905098796E+002	2.4624357E-001	-1.5220648E-005
3	0	6.386313904972485E+002	2.4596542E-001	-7.2477276E-005
3	0	6.391313904846174E+002	2.4569084E-001	-1.6790499E-004
3	0	6.396313904719864E+002	2.4541757E-001	-1.5220648E-005
3	0	6.401313904593553E+002	2.4514730E-001	-5.3391734E-005
3	0	6.406313904467243E+002	2.4486913E-001	-7.2477276E-005
3	0	6.411313904340932E+002	2.4456468E-001	2.2950437E-005
3	0	6.416313904214621E+002	2.4426347E-001	3.8648941E-006
3	0	6.421313904088311E+002	2.4399254E-001	-1.2973390E-004
3	0	6.426313903962000E+002	2.4374090E-001	3.8648941E-006
3	0	6.431313903835689E+002	2.4348849E-001	-1.1064836E-004
3	0	6.436313903709379E+002	2.4324210E-001	-7.2477276E-005
3	0	6.441313903583068E+002	2.4299642E-001	-7.2477276E-005
3	0	6.446313903456758E+002	2.4274035E-001	2.2950437E-005
3	0	6.451313903330447E+002	2.4245806E-001	-1.6790499E-004
3	0	6.456313903204136E+002	2.4217761E-001	-1.1064836E-004
3	0	6.461313903077826E+002	2.4194123E-001	8.0207064E-005
3	0	6.466313902951515E+002	2.4171525E-001	-9.1562819E-005
3	0	6.471313902825204E+002	2.4147904E-001	-1.5220648E-005
3	0	6.476313902698894E+002	2.4125133E-001	3.8648941E-006
3	0	6.481313902572583E+002	2.4102131E-001	-3.4306191E-005
3	0	6.486313902446273E+002	2.4078766E-001	6.1121522E-005
3	0	6.491313902319962E+002	2.4053659E-001	-9.1562819E-005
3	0	6.496313902193651E+002	2.4028437E-001	-1.1064836E-004
3	0	6.501313902067341E+002	2.4006705E-001	-7.2477276E-005
3	0	6.506313901941030E+002	2.3985989E-001	6.1121522E-005
3	0	6.511313901814719E+002	2.3964557E-001	-1.2973390E-004
3	0	6.516313901688409E+002	2.3943742E-001	-7.2477276E-005
3	0	6.521313901562098E+002	2.3923172E-001	-3.4306191E-005
3	0	6.526313901435788E+002	2.3901632E-001	-5.3391734E-005
3	0	6.531313901309477E+002	2.3877941E-001	-5.3391734E-005
3	0	6.536313901183166E+002	2.3853676E-001	-9.1562819E-005
3	0	6.541313901056856E+002	2.3834184E-001	-1.2973390E-004
3	0	6.546313900930545E+002	2.3814727E-001	8.0207064E-005
3	0	6.551313900804234E+002	2.3794477E-001	2.2950437E-005
3	0	6.556313900677924E+002	2.3774701E-001	3.8648941E-006
3	0	6.561313900551613E+002	2.3755623E-001	6.1121522E-005
3	0	6.566313900425303E+002	2.3734961E-001	-1.5220648E-005
3	0	6.571313900298992E+002	2.3712929E-001	2.2950437E-005
3	0	6.576313900172681E+002	2.3690292E-001	2.2950437E-005
3	0	6.581313900046371E+002	2.3671275E-001	-3.4306191E-005
3	0	6.586313899920060E+002	2.3653558E-001	4.2035979E-005
3	0	6.591313899793749E+002	2.3634379E-001	2.2950437E-005
3	0	6.596313899667439E+002	2.3616856E-001	-1.1064836E-004
3	0	6.601313899541128E+002	2.3599066E-001	-7.2477276E-005
3	0	6.606313899414818E+002	2.3580591E-001	3.8648941E-006
3	0	6.611313899288507E+002	2.3560849E-001	2.2950437E-005
3	0	6.616313899162196E+002	2.3540325E-001	-7.2477276E-005
3	0	6.621313899035886E+002	2.3523727E-001	-2.0607607E-004
3	0	6.626313898909575E+002	2.3507991E-001	-3.4306191E-005
3	0	6.631313898783264E+002	2.3490828E-001	-3.4306191E-005
3	0	6.636313898656954E+002	2.3474368E-001	-1.5220648E-005
3	0	6.641313898530643E+002	2.3458785E-001	-9.1562819E-005
3	0	6.646313898404333E+002	2.3442276E-001	-5.3391734E-005
3	0	6.651313898278022E+002	2.3423837E-001	-1.5220648E-005
3	0	6.656313898151711E+002	2.3404339E-001	-9.1562819E-005
3	0	6.661313898025401E+002	2.3389176E-001	6.1121522E-005
3	0	6.666313897899090E+002	2.3374000E-001	-1.2973390E-004
3	0	6.671313897772779E+002	2.3358630E-001	3.8648941E-006
3	0	6.676313897646469E+002	2.3343559E-001	-1.4881945E-004
3	0	6.681313897520158E+002	2.3329099E-001	-1.1064836E-004
3	0	6.686313897393848E+002	2.3314437E-001	4.2035979E-005
3	0	6.691313897267537E+002	2.3297013E-001	-5.3391734E-005
3	0	6.696313897141226E+002	2.3279014E-001	-1.4881945E-004
3	0	6.701313897014916E+002	2.3264652E-001	-9.1562819E-005
3	0	6.706313896888605E+002	2.3251399E-001	4.2035979E-005
3	0	6.711313896762294E+002	2.3237152E-001	-5.3391734E-005
3	0	6.716313896635984E+002	2.3223197E-001	-5.3391734E-005
3	0	6.721313896509673E+002	2.3209764E-001	-5.3391734E-005
3	0	6.726313896383363E+002	2.3195365E-001	8.0207064E-005
3	0	6.731313896257052E+002	2.3179400E-001	-5.3391734E-005
3	0	6.736313896130741E+002	2.3162825E-001	-3.4306191E-005
3	0	6.741313896004431E+002	2.3149535E-001	-5.3391734E-005
3	0	6.746313895878120E+002	2.3136479E-001	-1.4881945E-004
3	0	6.751313895751809E+002	2.3123990E-001	-1.5220648E-005
3	0	6.756313895625499E+002	2.3111410E-001	-3.4306191E-005
3	0	6.761313895499188E+002	2.3098849E-001	-1.2973390E-004
3	0	6.761317895499087E+002	2.3094161E-001	-3.4306191E-005