EC-Lab ASCII FILE
Nb header lines : 55                          

Open Circuit Voltage

Run on channel : 1 (SN 81504)
User : 
CE vs. WE compliance from -10 V to 10 V
Electrode connection : standard
Potential control : Ewe
Ewe ctrl range : min = -2.50 V, max = 2.50 V
Safety Limits :
	Do not start on E overload
Acquisition started on : 05/09/2026 23:46:58.612
Loaded Setting File :  C:\PEM-WE_measurements\2026\372_IV_IV IrOx, 5 min Pt, 30 min C, etched cathode\new station\Loopeis new\1,46 V different time gaps closed cell\Loopeis 1,46V_30s_3_PEIS from 6500Hz to 1000Hz.mps
Saved on :
	File : L_03_Loopeis 1,46V_30s_3_PEIS from 6500Hz to 1000Hz_14_OCV_C01.mpr
	Directory : C:\PEM-WE_measurements\2026\372_IV_IV IrOx, 5 min Pt, 30 min C, etched cathode\new station\Loopeis new\1,46 V different time gaps closed cell\
	Host : 192.168.0.2
Device : SP-150e (SN .005491)
Address : 192.168.0.91
EC-LAB for windows v11.71 (software)
Internet server v28.00 (firmware)
Command interpretor v14.01 (firmware)
Electrode material : 
Initial state : 
Electrolyte : 
Comments : 
Current amplifier : SP-150eB-20A
Electrode surface area : 0.001 cm²
Characteristic mass : 0.001 g
Equivalent Weight : 0.000 g/eq.
Density : 0.000 g/cm3
Volume (V) : 0.001 cm³
Record Analogic IN 1
Text export
   Mode : Standard
   Time format : Elapsed
Cycle Definition : Charge/Discharge alternance
External device configuration :
   device type : Temperature Probe
   device name : Other
   Analog IN 1 : 
      unit : T/Â°C
      max : 100.000 at 2.000 V
      min : 0.000 at 1.460 V
tR (h:m:s)          0:00:30.0000        
dER/dt (mV/h)       1.0                 
record              <Ewe>               
dER (mV)            10.00               
dtR (s)             0.5000              
E range min (V)     -2.500              
E range max (V)     2.500               

mode	error	time/s	<Ewe/V>	Analog IN 1/V	
3	0	4.992201974814816E+002	1.4206638E+000	-2.7039093E+002
3	0	4.997201974688505E+002	1.4129344E+000	-2.7038031E+002
3	0	5.002201974562195E+002	1.4075919E+000	-2.7038031E+002
3	0	5.007201974435884E+002	1.4035621E+000	-2.7037677E+002
3	0	5.012201974309573E+002	1.4003795E+000	-2.7036972E+002
3	0	5.017201974183263E+002	1.3978181E+000	-2.7038031E+002
3	0	5.022201974056952E+002	1.3956418E+000	-2.7037677E+002
3	0	5.027201973930642E+002	1.3937365E+000	-2.7039447E+002
3	0	5.032201973804331E+002	1.3920447E+000	-2.7038385E+002
3	0	5.037201973678020E+002	1.3905218E+000	-2.7036267E+002
3	0	5.042201973551710E+002	1.3890816E+000	-2.7039093E+002
3	0	5.047201973425399E+002	1.3876812E+000	-2.7036972E+002
3	0	5.052201973299088E+002	1.3864011E+000	-2.7038031E+002
3	0	5.057201973172778E+002	1.3852791E+000	-2.7035559E+002
3	0	5.062201973046467E+002	1.3842394E+000	-2.7035913E+002
3	0	5.067201972920157E+002	1.3832476E+000	-2.7036618E+002
3	0	5.072201972793846E+002	1.3823107E+000	-2.7038031E+002
3	0	5.077201972667535E+002	1.3814162E+000	-2.7038385E+002
3	0	5.082201972541225E+002	1.3804997E+000	-2.7036267E+002
3	0	5.087201972414914E+002	1.3795370E+000	-2.7038031E+002
3	0	5.092201972288603E+002	1.3786514E+000	-2.7037326E+002
3	0	5.097201972162293E+002	1.3778542E+000	-2.7035913E+002
3	0	5.102201972035982E+002	1.3770936E+000	-2.7038031E+002
3	0	5.107201971909672E+002	1.3763509E+000	-2.7036618E+002
3	0	5.112201971783361E+002	1.3756390E+000	-2.7036618E+002
3	0	5.117201971657050E+002	1.3749462E+000	-2.7038385E+002
3	0	5.122201971530740E+002	1.3742265E+000	-2.7036618E+002
3	0	5.127201971404429E+002	1.3734457E+000	-2.7038385E+002
3	0	5.132201971278118E+002	1.3727218E+000	-2.7037677E+002
3	0	5.137201971151808E+002	1.3720776E+000	-2.7037326E+002
3	0	5.142201971025497E+002	1.3714569E+000	-2.7038385E+002
3	0	5.147201970899187E+002	1.3708379E+000	-2.7037677E+002
3	0	5.152201970772876E+002	1.3702435E+000	-2.7034851E+002
3	0	5.157201970646565E+002	1.3696491E+000	-2.7038385E+002
3	0	5.162201970520255E+002	1.3690000E+000	-2.7038031E+002
3	0	5.167201970393944E+002	1.3683081E+000	-2.7038031E+002
3	0	5.172201970267633E+002	1.3676603E+000	-2.7037677E+002
3	0	5.177201970141323E+002	1.3670820E+000	-2.7039447E+002
3	0	5.182201970015012E+002	1.3665166E+000	-2.7037326E+002
3	0	5.187201969888702E+002	1.3659543E+000	-2.7039093E+002
3	0	5.192201969762391E+002	1.3654082E+000	-2.7038031E+002
3	0	5.197201969636080E+002	1.3648561E+000	-2.7039447E+002
3	0	5.202201969509770E+002	1.3642502E+000	-2.7039447E+002
3	0	5.207201969383459E+002	1.3635740E+000	-2.7038385E+002
3	0	5.212201969257148E+002	1.3629490E+000	-2.7037326E+002
3	0	5.217201969130838E+002	1.3623837E+000	-2.7039093E+002
3	0	5.222201969004527E+002	1.3618308E+000	-2.7036972E+002
3	0	5.227201968878217E+002	1.3612736E+000	-2.7038385E+002
3	0	5.232201968751906E+002	1.3607317E+000	-2.7038742E+002
3	0	5.237201968625595E+002	1.3601788E+000	-2.7034497E+002
3	0	5.242201968499285E+002	1.3595719E+000	-2.7040506E+002
3	0	5.247201968372974E+002	1.3589039E+000	-2.7038031E+002
3	0	5.252201968246663E+002	1.3582780E+000	-2.7038031E+002
3	0	5.257201968120353E+002	1.3577141E+000	-2.7037326E+002
3	0	5.262201967994042E+002	1.3571522E+000	-2.7036972E+002
3	0	5.267201967867732E+002	1.3565762E+000	-2.7039801E+002
3	0	5.272201967741421E+002	1.3560113E+000	-2.7038031E+002
3	0	5.277201967615110E+002	1.3554283E+000	-2.7035205E+002
3	0	5.282201967488800E+002	1.3547869E+000	-2.7035205E+002
3	0	5.287201967362489E+002	1.3540794E+000	-2.7036972E+002
3	0	5.287205967362388E+002	1.3537079E+000	-2.7038742E+002