EC-Lab ASCII FILE
Nb header lines : 55                          

Open Circuit Voltage

Run on channel : 1 (SN 81504)
User : 
CE vs. WE compliance from -10 V to 10 V
Electrode connection : standard
Potential control : Ewe
Ewe ctrl range : min = -2.50 V, max = 2.50 V
Safety Limits :
	Do not start on E overload
Acquisition started on : 05/07/2026 19:04:33.160
Loaded Setting File :  C:\PEM-WE_measurements\2026\372_IV_IV IrOx, 5 min Pt, 30 min C, etched cathode\new station\Loopeis new\1,46 V different time gaps open cell\Loopeis 1,46V_90s_3_PEIS from 6500Hz to 1000Hz.mps
Saved on :
	File : L_18_Loopeis 1,46V_90s_3_PEIS from 6500Hz to 1000Hz_12_OCV_C01.mpr
	Directory : C:\PEM-WE_measurements\2026\372_IV_IV IrOx, 5 min Pt, 30 min C, etched cathode\new station\Loopeis new\1,46 V different time gaps open cell\
	Host : 192.168.0.2
Device : SP-150e (SN .005491)
Address : 192.168.0.91
EC-LAB for windows v11.71 (software)
Internet server v28.00 (firmware)
Command interpretor v14.01 (firmware)
Electrode material : 
Initial state : 
Electrolyte : 
Comments : 
Current amplifier : SP-150eB-20A
Electrode surface area : 0.001 cm²
Characteristic mass : 0.001 g
Equivalent Weight : 0.000 g/eq.
Density : 0.000 g/cm3
Volume (V) : 0.001 cm³
Record Analogic IN 1
Text export
   Mode : Standard
   Time format : Elapsed
Cycle Definition : Charge/Discharge alternance
External device configuration :
   device type : Temperature Probe
   device name : Other
   Analog IN 1 : 
      unit : T/Â°C
      max : 100.000 at 2.000 V
      min : 0.000 at 1.460 V
tR (h:m:s)          0:01:30.0000        
dER/dt (mV/h)       1.0                 
record              <Ewe>               
dER (mV)            10.00               
dtR (s)             0.5000              
E range min (V)     -2.500              
E range max (V)     2.500               

mode	error	time/s	<Ewe/V>	Analog IN 1/V	
3	0	7.228399917337811E+002	1.0419837E+000	-2.7038385E+002
3	0	7.233399917211500E+002	1.2072875E+000	-2.7036267E+002
3	0	7.238399917085189E+002	1.1447631E+000	-2.7038742E+002
3	0	7.243399916958879E+002	1.0021884E+000	-2.7039093E+002
3	0	7.248399916832568E+002	5.7652891E-001	-2.7038742E+002
3	0	7.253399916706258E+002	3.3299416E-001	-2.7040155E+002
3	0	7.258399916579947E+002	2.9891464E-001	-2.7040860E+002
3	0	7.263399916453636E+002	2.9147035E-001	-2.7037326E+002
3	0	7.268399916327326E+002	2.8507379E-001	-2.7040860E+002
3	0	7.273399916201015E+002	2.7980849E-001	-2.7038742E+002
3	0	7.278399916074704E+002	2.7568737E-001	-2.7036972E+002
3	0	7.283399915948394E+002	2.7248487E-001	-2.7036618E+002
3	0	7.288399915822083E+002	2.6994225E-001	-2.7038385E+002
3	0	7.293399915695773E+002	2.6787457E-001	-2.7036972E+002
3	0	7.298399915569462E+002	2.6615736E-001	-2.7038385E+002
3	0	7.303399915443151E+002	2.6469171E-001	-2.7037677E+002
3	0	7.308399915316841E+002	2.6345545E-001	-2.7038742E+002
3	0	7.313399915190530E+002	2.6237321E-001	-2.7038742E+002
3	0	7.318399915064219E+002	2.6140180E-001	-2.7039447E+002
3	0	7.323399914937909E+002	2.6052070E-001	-2.7037326E+002
3	0	7.328399914811598E+002	2.5972128E-001	-2.7037677E+002
3	0	7.333399914685288E+002	2.5896400E-001	-2.7041214E+002
3	0	7.338399914558977E+002	2.5823018E-001	-2.7037677E+002
3	0	7.343399914432666E+002	2.5751701E-001	-2.7037677E+002
3	0	7.348399914306356E+002	2.5686190E-001	-2.7039447E+002
3	0	7.353399914180045E+002	2.5624874E-001	-2.7035559E+002
3	0	7.358399914053734E+002	2.5564504E-001	-2.7035913E+002
3	0	7.363399913927424E+002	2.5506154E-001	-2.7037326E+002
3	0	7.368399913801113E+002	2.5449821E-001	-2.7039447E+002
3	0	7.373399913674803E+002	2.5394145E-001	-2.7038385E+002
3	0	7.378399913548492E+002	2.5337088E-001	-2.7036972E+002
3	0	7.383399913422181E+002	2.5279456E-001	-2.7036618E+002
3	0	7.388399913295871E+002	2.5225523E-001	-2.7042273E+002
3	0	7.393399913169560E+002	2.5173503E-001	-2.7039447E+002
3	0	7.398399913043249E+002	2.5121528E-001	-2.7035913E+002
3	0	7.403399912916939E+002	2.5070065E-001	-2.7037326E+002
3	0	7.408399912790628E+002	2.5019702E-001	-2.7039447E+002
3	0	7.413399912664318E+002	2.4969707E-001	-2.7036972E+002
3	0	7.418399912538007E+002	2.4918017E-001	-2.7038385E+002
3	0	7.423399912411696E+002	2.4864686E-001	-2.7036267E+002
3	0	7.428399912285386E+002	2.4814701E-001	-2.7038742E+002
3	0	7.433399912159075E+002	2.4766918E-001	-2.7037326E+002
3	0	7.438399912032764E+002	2.4718609E-001	-2.7037677E+002
3	0	7.443399911906454E+002	2.4670367E-001	-2.7038385E+002
3	0	7.448399911780143E+002	2.4623434E-001	-2.7036618E+002
3	0	7.453399911653833E+002	2.4575849E-001	-2.7037677E+002
3	0	7.458399911527522E+002	2.4526757E-001	-2.7037326E+002
3	0	7.463399911401211E+002	2.4476026E-001	-2.7036972E+002
3	0	7.468399911274901E+002	2.4429464E-001	-2.7035205E+002
3	0	7.473399911148590E+002	2.4383608E-001	-2.7039801E+002
3	0	7.478399911022279E+002	2.4338444E-001	-2.7036972E+002
3	0	7.483399910895969E+002	2.4293333E-001	-2.7039093E+002
3	0	7.488399910769658E+002	2.4247870E-001	-2.7039447E+002
3	0	7.493399910643348E+002	2.4200472E-001	-2.7035913E+002
3	0	7.498399910517037E+002	2.4154852E-001	-2.7036618E+002
3	0	7.503399910390726E+002	2.4108741E-001	-2.7037677E+002
3	0	7.508399910264416E+002	2.4066049E-001	-2.7038031E+002
3	0	7.513399910138105E+002	2.4024120E-001	-2.7037326E+002
3	0	7.518399910011794E+002	2.3981810E-001	-2.7039801E+002
3	0	7.523399909885484E+002	2.3939596E-001	-2.7040155E+002
3	0	7.528399909759173E+002	2.3898317E-001	-2.7036267E+002
3	0	7.533399909632863E+002	2.3855849E-001	-2.7039801E+002
3	0	7.538399909506552E+002	2.3812494E-001	-2.7037677E+002
3	0	7.543399909380241E+002	2.3768632E-001	-2.7036618E+002
3	0	7.548399909253931E+002	2.3727606E-001	-2.7036972E+002
3	0	7.553399909127620E+002	2.3688363E-001	-2.7036972E+002
3	0	7.558399909001309E+002	2.3648815E-001	-2.7040860E+002
3	0	7.563399908874999E+002	2.3609778E-001	-2.7038742E+002
3	0	7.568399908748688E+002	2.3571298E-001	-2.7036267E+002
3	0	7.573399908622378E+002	2.3532799E-001	-2.7040155E+002
3	0	7.578399908496067E+002	2.3492235E-001	-2.7036618E+002
3	0	7.583399908369756E+002	2.3450658E-001	-2.7037677E+002
3	0	7.588399908243446E+002	2.3413187E-001	-2.7039093E+002
3	0	7.593399908117135E+002	2.3376215E-001	-2.7034851E+002
3	0	7.598399907990824E+002	2.3339583E-001	-2.7037677E+002
3	0	7.603399907864514E+002	2.3303683E-001	-2.7035559E+002
3	0	7.608399907738203E+002	2.3267989E-001	-2.7038742E+002
3	0	7.613399907611893E+002	2.3231524E-001	-2.7038031E+002
3	0	7.618399907485582E+002	2.3193376E-001	-2.7036267E+002
3	0	7.623399907359271E+002	2.3154625E-001	-2.7036267E+002
3	0	7.628399907232961E+002	2.3119679E-001	-2.7038031E+002
3	0	7.633399907106650E+002	2.3085846E-001	-2.7035559E+002
3	0	7.638399906980339E+002	2.3052008E-001	-2.7037677E+002
3	0	7.643399906854029E+002	2.3018815E-001	-2.7035559E+002
3	0	7.648399906727718E+002	2.2985168E-001	-2.7036972E+002
3	0	7.653399906601408E+002	2.2951557E-001	-2.7036267E+002
3	0	7.658399906475097E+002	2.2916260E-001	-2.7037326E+002
3	0	7.663399906348786E+002	2.2880085E-001	-2.7035559E+002
3	0	7.668399906222476E+002	2.2847292E-001	-2.7036972E+002
3	0	7.673399906096165E+002	2.2816214E-001	-2.7036972E+002
3	0	7.678399905969854E+002	2.2785182E-001	-2.7036267E+002
3	0	7.683399905843544E+002	2.2753929E-001	-2.7036972E+002
3	0	7.688399905717233E+002	2.2722737E-001	-2.7037326E+002
3	0	7.693399905590923E+002	2.2691508E-001	-2.7036972E+002
3	0	7.698399905464612E+002	2.2658765E-001	-2.7039447E+002
3	0	7.703399905338301E+002	2.2625379E-001	-2.7038385E+002
3	0	7.708399905211991E+002	2.2596000E-001	-2.7036972E+002
3	0	7.713399905085680E+002	2.2567602E-001	-2.7037677E+002
3	0	7.718399904959369E+002	2.2539887E-001	-2.7039801E+002
3	0	7.723399904833059E+002	2.2511625E-001	-2.7039801E+002
3	0	7.728399904706748E+002	2.2484244E-001	-2.7040506E+002
3	0	7.733399904580438E+002	2.2456011E-001	-2.7037326E+002
3	0	7.738399904454127E+002	2.2425792E-001	-2.7037677E+002
3	0	7.743399904327816E+002	2.2394772E-001	-2.7038742E+002
3	0	7.748399904201506E+002	2.2368063E-001	-2.7036618E+002
3	0	7.753399904075195E+002	2.2342333E-001	-2.7040155E+002
3	0	7.758399903948884E+002	2.2316100E-001	-2.7038031E+002
3	0	7.763399903822574E+002	2.2290015E-001	-2.7036618E+002
3	0	7.768399903696263E+002	2.2263807E-001	-2.7038742E+002
3	0	7.773399903569953E+002	2.2237818E-001	-2.7038385E+002
3	0	7.778399903443642E+002	2.2210088E-001	-2.7037326E+002
3	0	7.783399903317331E+002	2.2181359E-001	-2.7038031E+002
3	0	7.788399903191021E+002	2.2156341E-001	-2.7039447E+002
3	0	7.793399903064710E+002	2.2132716E-001	-2.7038031E+002
3	0	7.798399902938399E+002	2.2108726E-001	-2.7037677E+002
3	0	7.803399902812089E+002	2.2085899E-001	-2.7038742E+002
3	0	7.808399902685778E+002	2.2062743E-001	-2.7039801E+002
3	0	7.813399902559468E+002	2.2039071E-001	-2.7038031E+002
3	0	7.818399902433157E+002	2.2013597E-001	-2.7039447E+002
3	0	7.823399902306846E+002	2.1987259E-001	-2.7040155E+002
3	0	7.828399902180536E+002	2.1964328E-001	-2.7036972E+002
3	0	7.833399902054225E+002	2.1943165E-001	-2.7040506E+002
3	0	7.838399901927914E+002	2.1920882E-001	-2.7035913E+002
3	0	7.843399901801604E+002	2.1899308E-001	-2.7034851E+002
3	0	7.848399901675293E+002	2.1877988E-001	-2.7036618E+002
3	0	7.853399901548983E+002	2.1856591E-001	-2.7037677E+002
3	0	7.858399901422672E+002	2.1833041E-001	-2.7038742E+002
3	0	7.863399901296361E+002	2.1807966E-001	-2.7038031E+002
3	0	7.868399901170051E+002	2.1787067E-001	-2.7038742E+002
3	0	7.873399901043740E+002	2.1766852E-001	-2.7037677E+002
3	0	7.878399900917429E+002	2.1746171E-001	-2.7038031E+002
3	0	7.883399900791119E+002	2.1726495E-001	-2.7038742E+002
3	0	7.888399900664808E+002	2.1706884E-001	-2.7038742E+002
3	0	7.893399900538498E+002	2.1686685E-001	-2.7038742E+002
3	0	7.898399900412187E+002	2.1664655E-001	-2.7039447E+002
3	0	7.903399900285876E+002	2.1641971E-001	-2.7038742E+002
3	0	7.908399900159566E+002	2.1622227E-001	-2.7038742E+002
3	0	7.913399900033255E+002	2.1604723E-001	-2.7038385E+002
3	0	7.918399899906944E+002	2.1586849E-001	-2.7038742E+002
3	0	7.923399899780634E+002	2.1569791E-001	-2.7038742E+002
3	0	7.928399899654323E+002	2.1552029E-001	-2.7039093E+002
3	0	7.933399899528013E+002	2.1533546E-001	-2.7038385E+002
3	0	7.938399899401702E+002	2.1513280E-001	-2.7039447E+002
3	0	7.943399899275391E+002	2.1491571E-001	-2.7038742E+002
3	0	7.948399899149081E+002	2.1474648E-001	-2.7039801E+002
3	0	7.953399899022770E+002	2.1459012E-001	-2.7036972E+002
3	0	7.958399898896459E+002	2.1442579E-001	-2.7039447E+002
3	0	7.963399898770149E+002	2.1426050E-001	-2.7038031E+002
3	0	7.968399898643838E+002	2.1409693E-001	-2.7037326E+002
3	0	7.973399898517528E+002	2.1393187E-001	-2.7035559E+002
3	0	7.978399898391217E+002	2.1374339E-001	-2.7036972E+002
3	0	7.983399898264906E+002	2.1353798E-001	-2.7036267E+002
3	0	7.988399898138596E+002	2.1338144E-001	-2.7037677E+002
3	0	7.993399898012285E+002	2.1323663E-001	-2.7037677E+002
3	0	7.998399897885975E+002	2.1307991E-001	-2.7036972E+002
3	0	8.003399897759664E+002	2.1292052E-001	-2.7038031E+002
3	0	8.008399897633353E+002	2.1277271E-001	-2.7036972E+002
3	0	8.013399897507043E+002	2.1261615E-001	-2.7037326E+002
3	0	8.018399897380732E+002	2.1244337E-001	-2.7036267E+002
3	0	8.023399897254421E+002	2.1225761E-001	-2.7038742E+002
3	0	8.028399897128111E+002	2.1210928E-001	-2.7038031E+002
3	0	8.033399897001800E+002	2.1197902E-001	-2.7040860E+002
3	0	8.038399896875490E+002	2.1183768E-001	-2.7036267E+002
3	0	8.043399896749179E+002	2.1170223E-001	-2.7038385E+002
3	0	8.048399896622868E+002	2.1156795E-001	-2.7035205E+002
3	0	8.053399896496558E+002	2.1142733E-001	-2.7038742E+002
3	0	8.058399896370247E+002	2.1125899E-001	-2.7037326E+002
3	0	8.063399896243936E+002	2.1107736E-001	-2.7039447E+002
3	0	8.068399896117626E+002	2.1094179E-001	-2.7040860E+002
3	0	8.073399895991315E+002	2.1081798E-001	-2.7040155E+002
3	0	8.078399895865005E+002	2.1068631E-001	-2.7035559E+002
3	0	8.083399895738694E+002	2.1055639E-001	-2.7038031E+002
3	0	8.088399895612383E+002	2.1043001E-001	-2.7037326E+002
3	0	8.093399895486073E+002	2.1029726E-001	-2.7036267E+002
3	0	8.098399895359762E+002	2.1014352E-001	-2.7039447E+002
3	0	8.103399895233451E+002	2.0997392E-001	-2.7037326E+002
3	0	8.108399895107141E+002	2.0984532E-001	-2.7036972E+002
3	0	8.113399894980830E+002	2.0973238E-001	-2.7035913E+002
3	0	8.118399894854520E+002	2.0961662E-001	-2.7036972E+002
3	0	8.123399894728209E+002	2.0950355E-001	-2.7038031E+002
3	0	8.123645894721994E+002	2.0944688E-001	-2.7035913E+002