EC-Lab ASCII FILE
Nb header lines : 48                          

Open Circuit Voltage

Run on channel : 1 (SN 81504)
User : 
CE vs. WE compliance from -10 V to 10 V
Electrode connection : standard
Potential control : Ewe
Ewe ctrl range : min = -2.50 V, max = 2.50 V
Safety Limits :
	Do not start on E overload
Acquisition started on : 05/07/2026 23:27:51.851
Loaded Setting File :  C:\PEM-WE_measurements\2026\372_IV_IV IrOx, 5 min Pt, 30 min C, etched cathode\new station\Loopeis new\1,46 V different time gaps open cell\Loopeis 1,46V_180s_2_PEIS from 65kHz to 10kHz.mps
Saved on :
	File : L_27_Loopeis 1,46V_180s_2_PEIS from 65kHz to 10kHz_10_OCV_C01.mpr
	Directory : C:\PEM-WE_measurements\2026\372_IV_IV IrOx, 5 min Pt, 30 min C, etched cathode\new station\Loopeis new\1,46 V different time gaps open cell\
	Host : 192.168.0.2
Device : SP-150e (SN .005491)
Address : 192.168.0.91
EC-LAB for windows v11.71 (software)
Internet server v28.00 (firmware)
Command interpretor v14.01 (firmware)
Electrode material : 
Initial state : 
Electrolyte : 
Comments : 
Current amplifier : SP-150eB-20A
Electrode surface area : 0.001 cm²
Characteristic mass : 0.001 g
Equivalent Weight : 0.000 g/eq.
Density : 0.000 g/cm3
Volume (V) : 0.001 cm³
Record Analogic IN 1
Text export
   Mode : Standard
   Time format : Elapsed
Cycle Definition : Charge/Discharge alternance
tR (h:m:s)          0:03:0.0000         
dER/dt (mV/h)       1.0                 
record              <Ewe>               
dER (mV)            10.00               
dtR (s)             0.5000              
E range min (V)     -2.500              
E range max (V)     2.500               

mode	error	time/s	<Ewe/V>	Analog IN 1/V	
3	0	9.464463827077270E+002	1.2167640E+000	-1.4881945E-004
3	0	9.469463826950960E+002	1.1657211E+000	-1.2973390E-004
3	0	9.474463826824649E+002	7.7935576E-001	-3.4306191E-005
3	0	9.479463826698338E+002	4.1338870E-001	-1.1064836E-004
3	0	9.484463826572028E+002	3.4529689E-001	4.2035979E-005
3	0	9.489463826445717E+002	3.3392268E-001	3.8648941E-006
3	0	9.494463826319407E+002	3.2627505E-001	-5.3391734E-005
3	0	9.499463826193096E+002	3.2027113E-001	-1.1064836E-004
3	0	9.504463826066785E+002	3.1568012E-001	3.8648941E-006
3	0	9.509463825940475E+002	3.1214449E-001	-9.1562819E-005
3	0	9.514463825814164E+002	3.0935234E-001	-5.3391734E-005
3	0	9.519463825687853E+002	3.0708581E-001	-1.6790499E-004
3	0	9.524463825561543E+002	3.0518341E-001	2.2950437E-005
3	0	9.529463825435232E+002	3.0356312E-001	-1.4881945E-004
3	0	9.534463825308922E+002	3.0215269E-001	-1.1064836E-004
3	0	9.539463825182611E+002	3.0088612E-001	8.0207064E-005
3	0	9.544463825056300E+002	2.9973197E-001	-9.1562819E-005
3	0	9.549463824929990E+002	2.9869559E-001	-3.4306191E-005
3	0	9.554463824803679E+002	2.9777303E-001	-1.1064836E-004
3	0	9.559463824677368E+002	2.9691425E-001	-7.2477276E-005
3	0	9.564463824551058E+002	2.9609013E-001	2.2950437E-005
3	0	9.569463824424747E+002	2.9531640E-001	-1.1064836E-004
3	0	9.574463824298437E+002	2.9457948E-001	-1.5220648E-005
3	0	9.579463824172126E+002	2.9385468E-001	-5.3391734E-005
3	0	9.584463824045815E+002	2.9313996E-001	2.2950437E-005
3	0	9.589463823919505E+002	2.9244599E-001	-9.1562819E-005
3	0	9.594463823793194E+002	2.9180858E-001	-7.2477276E-005
3	0	9.599463823666883E+002	2.9119244E-001	-3.4306191E-005
3	0	9.604463823540573E+002	2.9058698E-001	3.8648941E-006
3	0	9.609463823414262E+002	2.8998908E-001	-1.2973390E-004
3	0	9.614463823287952E+002	2.8940344E-001	-5.3391734E-005
3	0	9.619463823161641E+002	2.8880960E-001	-5.3391734E-005
3	0	9.624463823035330E+002	2.8820944E-001	-1.4881945E-004
3	0	9.629463822909020E+002	2.8762144E-001	-3.4306191E-005
3	0	9.634463822782709E+002	2.8707740E-001	-3.4306191E-005
3	0	9.639463822656398E+002	2.8655040E-001	-1.5220648E-005
3	0	9.644463822530088E+002	2.8602353E-001	8.0207064E-005
3	0	9.649463822403777E+002	2.8550130E-001	3.8648941E-006
3	0	9.654463822277467E+002	2.8498241E-001	-3.4306191E-005
3	0	9.659463822151156E+002	2.8445691E-001	3.8648941E-006
3	0	9.664463822024845E+002	2.8390563E-001	-5.3391734E-005
3	0	9.669463821898535E+002	2.8337166E-001	-9.1562819E-005
3	0	9.674463821772224E+002	2.8288046E-001	2.2950437E-005
3	0	9.679463821645913E+002	2.8239939E-001	2.2950437E-005
3	0	9.684463821519603E+002	2.8191945E-001	-1.4881945E-004
3	0	9.689463821393292E+002	2.8143737E-001	-1.2973390E-004
3	0	9.694463821266982E+002	2.8096056E-001	2.2950437E-005
3	0	9.699463821140671E+002	2.8046793E-001	2.2950437E-005
3	0	9.704463821014360E+002	2.7996147E-001	3.8648941E-006
3	0	9.709463820888050E+002	2.7947140E-001	8.0207064E-005
3	0	9.714463820761739E+002	2.7903059E-001	-1.1064836E-004
3	0	9.719463820635428E+002	2.7858993E-001	-7.2477276E-005
3	0	9.724463820509118E+002	2.7815133E-001	-1.8699054E-004
3	0	9.729463820382807E+002	2.7771130E-001	-1.1064836E-004
3	0	9.734463820256497E+002	2.7727401E-001	3.8648941E-006
3	0	9.739463820130186E+002	2.7682331E-001	-1.5220648E-005
3	0	9.744463820003875E+002	2.7635518E-001	-1.6790499E-004
3	0	9.749463819877565E+002	2.7590817E-001	-5.3391734E-005
3	0	9.754463819751254E+002	2.7549601E-001	-3.4306191E-005
3	0	9.759463819624943E+002	2.7508941E-001	-7.2477276E-005
3	0	9.764463819498633E+002	2.7468893E-001	1.7563478E-004
3	0	9.769463819372322E+002	2.7429116E-001	4.2035979E-005
3	0	9.774463819246012E+002	2.7388856E-001	2.2950437E-005
3	0	9.779463819119701E+002	2.7346987E-001	-3.4306191E-005
3	0	9.784463818993390E+002	2.7303347E-001	-3.4306191E-005
3	0	9.789463818867080E+002	2.7261767E-001	-7.2477276E-005
3	0	9.794463818740769E+002	2.7224633E-001	-5.3391734E-005
3	0	9.799463818614458E+002	2.7187914E-001	-5.3391734E-005
3	0	9.804463818488148E+002	2.7150068E-001	3.8648941E-006
3	0	9.809463818361837E+002	2.7112567E-001	-3.4306191E-005
3	0	9.814463818235527E+002	2.7075952E-001	4.2035979E-005
3	0	9.819463818109216E+002	2.7037001E-001	4.2035979E-005
3	0	9.824463817982905E+002	2.6996854E-001	4.2035979E-005
3	0	9.829463817856595E+002	2.6959234E-001	6.1121522E-005
3	0	9.834463817730284E+002	2.6924890E-001	-5.3391734E-005
3	0	9.839463817603973E+002	2.6890758E-001	8.0207064E-005
3	0	9.844463817477663E+002	2.6855886E-001	-1.5220648E-005
3	0	9.849463817351352E+002	2.6821783E-001	-1.5220648E-005
3	0	9.854463817225042E+002	2.6787707E-001	-9.1562819E-005
3	0	9.859463817098731E+002	2.6751897E-001	-1.5220648E-005
3	0	9.864463816972420E+002	2.6715219E-001	4.2035979E-005
3	0	9.869463816846110E+002	2.6679906E-001	3.8648941E-006
3	0	9.874463816719799E+002	2.6648346E-001	-1.4881945E-004
3	0	9.879463816593488E+002	2.6617342E-001	-1.4881945E-004
3	0	9.884463816467178E+002	2.6585713E-001	2.2950437E-005
3	0	9.889463816340867E+002	2.6554254E-001	-1.5220648E-005
3	0	9.894463816214557E+002	2.6522648E-001	-1.6790499E-004
3	0	9.899463816088246E+002	2.6489291E-001	-9.1562819E-005
3	0	9.904463815961935E+002	2.6455361E-001	-9.1562819E-005
3	0	9.909463815835625E+002	2.6422706E-001	8.0207064E-005
3	0	9.914463815709314E+002	2.6393867E-001	-1.6790499E-004
3	0	9.919463815583003E+002	2.6365098E-001	-1.5220648E-005
3	0	9.924463815456693E+002	2.6336449E-001	6.1121522E-005
3	0	9.929463815330382E+002	2.6307249E-001	-1.1064836E-004
3	0	9.934463815204072E+002	2.6278007E-001	-9.1562819E-005
3	0	9.939463815077761E+002	2.6248178E-001	-7.2477276E-005
3	0	9.944463814951450E+002	2.6216310E-001	4.2035979E-005
3	0	9.949463814825140E+002	2.6186416E-001	-1.6790499E-004
3	0	9.954463814698829E+002	2.6160416E-001	-1.6790499E-004
3	0	9.959463814572518E+002	2.6134384E-001	-7.2477276E-005
3	0	9.964463814446208E+002	2.6108247E-001	-5.3391734E-005
3	0	9.969463814319897E+002	2.6081896E-001	-5.3391734E-005
3	0	9.974463814193587E+002	2.6055214E-001	-5.3391734E-005
3	0	9.979463814067276E+002	2.6027310E-001	-1.5220648E-005
3	0	9.984463813940965E+002	2.5997537E-001	-7.2477276E-005
3	0	9.989463813814655E+002	2.5970364E-001	-1.1064836E-004
3	0	9.994463813688344E+002	2.5946808E-001	-5.3391734E-005
3	0	9.999463813562033E+002	2.5923359E-001	6.1121522E-005
3	0	1.000446381343572E+003	2.5899345E-001	1.1837815E-004
3	0	1.000946381330941E+003	2.5875500E-001	2.2950437E-005
3	0	1.001446381318310E+003	2.5851178E-001	3.8648941E-006
3	0	1.001946381305679E+003	2.5825405E-001	3.8648941E-006
3	0	1.002446381293048E+003	2.5798044E-001	-5.3391734E-005
3	0	1.002946381280417E+003	2.5772724E-001	-7.2477276E-005
3	0	1.003446381267786E+003	2.5750634E-001	-5.3391734E-005
3	0	1.003946381255155E+003	2.5729415E-001	-5.3391734E-005
3	0	1.004446381242524E+003	2.5706881E-001	-9.1562819E-005
3	0	1.004946381229893E+003	2.5685203E-001	-1.2973390E-004
3	0	1.005446381217262E+003	2.5663641E-001	6.1121522E-005
3	0	1.005946381204631E+003	2.5640389E-001	-5.3391734E-005
3	0	1.006446381192000E+003	2.5614890E-001	-9.1562819E-005
3	0	1.006946381179368E+003	2.5591046E-001	3.8648941E-006
3	0	1.007446381166737E+003	2.5570771E-001	8.0207064E-005
3	0	1.007946381154106E+003	2.5550470E-001	-7.2477276E-005
3	0	1.008446381141475E+003	2.5528589E-001	-7.2477276E-005
3	0	1.008946381128844E+003	2.5507408E-001	3.8648941E-006
3	0	1.009446381116213E+003	2.5485820E-001	-3.4306191E-005
3	0	1.009946381103582E+003	2.5462711E-001	-7.2477276E-005
3	0	1.010446381090951E+003	2.5438246E-001	-9.1562819E-005
3	0	1.010946381078320E+003	2.5416479E-001	3.8648941E-006
3	0	1.011446381065689E+003	2.5397858E-001	-1.5220648E-005
3	0	1.011946381053058E+003	2.5379959E-001	-7.2477276E-005
3	0	1.012446381040427E+003	2.5361210E-001	-5.3391734E-005
3	0	1.012946381027796E+003	2.5342053E-001	6.1121522E-005
3	0	1.013446381015165E+003	2.5322729E-001	4.2035979E-005
3	0	1.013946381002534E+003	2.5303018E-001	2.2950437E-005
3	0	1.014446380989903E+003	2.5280818E-001	-1.6790499E-004
3	0	1.014946380977271E+003	2.5260657E-001	2.2950437E-005
3	0	1.015446380964640E+003	2.5243947E-001	-9.1562819E-005
3	0	1.015946380952009E+003	2.5227994E-001	-3.4306191E-005
3	0	1.016446380939378E+003	2.5210479E-001	-7.2477276E-005
3	0	1.016946380926747E+003	2.5193772E-001	-3.4306191E-005
3	0	1.017446380914116E+003	2.5176698E-001	-1.2973390E-004
3	0	1.017946380901485E+003	2.5157347E-001	8.0207064E-005
3	0	1.018446380888854E+003	2.5136572E-001	-7.2477276E-005
3	0	1.018946380876223E+003	2.5118363E-001	-9.1562819E-005
3	0	1.019446380863592E+003	2.5103262E-001	-7.2477276E-005
3	0	1.019946380850961E+003	2.5087699E-001	-7.2477276E-005
3	0	1.020446380838330E+003	2.5071520E-001	-7.2477276E-005
3	0	1.020946380825699E+003	2.5056157E-001	-1.6790499E-004
3	0	1.021446380813068E+003	2.5040379E-001	-1.5220648E-005
3	0	1.021946380800437E+003	2.5023171E-001	2.2950437E-005
3	0	1.022446380787806E+003	2.5003454E-001	-5.3391734E-005
3	0	1.022946380775174E+003	2.4985979E-001	-9.1562819E-005
3	0	1.023446380762543E+003	2.4972233E-001	-5.3391734E-005
3	0	1.023946380749912E+003	2.4958077E-001	-1.5220648E-005
3	0	1.024446380737281E+003	2.4943985E-001	2.2950437E-005
3	0	1.024946380724650E+003	2.4929893E-001	4.2035979E-005
3	0	1.025446380712019E+003	2.4915458E-001	3.8648941E-006
3	0	1.025946380699388E+003	2.4898639E-001	4.2035979E-005
3	0	1.026446380686757E+003	2.4879813E-001	2.2950437E-005
3	0	1.026946380674126E+003	2.4863748E-001	-5.3391734E-005
3	0	1.027446380661495E+003	2.4850263E-001	-1.5220648E-005
3	0	1.027946380648864E+003	2.4837303E-001	3.8648941E-006
3	0	1.028446380636233E+003	2.4823661E-001	-1.5220648E-005
3	0	1.028946380623602E+003	2.4809945E-001	4.2035979E-005
3	0	1.029446380610971E+003	2.4796918E-001	1.1837815E-004
3	0	1.029946380598340E+003	2.4780978E-001	-7.2477276E-005
3	0	1.030446380585709E+003	2.4763128E-001	6.1121522E-005
3	0	1.030946380573077E+003	2.4747057E-001	-1.6790499E-004
3	0	1.031446380560446E+003	2.4734317E-001	6.1121522E-005
3	0	1.031946380547815E+003	2.4721773E-001	4.2035979E-005
3	0	1.032446380535184E+003	2.4708910E-001	-1.2973390E-004
3	0	1.032946380522553E+003	2.4695748E-001	-9.1562819E-005
3	0	1.033446380509922E+003	2.4682479E-001	-1.5220648E-005
3	0	1.033946380497291E+003	2.4667759E-001	-2.4424717E-004
3	0	1.034446380484660E+003	2.4651690E-001	-1.6790499E-004
3	0	1.034946380472029E+003	2.4636905E-001	8.0207064E-005
3	0	1.035446380459398E+003	2.4625683E-001	3.8648941E-006
3	0	1.035946380446767E+003	2.4614616E-001	-1.1064836E-004
3	0	1.036446380434136E+003	2.4602456E-001	-1.4881945E-004
3	0	1.036946380421505E+003	2.4591097E-001	-7.2477276E-005
3	0	1.037446380408874E+003	2.4579589E-001	-5.3391734E-005
3	0	1.037946380396243E+003	2.4565944E-001	-1.5220648E-005
3	0	1.038446380383612E+003	2.4550347E-001	8.0207064E-005
3	0	1.038946380370980E+003	2.4536988E-001	3.8648941E-006
3	0	1.039446380358349E+003	2.4526444E-001	-5.3391734E-005
3	0	1.039946380345718E+003	2.4515851E-001	-1.5220648E-005
3	0	1.040446380333087E+003	2.4505323E-001	2.2950437E-005
3	0	1.040946380320456E+003	2.4494383E-001	-1.1064836E-004
3	0	1.041446380307825E+003	2.4482816E-001	-9.1562819E-005
3	0	1.041946380295194E+003	2.4470060E-001	2.2950437E-005
3	0	1.042446380282563E+003	2.4454840E-001	-5.3391734E-005
3	0	1.042946380269932E+003	2.4441661E-001	-5.3391734E-005
3	0	1.043446380257301E+003	2.4432096E-001	-3.4306191E-005
3	0	1.043946380244670E+003	2.4422657E-001	-3.4306191E-005
3	0	1.044446380232039E+003	2.4412496E-001	3.8648941E-006
3	0	1.044946380219408E+003	2.4401581E-001	-5.3391734E-005
3	0	1.045446380206777E+003	2.4391115E-001	-1.5220648E-005
3	0	1.045946380194146E+003	2.4378832E-001	3.8648941E-006
3	0	1.046446380181515E+003	2.4364015E-001	-3.4306191E-005
3	0	1.046946380168883E+003	2.4351598E-001	-9.1562819E-005
3	0	1.047446380156252E+003	2.4342601E-001	-1.8699054E-004
3	0	1.047946380143621E+003	2.4333556E-001	-1.6790499E-004
3	0	1.048446380130990E+003	2.4324559E-001	-1.5220648E-005
3	0	1.048946380118359E+003	2.4314652E-001	2.2950437E-005
3	0	1.049446380105728E+003	2.4304748E-001	-7.2477276E-005
3	0	1.049946380093097E+003	2.4292387E-001	-1.2973390E-004
3	0	1.050446380080466E+003	2.4277775E-001	-1.8699054E-004
3	0	1.050946380067835E+003	2.4265550E-001	-1.5220648E-005
3	0	1.051446380055204E+003	2.4256475E-001	-5.3391734E-005
3	0	1.051946380042573E+003	2.4246937E-001	-7.2477276E-005
3	0	1.052446380029942E+003	2.4237341E-001	-1.1064836E-004
3	0	1.052946380017311E+003	2.4227872E-001	4.2035979E-005
3	0	1.053446380004680E+003	2.4218138E-001	3.8648941E-006
3	0	1.053946379992049E+003	2.4207084E-001	-3.4306191E-005
3	0	1.054446379979418E+003	2.4193306E-001	-3.4306191E-005
3	0	1.054946379966786E+003	2.4181832E-001	-5.3391734E-005
3	0	1.055446379954155E+003	2.4173841E-001	4.2035979E-005
3	0	1.055946379941524E+003	2.4165614E-001	4.2035979E-005
3	0	1.056446379928893E+003	2.4156043E-001	-7.2477276E-005
3	0	1.056946379916262E+003	2.4147503E-001	-7.2477276E-005
3	0	1.057446379903631E+003	2.4138004E-001	-3.4306191E-005
3	0	1.057946379891000E+003	2.4127203E-001	3.8648941E-006
3	0	1.058446379878369E+003	2.4114044E-001	-7.2477276E-005
3	0	1.058946379865738E+003	2.4102928E-001	-1.5220648E-005
3	0	1.059446379853107E+003	2.4095426E-001	-5.3391734E-005
3	0	1.059946379840476E+003	2.4088085E-001	-1.1064836E-004
3	0	1.060446379827845E+003	2.4079794E-001	3.8648941E-006
3	0	1.060946379815214E+003	2.4071676E-001	-1.5220648E-005
3	0	1.061446379802583E+003	2.4063079E-001	4.2035979E-005
3	0	1.061946379789952E+003	2.4052811E-001	-7.2477276E-005
3	0	1.062446379777321E+003	2.4039786E-001	-1.5220648E-005
3	0	1.062946379764689E+003	2.4029657E-001	-1.4881945E-004
3	0	1.063446379752058E+003	2.4022569E-001	-5.3391734E-005
3	0	1.063946379739427E+003	2.4015643E-001	-1.4881945E-004
3	0	1.064446379726796E+003	2.4007951E-001	3.8648941E-006
3	0	1.064946379714165E+003	2.4000043E-001	-9.1562819E-005
3	0	1.065446379701534E+003	2.3992179E-001	-3.4306191E-005
3	0	1.065946379688903E+003	2.3982868E-001	-1.5220648E-005
3	0	1.066446379676272E+003	2.3971134E-001	-1.1064836E-004
3	0	1.066946379663641E+003	2.3960824E-001	-1.2973390E-004
3	0	1.067446379651010E+003	2.3953971E-001	-1.4881945E-004
3	0	1.067946379638379E+003	2.3947018E-001	-1.8699054E-004
3	0	1.068446379625748E+003	2.3939666E-001	-9.1562819E-005
3	0	1.068946379613117E+003	2.3931941E-001	-1.5220648E-005
3	0	1.069446379600486E+003	2.3923840E-001	-1.1064836E-004
3	0	1.069946379587855E+003	2.3913939E-001	-1.5220648E-005
3	0	1.070446379575224E+003	2.3902424E-001	2.2950437E-005
3	0	1.070946379562592E+003	2.3892172E-001	-7.2477276E-005
3	0	1.071446379549961E+003	2.3885104E-001	-1.1064836E-004
3	0	1.071946379537330E+003	2.3877685E-001	-7.2477276E-005
3	0	1.072446379524699E+003	2.3870267E-001	1.5654923E-004
3	0	1.072946379512068E+003	2.3862606E-001	9.9292607E-005
3	0	1.073446379499437E+003	2.3854381E-001	-1.5220648E-005
3	0	1.073946379486806E+003	2.3844483E-001	-1.1064836E-004
3	0	1.074446379474175E+003	2.3833099E-001	6.1121522E-005
3	0	1.074946379461544E+003	2.3823170E-001	-7.2477276E-005
3	0	1.075446379448913E+003	2.3816393E-001	-1.8699054E-004
3	0	1.075946379436282E+003	2.3809810E-001	-9.1562819E-005
3	0	1.076446379423651E+003	2.3802902E-001	-1.4881945E-004
3	0	1.076946379411020E+003	2.3796038E-001	-7.2477276E-005
3	0	1.077446379398389E+003	2.3789077E-001	-1.2973390E-004
3	0	1.077946379385758E+003	2.3779830E-001	-1.8699054E-004
3	0	1.078446379373127E+003	2.3769096E-001	-1.1064836E-004
3	0	1.078946379360495E+003	2.3759776E-001	8.0207064E-005
3	0	1.079446379347864E+003	2.3753729E-001	-3.4306191E-005
3	0	1.079946379335233E+003	2.3747447E-001	-1.2973390E-004
3	0	1.080446379322602E+003	2.3740536E-001	-1.1064836E-004
3	0	1.080946379309971E+003	2.3734096E-001	-1.1064836E-004
3	0	1.081446379297340E+003	2.3727526E-001	-7.2477276E-005
3	0	1.081946379284709E+003	2.3718439E-001	6.1121522E-005
3	0	1.082446379272078E+003	2.3707800E-001	-9.1562819E-005
3	0	1.082946379259447E+003	2.3698905E-001	8.0207064E-005
3	0	1.083446379246816E+003	2.3693323E-001	-1.2973390E-004
3	0	1.083946379234185E+003	2.3687658E-001	-7.2477276E-005
3	0	1.084446379221554E+003	2.3681751E-001	-5.3391734E-005
3	0	1.084946379208923E+003	2.3675804E-001	4.2035979E-005
3	0	1.085446379196292E+003	2.3669559E-001	-3.4306191E-005
3	0	1.085946379183661E+003	2.3660587E-001	9.9292607E-005
3	0	1.086446379171030E+003	2.3650216E-001	2.2950437E-005
3	0	1.086946379158398E+003	2.3641171E-001	1.1837815E-004
3	0	1.087446379145767E+003	2.3635772E-001	2.2950437E-005
3	0	1.087946379133136E+003	2.3630513E-001	-5.3391734E-005
3	0	1.088446379120505E+003	2.3624672E-001	-9.1562819E-005
3	0	1.088946379107874E+003	2.3618558E-001	-9.1562819E-005
3	0	1.089446379095243E+003	2.3611858E-001	3.8648941E-006
3	0	1.089946379082612E+003	2.3603280E-001	-1.5220648E-005
3	0	1.090446379069981E+003	2.3592687E-001	4.2035979E-005
3	0	1.090946379057350E+003	2.3583607E-001	6.1121522E-005
3	0	1.091446379044719E+003	2.3578005E-001	-5.3391734E-005
3	0	1.091946379032088E+003	2.3572327E-001	-5.3391734E-005
3	0	1.092446379019457E+003	2.3566417E-001	-1.5220648E-005
3	0	1.092946379006826E+003	2.3560062E-001	3.8648941E-006
3	0	1.093446378994195E+003	2.3553485E-001	6.1121522E-005
3	0	1.093946378981564E+003	2.3545614E-001	-3.4306191E-005
3	0	1.094446378968933E+003	2.3535648E-001	-3.4306191E-005
3	0	1.094946378956301E+003	2.3527372E-001	-1.1064836E-004
3	0	1.095446378943670E+003	2.3522033E-001	3.8648941E-006
3	0	1.095946378931039E+003	2.3517452E-001	-1.2973390E-004
3	0	1.096446378918408E+003	2.3512369E-001	-1.5220648E-005
3	0	1.096946378905777E+003	2.3506680E-001	-7.2477276E-005
3	0	1.097446378893146E+003	2.3500705E-001	-7.2477276E-005
3	0	1.097946378880515E+003	2.3492394E-001	-7.2477276E-005
3	0	1.098446378867884E+003	2.3482338E-001	4.2035979E-005
3	0	1.098946378855253E+003	2.3473783E-001	6.1121522E-005
3	0	1.099446378842622E+003	2.3468851E-001	3.8648941E-006
3	0	1.099946378829991E+003	2.3463839E-001	-1.6790499E-004
3	0	1.100446378817360E+003	2.3458724E-001	1.3746369E-004
3	0	1.100946378804729E+003	2.3453619E-001	-9.1562819E-005
3	0	1.101446378792098E+003	2.3448280E-001	2.2950437E-005
3	0	1.101946378779467E+003	2.3441732E-001	-1.5220648E-005
3	0	1.102446378766836E+003	2.3431991E-001	-3.4306191E-005
3	0	1.102946378754204E+003	2.3424269E-001	1.7563478E-004
3	0	1.103446378741573E+003	2.3420313E-001	9.9292607E-005
3	0	1.103946378728942E+003	2.3415402E-001	2.2950437E-005
3	0	1.104446378716311E+003	2.3410812E-001	-1.1064836E-004
3	0	1.104946378703680E+003	2.3405871E-001	2.2950437E-005
3	0	1.105446378691049E+003	2.3400807E-001	-7.2477276E-005
3	0	1.105946378678418E+003	2.3392969E-001	4.2035979E-005
3	0	1.106446378665787E+003	2.3384266E-001	1.1837815E-004
3	0	1.106946378653156E+003	2.3376307E-001	-1.1064836E-004
3	0	1.107446378640525E+003	2.3371969E-001	1.5654923E-004
3	0	1.107946378627894E+003	2.3367238E-001	3.8648941E-006
3	0	1.108446378615263E+003	2.3362863E-001	-5.3391734E-005
3	0	1.108946378602632E+003	2.3358104E-001	2.2950437E-005
3	0	1.109446378590001E+003	2.3352760E-001	-1.4881945E-004
3	0	1.109946378577370E+003	2.3344849E-001	-1.4881945E-004
3	0	1.110446378564739E+003	2.3335509E-001	-1.4881945E-004
3	0	1.110946378552107E+003	2.3327841E-001	-5.3391734E-005
3	0	1.111446378539476E+003	2.3323512E-001	-1.5220648E-005
3	0	1.111946378526845E+003	2.3317972E-001	-9.1562819E-005
3	0	1.112446378514214E+003	2.3312962E-001	-5.3391734E-005
3	0	1.112946378501583E+003	2.3308013E-001	2.2950437E-005
3	0	1.113446378488952E+003	2.3303179E-001	2.2950437E-005
3	0	1.113946378476321E+003	2.3296015E-001	3.8648941E-006
3	0	1.114446378463690E+003	2.3286906E-001	-1.5220648E-005
3	0	1.114946378451059E+003	2.3279750E-001	-1.5220648E-005
3	0	1.115446378438428E+003	2.3275897E-001	4.2035979E-005
3	0	1.115946378425797E+003	2.3270527E-001	-1.5220648E-005
3	0	1.116446378413166E+003	2.3266010E-001	-5.3391734E-005
3	0	1.116946378400535E+003	2.3261295E-001	-1.2973390E-004
3	0	1.117446378387904E+003	2.3256324E-001	-5.3391734E-005
3	0	1.117946378375273E+003	2.3249184E-001	-1.2973390E-004
3	0	1.118446378362642E+003	2.3240110E-001	-9.1562819E-005
3	0	1.118946378350010E+003	2.3232965E-001	-7.2477276E-005
3	0	1.119446378337379E+003	2.3229261E-001	4.2035979E-005
3	0	1.119946378324748E+003	2.3224032E-001	-7.2477276E-005
3	0	1.120446378312117E+003	2.3220135E-001	-1.1064836E-004
3	0	1.120946378299486E+003	2.3215631E-001	-1.1064836E-004
3	0	1.121446378286855E+003	2.3210303E-001	-1.2973390E-004
3	0	1.121946378274224E+003	2.3203550E-001	2.2950437E-005
3	0	1.122446378261593E+003	2.3194949E-001	-1.4881945E-004
3	0	1.122946378248962E+003	2.3188405E-001	3.8648941E-006
3	0	1.123446378236331E+003	2.3184879E-001	-1.1064836E-004
3	0	1.123946378223700E+003	2.3180087E-001	-5.3391734E-005
3	0	1.124446378211069E+003	2.3175853E-001	-3.4306191E-005
3	0	1.124946378198438E+003	2.3171712E-001	-3.4306191E-005
3	0	1.125446378185807E+003	2.3167203E-001	3.8648941E-006
3	0	1.125946378173176E+003	2.3160595E-001	-7.2477276E-005
3	0	1.125946778173166E+003	2.3152366E-001	-1.5220648E-005