EC-Lab ASCII FILE
Nb header lines : 55                          

Open Circuit Voltage

Run on channel : 1 (SN 81504)
User : 
CE vs. WE compliance from -10 V to 10 V
Electrode connection : standard
Potential control : Ewe
Ewe ctrl range : min = -2.50 V, max = 2.50 V
Safety Limits :
	Do not start on E overload
Acquisition started on : 05/10/2026 02:27:32.112
Loaded Setting File :  C:\PEM-WE_measurements\2026\372_IV_IV IrOx, 5 min Pt, 30 min C, etched cathode\new station\Loopeis new\1,46 V different time gaps closed cell\Loopeis 1,46V_60s_3_PEIS from 6500Hz to 1000Hz.mps
Saved on :
	File : L_13_Loopeis 1,46V_60s_3_PEIS from 6500Hz to 1000Hz_02_OCV_C01.mpr
	Directory : C:\PEM-WE_measurements\2026\372_IV_IV IrOx, 5 min Pt, 30 min C, etched cathode\new station\Loopeis new\1,46 V different time gaps closed cell\
	Host : 192.168.0.2
Device : SP-150e (SN .005491)
Address : 192.168.0.91
EC-LAB for windows v11.71 (software)
Internet server v28.00 (firmware)
Command interpretor v14.01 (firmware)
Electrode material : 
Initial state : 
Electrolyte : 
Comments : 
Current amplifier : SP-150eB-20A
Electrode surface area : 0.001 cm²
Characteristic mass : 0.001 g
Equivalent Weight : 0.000 g/eq.
Density : 0.000 g/cm3
Volume (V) : 0.001 cm³
Record Analogic IN 1
Text export
   Mode : Standard
   Time format : Elapsed
Cycle Definition : Charge/Discharge alternance
External device configuration :
   device type : Temperature Probe
   device name : Other
   Analog IN 1 : 
      unit : T/Â°C
      max : 100.000 at 2.000 V
      min : 0.000 at 1.460 V
tR (h:m:s)          0:01:0.0000         
dER/dt (mV/h)       1.0                 
record              <Ewe>               
dER (mV)            10.00               
dtR (s)             0.5000              
E range min (V)     -2.500              
E range max (V)     2.500               

mode	error	time/s	<Ewe/V>	Analog IN 1/V	
3	0	4.549979885057837E+001	1.4167625E+000	-2.7040506E+002
3	0	4.599979883794731E+001	1.4079376E+000	-2.7037326E+002
3	0	4.649979882531625E+001	1.4019647E+000	-2.7038385E+002
3	0	4.699979881268519E+001	1.3974423E+000	-2.7038742E+002
3	0	4.749979880005412E+001	1.3938407E+000	-2.7038031E+002
3	0	4.799979878742306E+001	1.3908850E+000	-2.7037326E+002
3	0	4.849979877479200E+001	1.3883353E+000	-2.7036972E+002
3	0	4.899979876216094E+001	1.3860676E+000	-2.7038031E+002
3	0	4.949979874952987E+001	1.3840238E+000	-2.7037677E+002
3	0	4.999979873689881E+001	1.3821465E+000	-2.7034497E+002
3	0	5.049979872426775E+001	1.3803562E+000	-2.7037677E+002
3	0	5.099979871163669E+001	1.3786072E+000	-2.7036972E+002
3	0	5.149979869900562E+001	1.3770047E+000	-2.7036618E+002
3	0	5.199979868637456E+001	1.3755832E+000	-2.7037326E+002
3	0	5.249979867374350E+001	1.3742700E+000	-2.7037326E+002
3	0	5.299979866111244E+001	1.3730251E+000	-2.7037677E+002
3	0	5.349979864848137E+001	1.3718503E+000	-2.7040155E+002
3	0	5.399979863585031E+001	1.3707360E+000	-2.7037326E+002
3	0	5.449979862321925E+001	1.3696293E+000	-2.7038031E+002
3	0	5.499979861058819E+001	1.3684920E+000	-2.7037677E+002
3	0	5.549979859795712E+001	1.3674855E+000	-2.7037326E+002
3	0	5.599979858532606E+001	1.3665985E+000	-2.7038031E+002
3	0	5.649979857269500E+001	1.3657672E+000	-2.7038385E+002
3	0	5.699979856006394E+001	1.3649905E+000	-2.7039447E+002
3	0	5.749979854743287E+001	1.3642603E+000	-2.7039447E+002
3	0	5.799979853480181E+001	1.3635564E+000	-2.7038031E+002
3	0	5.849979852217075E+001	1.3628256E+000	-2.7040155E+002
3	0	5.899979850953969E+001	1.3620424E+000	-2.7039093E+002
3	0	5.949979849690862E+001	1.3613564E+000	-2.7039447E+002
3	0	5.999979848427756E+001	1.3607816E+000	-2.7038385E+002
3	0	6.049979847164650E+001	1.3602288E+000	-2.7037677E+002
3	0	6.099979845901544E+001	1.3596975E+000	-2.7037677E+002
3	0	6.149979844638438E+001	1.3591837E+000	-2.7038031E+002
3	0	6.199979843375331E+001	1.3586780E+000	-2.7037326E+002
3	0	6.249979842112225E+001	1.3581272E+000	-2.7039093E+002
3	0	6.299979840849119E+001	1.3575151E+000	-2.7038031E+002
3	0	6.349979839586013E+001	1.3569841E+000	-2.7039093E+002
3	0	6.399979838322906E+001	1.3565328E+000	-2.7037677E+002
3	0	6.449979837059800E+001	1.3561108E+000	-2.7038031E+002
3	0	6.499979835796694E+001	1.3556879E+000	-2.7040506E+002
3	0	6.549979834533588E+001	1.3552855E+000	-2.7038742E+002
3	0	6.599979833270481E+001	1.3548605E+000	-2.7039093E+002
3	0	6.649979832007375E+001	1.3543860E+000	-2.7037326E+002
3	0	6.699979830744269E+001	1.3538313E+000	-2.7038031E+002
3	0	6.749979829481163E+001	1.3533578E+000	-2.7037677E+002
3	0	6.799979828218056E+001	1.3529598E+000	-2.7037326E+002
3	0	6.849979826954950E+001	1.3525712E+000	-2.7035559E+002
3	0	6.899979825691844E+001	1.3521839E+000	-2.7034851E+002
3	0	6.949979824428738E+001	1.3518071E+000	-2.7038031E+002
3	0	6.999979823165631E+001	1.3514284E+000	-2.7037677E+002
3	0	7.049979821902525E+001	1.3509839E+000	-2.7038742E+002
3	0	7.099979820639419E+001	1.3504716E+000	-2.7040155E+002
3	0	7.149979819376313E+001	1.3500220E+000	-2.7038742E+002
3	0	7.199979818113206E+001	1.3496534E+000	-2.7038742E+002
3	0	7.249979816850100E+001	1.3492916E+000	-2.7036972E+002
3	0	7.299979815586994E+001	1.3489182E+000	-2.7037677E+002
3	0	7.349979814323888E+001	1.3485705E+000	-2.7038742E+002
3	0	7.399979813060781E+001	1.3482112E+000	-2.7039093E+002
3	0	7.449979811797675E+001	1.3478045E+000	-2.7037326E+002
3	0	7.499979810534569E+001	1.3473406E+000	-2.7038742E+002
3	0	7.549979809271463E+001	1.3469558E+000	-2.7038031E+002
3	0	7.599979808008356E+001	1.3466530E+000	-2.7037326E+002
3	0	7.649979806745250E+001	1.3463633E+000	-2.7036618E+002
3	0	7.699979805482144E+001	1.3460814E+000	-2.7038031E+002
3	0	7.749979804219038E+001	1.3458207E+000	-2.7038385E+002
3	0	7.799979802955932E+001	1.3455346E+000	-2.7036618E+002
3	0	7.849979801692825E+001	1.3451955E+000	-2.7038031E+002
3	0	7.899979800429719E+001	1.3447791E+000	-2.7039447E+002
3	0	7.949979799166613E+001	1.3444346E+000	-2.7037326E+002
3	0	7.999979797903507E+001	1.3441619E+000	-2.7039093E+002
3	0	8.049979796640400E+001	1.3438993E+000	-2.7038031E+002
3	0	8.099979795377294E+001	1.3436258E+000	-2.7036972E+002
3	0	8.149979794114188E+001	1.3433588E+000	-2.7036618E+002
3	0	8.199979792851082E+001	1.3430805E+000	-2.7040506E+002
3	0	8.249979791587975E+001	1.3427402E+000	-2.7039447E+002
3	0	8.299979790324869E+001	1.3423265E+000	-2.7039093E+002
3	0	8.349979789061763E+001	1.3419689E+000	-2.7038385E+002
3	0	8.399979787798657E+001	1.3416824E+000	-2.7038031E+002
3	0	8.449979786535550E+001	1.3413949E+000	-2.7034851E+002
3	0	8.499979785272444E+001	1.3410972E+000	-2.7036267E+002
3	0	8.549979784009338E+001	1.3408071E+000	-2.7037677E+002
3	0	8.599979782746232E+001	1.3405006E+000	-2.7036267E+002
3	0	8.649979781483125E+001	1.3401241E+000	-2.7039093E+002
3	0	8.699979780220019E+001	1.3396816E+000	-2.7038742E+002
3	0	8.749979778956913E+001	1.3392969E+000	-2.7038385E+002
3	0	8.799979777693807E+001	1.3389868E+000	-2.7036618E+002
3	0	8.849979776430700E+001	1.3386850E+000	-2.7038031E+002
3	0	8.899979775167594E+001	1.3383731E+000	-2.7038031E+002
3	0	8.949979773904488E+001	1.3380675E+000	-2.7036618E+002
3	0	8.999979772641382E+001	1.3377399E+000	-2.7036618E+002
3	0	9.049979771378275E+001	1.3373424E+000	-2.7037326E+002
3	0	9.099979770115169E+001	1.3368776E+000	-2.7036618E+002
3	0	9.149979768852063E+001	1.3364717E+000	-2.7035559E+002
3	0	9.199979767588957E+001	1.3361301E+000	-2.7040155E+002
3	0	9.249979766325851E+001	1.3358020E+000	-2.7037677E+002
3	0	9.299979765062744E+001	1.3354666E+000	-2.7038742E+002
3	0	9.349979763799638E+001	1.3351330E+000	-2.7037677E+002
3	0	9.399979762536532E+001	1.3347976E+000	-2.7038031E+002
3	0	9.449979761273426E+001	1.3344086E+000	-2.7038742E+002
3	0	9.499979760010319E+001	1.3339548E+000	-2.7038031E+002
3	0	9.549979758747213E+001	1.3335762E+000	-2.7038031E+002
3	0	9.599979757484107E+001	1.3332890E+000	-2.7037677E+002
3	0	9.649979756221001E+001	1.3330126E+000	-2.7038385E+002
3	0	9.699979754957894E+001	1.3327335E+000	-2.7037326E+002
3	0	9.749979753694788E+001	1.3324621E+000	-2.7037677E+002
3	0	9.799979752431682E+001	1.3321873E+000	-2.7036618E+002
3	0	9.849979751168576E+001	1.3318627E+000	-2.7039093E+002
3	0	9.899979749905469E+001	1.3314666E+000	-2.7036972E+002
3	0	9.949979748642363E+001	1.3311342E+000	-2.7037326E+002
3	0	9.999979747379257E+001	1.3308750E+000	-2.7036972E+002
3	0	1.004997974611615E+002	1.3306245E+000	-2.7040155E+002
3	0	1.009997974485304E+002	1.3303711E+000	-2.7038742E+002
3	0	1.014997974358994E+002	1.3301047E+000	-2.7038742E+002
3	0	1.019997974232683E+002	1.3298264E+000	-2.7038031E+002
3	0	1.024997974106373E+002	1.3294895E+000	-2.7038031E+002
3	0	1.029997973980062E+002	1.3290861E+000	-2.7038742E+002
3	0	1.034997973853751E+002	1.3287289E+000	-2.7036618E+002
3	0	1.039997973727441E+002	1.3284471E+000	-2.7039093E+002
3	0	1.044997973601130E+002	1.3281674E+000	-2.7039801E+002
3	0	1.049997973474819E+002	1.3278748E+000	-2.7040506E+002
3	0	1.050001973474718E+002	1.3277252E+000	-2.7036267E+002