EC-Lab ASCII FILE
Nb header lines : 48                          

Open Circuit Voltage

Run on channel : 1 (SN 81504)
User : 
CE vs. WE compliance from -10 V to 10 V
Electrode connection : standard
Potential control : Ewe
Ewe ctrl range : min = -2.50 V, max = 2.50 V
Safety Limits :
	Do not start on E overload
Acquisition started on : 05/07/2026 15:31:18.757
Loaded Setting File :  C:\PEM-WE_measurements\2026\372_IV_IV IrOx, 5 min Pt, 30 min C, etched cathode\new station\Loopeis new\1,46 V different time gaps open cell\Loopeis 1,46V_45s_2_PEIS from 65kHz to 10kHz.mps
Saved on :
	File : L_07_Loopeis 1,46V_45s_2_PEIS from 65kHz to 10kHz_10_OCV_C01.mpr
	Directory : C:\PEM-WE_measurements\2026\372_IV_IV IrOx, 5 min Pt, 30 min C, etched cathode\new station\Loopeis new\1,46 V different time gaps open cell\
	Host : 192.168.0.2
Device : SP-150e (SN .005491)
Address : 192.168.0.91
EC-LAB for windows v11.71 (software)
Internet server v28.00 (firmware)
Command interpretor v14.01 (firmware)
Electrode material : 
Initial state : 
Electrolyte : 
Comments : 
Current amplifier : SP-150eB-20A
Electrode surface area : 0.001 cm²
Characteristic mass : 0.001 g
Equivalent Weight : 0.000 g/eq.
Density : 0.000 g/cm3
Volume (V) : 0.001 cm³
Record Analogic IN 1
Text export
   Mode : Standard
   Time format : Elapsed
Cycle Definition : Charge/Discharge alternance
tR (h:m:s)          0:00:45.0000        
dER/dt (mV/h)       1.0                 
record              <Ewe>               
dER (mV)            10.00               
dtR (s)             0.5000              
E range min (V)     -2.500              
E range max (V)     2.500               

mode	error	time/s	<Ewe/V>	Analog IN 1/V	
3	0	4.062733963410574E+002	1.2766703E+000	2.2950437E-005
3	0	4.067733963284263E+002	1.2711823E+000	3.8648941E-006
3	0	4.072733963157953E+002	1.2338865E+000	2.2950437E-005
3	0	4.077733963031642E+002	1.1563324E+000	-1.6790499E-004
3	0	4.082733962905331E+002	8.9743304E-001	6.1121522E-005
3	0	4.087733962779021E+002	4.6199852E-001	-1.1064836E-004
3	0	4.092733962652710E+002	3.5477769E-001	-1.1064836E-004
3	0	4.097733962526399E+002	3.3975789E-001	3.8648941E-006
3	0	4.102733962400089E+002	3.3091384E-001	3.8648941E-006
3	0	4.107733962273778E+002	3.2397622E-001	4.2035979E-005
3	0	4.112733962147468E+002	3.1876376E-001	-3.4306191E-005
3	0	4.117733962021157E+002	3.1480137E-001	1.3746369E-004
3	0	4.122733961894846E+002	3.1171295E-001	-3.4306191E-005
3	0	4.127733961768536E+002	3.0923608E-001	-1.1064836E-004
3	0	4.132733961642225E+002	3.0717769E-001	-9.1562819E-005
3	0	4.137733961515914E+002	3.0541965E-001	2.2950437E-005
3	0	4.142733961389604E+002	3.0390006E-001	2.2950437E-005
3	0	4.147733961263293E+002	3.0259812E-001	-7.2477276E-005
3	0	4.152733961136983E+002	3.0144110E-001	2.2950437E-005
3	0	4.157733961010672E+002	3.0038932E-001	-1.5220648E-005
3	0	4.162733960884361E+002	2.9942587E-001	-1.1064836E-004
3	0	4.167733960758051E+002	2.9853278E-001	-3.4306191E-005
3	0	4.172733960631740E+002	2.9768577E-001	-1.5220648E-005
3	0	4.177733960505429E+002	2.9685387E-001	-1.5220648E-005
3	0	4.182733960379119E+002	2.9605898E-001	6.1121522E-005
3	0	4.187733960252808E+002	2.9533651E-001	-1.1064836E-004
3	0	4.192733960126498E+002	2.9465178E-001	-5.3391734E-005
3	0	4.197733960000187E+002	2.9398215E-001	-7.2477276E-005
3	0	4.202733959873876E+002	2.9333842E-001	2.2950437E-005
3	0	4.207733959747566E+002	2.9270348E-001	-1.1064836E-004
3	0	4.212733959621255E+002	2.9206985E-001	-9.1562819E-005
3	0	4.217733959494944E+002	2.9141703E-001	-1.4881945E-004
3	0	4.222733959368634E+002	2.9078519E-001	-1.5220648E-005
3	0	4.227733959242323E+002	2.9019865E-001	4.2035979E-005
3	0	4.232733959116013E+002	2.8962940E-001	-7.2477276E-005
3	0	4.237733958989702E+002	2.8906253E-001	-9.1562819E-005
3	0	4.242733958863391E+002	2.8850964E-001	-1.4881945E-004
3	0	4.247733958737081E+002	2.8795600E-001	-1.1064836E-004
3	0	4.252733958610770E+002	2.8739104E-001	-7.2477276E-005
3	0	4.257733958484459E+002	2.8681508E-001	4.2035979E-005
3	0	4.262733958358149E+002	2.8624004E-001	-1.5220648E-005
3	0	4.267733958231838E+002	2.8570724E-001	-5.3391734E-005
3	0	4.272733958105528E+002	2.8518564E-001	3.8648941E-006
3	0	4.277733957979217E+002	2.8467020E-001	-5.3391734E-005
3	0	4.282733957852906E+002	2.8415191E-001	8.0207064E-005
3	0	4.287733957726596E+002	2.8363076E-001	-9.1562819E-005
3	0	4.292733957600285E+002	2.8311366E-001	-9.1562819E-005
3	0	4.297733957473974E+002	2.8257576E-001	3.8648941E-006
3	0	4.302733957347664E+002	2.8205329E-001	-7.2477276E-005
3	0	4.307733957221353E+002	2.8156295E-001	-5.3391734E-005
3	0	4.312733957095043E+002	2.8108492E-001	3.8648941E-006
3	0	4.317733956968732E+002	2.8060645E-001	-1.5220648E-005
3	0	4.322733956842421E+002	2.8012362E-001	2.2950437E-005
3	0	4.327733956716111E+002	2.7964842E-001	9.9292607E-005
3	0	4.332733956589800E+002	2.7916598E-001	-1.4881945E-004
3	0	4.337733956463489E+002	2.7866623E-001	-9.1562819E-005
3	0	4.342733956337179E+002	2.7816972E-001	-3.4306191E-005
3	0	4.347733956210868E+002	2.7771580E-001	6.1121522E-005
3	0	4.352733956084558E+002	2.7726996E-001	-7.2477276E-005
3	0	4.357733955958247E+002	2.7682638E-001	-1.1064836E-004
3	0	4.362733955831936E+002	2.7637172E-001	-1.1064836E-004
3	0	4.367733955705626E+002	2.7592573E-001	-5.3391734E-005
3	0	4.372733955579315E+002	2.7547687E-001	-1.1064836E-004
3	0	4.377733955453004E+002	2.7500531E-001	-1.4881945E-004
3	0	4.382733955326694E+002	2.7454734E-001	-1.2973390E-004
3	0	4.387733955200383E+002	2.7412912E-001	-1.5220648E-005
3	0	4.392733955074073E+002	2.7371317E-001	-9.1562819E-005
3	0	4.397733954947762E+002	2.7329025E-001	-3.4306191E-005
3	0	4.402733954821451E+002	2.7287900E-001	-3.4306191E-005
3	0	4.407733954695141E+002	2.7246529E-001	-9.1562819E-005
3	0	4.412733954568830E+002	2.7205446E-001	4.2035979E-005
3	0	4.417733954442519E+002	2.7161571E-001	-5.3391734E-005
3	0	4.422733954316209E+002	2.7118489E-001	-7.2477276E-005
3	0	4.427733954189898E+002	2.7080092E-001	-9.1562819E-005
3	0	4.432733954063588E+002	2.7041769E-001	2.2950437E-005
3	0	4.437733953937277E+002	2.7002901E-001	-1.2973390E-004
3	0	4.442733953810966E+002	2.6965746E-001	3.8648941E-006
3	0	4.447733953684656E+002	2.6928192E-001	-1.5220648E-005
3	0	4.452733953558345E+002	2.6889527E-001	-3.4306191E-005
3	0	4.457733953432034E+002	2.6849076E-001	-5.3391734E-005
3	0	4.462733953305724E+002	2.6809776E-001	-5.3391734E-005
3	0	4.467733953179413E+002	2.6774552E-001	-2.4424717E-004
3	0	4.472733953053103E+002	2.6739484E-001	-9.1562819E-005
3	0	4.477733952926792E+002	2.6704553E-001	-3.4306191E-005
3	0	4.482733952800481E+002	2.6669461E-001	3.8648941E-006
3	0	4.487733952674171E+002	2.6634479E-001	-2.4424717E-004
3	0	4.492733952547860E+002	2.6599056E-001	4.2035979E-005
3	0	4.497733952421549E+002	2.6561281E-001	2.2950437E-005
3	0	4.502733952295239E+002	2.6524544E-001	-3.4306191E-005
3	0	4.507733952168928E+002	2.6491642E-001	-3.4306191E-005
3	0	4.507737952168827E+002	2.6466277E-001	-5.3391734E-005