EC-Lab ASCII FILE
Nb header lines : 55                          

Open Circuit Voltage

Run on channel : 1 (SN 81504)
User : 
CE vs. WE compliance from -10 V to 10 V
Electrode connection : standard
Potential control : Ewe
Ewe ctrl range : min = -2.50 V, max = 2.50 V
Safety Limits :
	Do not start on E overload
Acquisition started on : 05/08/2026 01:25:27.042
Loaded Setting File :  C:\PEM-WE_measurements\2026\372_IV_IV IrOx, 5 min Pt, 30 min C, etched cathode\new station\Loopeis new\1,46 V different time gaps open cell\Loopeis 1,46V_180s_5_PEIS from 65Hz to 10Hz.mps
Saved on :
	File : L_30_Loopeis 1,46V_180s_5_PEIS from 65Hz to 10Hz_16_OCV_C01.mpr
	Directory : C:\PEM-WE_measurements\2026\372_IV_IV IrOx, 5 min Pt, 30 min C, etched cathode\new station\Loopeis new\1,46 V different time gaps open cell\
	Host : 192.168.0.2
Device : SP-150e (SN .005491)
Address : 192.168.0.91
EC-LAB for windows v11.71 (software)
Internet server v28.00 (firmware)
Command interpretor v14.01 (firmware)
Electrode material : 
Initial state : 
Electrolyte : 
Comments : 
Current amplifier : SP-150eB-20A
Electrode surface area : 0.001 cm²
Characteristic mass : 0.001 g
Equivalent Weight : 0.000 g/eq.
Density : 0.000 g/cm3
Volume (V) : 0.001 cm³
Record Analogic IN 1
Text export
   Mode : Standard
   Time format : Elapsed
Cycle Definition : Charge/Discharge alternance
External device configuration :
   device type : Temperature Probe
   device name : Other
   Analog IN 1 : 
      unit : T/Â°C
      max : 100.000 at 2.000 V
      min : 0.000 at 1.460 V
tR (h:m:s)          0:03:0.0000         
dER/dt (mV/h)       1.0                 
record              <Ewe>               
dER (mV)            10.00               
dtR (s)             0.5000              
E range min (V)     -2.500              
E range max (V)     2.500               

mode	error	time/s	<Ewe/V>	Analog IN 1/V	
3	0	1.636305772911510E+003	1.2208366E+000	-2.7039447E+002
3	0	1.636805772898879E+003	1.1799412E+000	-2.7037677E+002
3	0	1.637305772886248E+003	8.4485745E-001	-2.7038385E+002
3	0	1.637805772873617E+003	4.3388537E-001	-2.7039801E+002
3	0	1.638305772860986E+003	3.4619462E-001	-2.7036972E+002
3	0	1.638805772848355E+003	3.3337504E-001	-2.7037326E+002
3	0	1.639305772835723E+003	3.2544494E-001	-2.7038385E+002
3	0	1.639805772823092E+003	3.1917667E-001	-2.7038385E+002
3	0	1.640305772810461E+003	3.1440884E-001	-2.7037677E+002
3	0	1.640805772797830E+003	3.1074542E-001	-2.7038385E+002
3	0	1.641305772785199E+003	3.0785993E-001	-2.7036267E+002
3	0	1.641805772772568E+003	3.0550906E-001	-2.7038742E+002
3	0	1.642305772759937E+003	3.0354828E-001	-2.7039801E+002
3	0	1.642805772747306E+003	3.0190018E-001	-2.7038031E+002
3	0	1.643305772734675E+003	3.0048540E-001	-2.7036972E+002
3	0	1.643805772722044E+003	2.9923224E-001	-2.7035913E+002
3	0	1.644305772709413E+003	2.9811805E-001	-2.7038031E+002
3	0	1.644805772696782E+003	2.9709849E-001	-2.7035913E+002
3	0	1.645305772684151E+003	2.9615986E-001	-2.7040155E+002
3	0	1.645805772671520E+003	2.9526502E-001	-2.7038385E+002
3	0	1.646305772658889E+003	2.9441500E-001	-2.7038031E+002
3	0	1.646805772646258E+003	2.9363197E-001	-2.7039801E+002
3	0	1.647305772633626E+003	2.9290268E-001	-2.7039447E+002
3	0	1.647805772620995E+003	2.9220366E-001	-2.7036972E+002
3	0	1.648305772608364E+003	2.9152966E-001	-2.7040506E+002
3	0	1.648805772595733E+003	2.9087353E-001	-2.7036618E+002
3	0	1.649305772583102E+003	2.9023421E-001	-2.7037677E+002
3	0	1.649805772570471E+003	2.8959426E-001	-2.7037326E+002
3	0	1.650305772557840E+003	2.8895581E-001	-2.7036972E+002
3	0	1.650805772545209E+003	2.8834853E-001	-2.7040155E+002
3	0	1.651305772532578E+003	2.8777310E-001	-2.7036972E+002
3	0	1.651805772519947E+003	2.8719735E-001	-2.7036618E+002
3	0	1.652305772507316E+003	2.8663430E-001	-2.7037326E+002
3	0	1.652805772494685E+003	2.8608459E-001	-2.7036972E+002
3	0	1.653305772482054E+003	2.8554216E-001	-2.7038742E+002
3	0	1.653805772469423E+003	2.8498423E-001	-2.7039801E+002
3	0	1.654305772456792E+003	2.8442091E-001	-2.7039447E+002
3	0	1.654805772444161E+003	2.8388295E-001	-2.7039447E+002
3	0	1.655305772431529E+003	2.8337270E-001	-2.7038031E+002
3	0	1.655805772418898E+003	2.8286090E-001	-2.7038742E+002
3	0	1.656305772406267E+003	2.8236601E-001	-2.7036618E+002
3	0	1.656805772393636E+003	2.8187257E-001	-2.7038031E+002
3	0	1.657305772381005E+003	2.8137550E-001	-2.7035559E+002
3	0	1.657805772368374E+003	2.8087062E-001	-2.7035205E+002
3	0	1.658305772355743E+003	2.8035372E-001	-2.7040155E+002
3	0	1.658805772343112E+003	2.7986369E-001	-2.7038031E+002
3	0	1.659305772330481E+003	2.7940473E-001	-2.7037326E+002
3	0	1.659805772317850E+003	2.7894008E-001	-2.7040155E+002
3	0	1.660305772305219E+003	2.7848631E-001	-2.7039093E+002
3	0	1.660805772292588E+003	2.7803156E-001	-2.7036618E+002
3	0	1.661305772279957E+003	2.7757317E-001	-2.7036267E+002
3	0	1.661805772267326E+003	2.7710345E-001	-2.7036618E+002
3	0	1.662305772254695E+003	2.7662149E-001	-2.7040155E+002
3	0	1.662805772242064E+003	2.7616599E-001	-2.7039801E+002
3	0	1.663305772229432E+003	2.7573583E-001	-2.7038385E+002
3	0	1.663805772216801E+003	2.7529529E-001	-2.7034497E+002
3	0	1.664305772204170E+003	2.7487183E-001	-2.7036972E+002
3	0	1.664805772191539E+003	2.7445817E-001	-2.7037677E+002
3	0	1.665305772178908E+003	2.7404296E-001	-2.7038031E+002
3	0	1.665805772166277E+003	2.7361000E-001	-2.7038742E+002
3	0	1.666305772153646E+003	2.7316698E-001	-2.7037326E+002
3	0	1.666805772141015E+003	2.7274930E-001	-2.7036267E+002
3	0	1.667305772128384E+003	2.7236500E-001	-2.7037326E+002
3	0	1.667805772115753E+003	2.7197340E-001	-2.7038385E+002
3	0	1.668305772103122E+003	2.7158010E-001	-2.7036618E+002
3	0	1.668805772090491E+003	2.7119264E-001	-2.7036972E+002
3	0	1.669305772077860E+003	2.7080926E-001	-2.7036972E+002
3	0	1.669805772065229E+003	2.7041072E-001	-2.7035559E+002
3	0	1.670305772052598E+003	2.6999637E-001	-2.7035559E+002
3	0	1.670805772039967E+003	2.6962200E-001	-2.7037677E+002
3	0	1.671305772027335E+003	2.6926917E-001	-2.7038031E+002
3	0	1.671805772014704E+003	2.6890630E-001	-2.7035913E+002
3	0	1.672305772002073E+003	2.6854843E-001	-2.7038031E+002
3	0	1.672805771989442E+003	2.6820087E-001	-2.7038742E+002
3	0	1.673305771976811E+003	2.6784548E-001	-2.7039093E+002
3	0	1.673805771964180E+003	2.6747397E-001	-2.7038031E+002
3	0	1.674305771951549E+003	2.6708838E-001	-2.7040506E+002
3	0	1.674805771938918E+003	2.6673239E-001	-2.7039093E+002
3	0	1.675305771926287E+003	2.6640102E-001	-2.7036618E+002
3	0	1.675805771913656E+003	2.6606706E-001	-2.7042273E+002
3	0	1.676305771901025E+003	2.6574343E-001	-2.7038742E+002
3	0	1.676805771888394E+003	2.6541725E-001	-2.7038031E+002
3	0	1.677305771875763E+003	2.6508892E-001	-2.7037326E+002
3	0	1.677805771863132E+003	2.6475129E-001	-2.7036618E+002
3	0	1.678305771850501E+003	2.6440394E-001	-2.7036618E+002
3	0	1.678805771837870E+003	2.6407734E-001	-2.7036618E+002
3	0	1.679305771825238E+003	2.6377580E-001	-2.7038031E+002
3	0	1.679805771812607E+003	2.6346752E-001	-2.7038031E+002
3	0	1.680305771799976E+003	2.6316741E-001	-2.7039093E+002
3	0	1.680805771787345E+003	2.6287249E-001	-2.7038385E+002
3	0	1.681305771774714E+003	2.6256886E-001	-2.7037326E+002
3	0	1.681805771762083E+003	2.6225406E-001	-2.7038385E+002
3	0	1.682305771749452E+003	2.6193056E-001	-2.7037326E+002
3	0	1.682805771736821E+003	2.6162133E-001	-2.7038385E+002
3	0	1.683305771724190E+003	2.6134294E-001	-2.7038031E+002
3	0	1.683805771711559E+003	2.6106441E-001	-2.7038742E+002
3	0	1.684305771698928E+003	2.6078698E-001	-2.7039093E+002
3	0	1.684805771686297E+003	2.6051107E-001	-2.7039093E+002
3	0	1.685305771673666E+003	2.6023033E-001	-2.7036972E+002
3	0	1.685805771661035E+003	2.5993615E-001	-2.7038031E+002
3	0	1.686305771648404E+003	2.5963417E-001	-2.7038742E+002
3	0	1.686805771635773E+003	2.5936514E-001	-2.7039093E+002
3	0	1.687305771623141E+003	2.5911915E-001	-2.7036972E+002
3	0	1.687805771610510E+003	2.5886273E-001	-2.7036972E+002
3	0	1.688305771597879E+003	2.5861105E-001	-2.7039801E+002
3	0	1.688805771585248E+003	2.5836083E-001	-2.7039093E+002
3	0	1.689305771572617E+003	2.5810835E-001	-2.7036972E+002
3	0	1.689805771559986E+003	2.5784951E-001	-2.7039093E+002
3	0	1.690305771547355E+003	2.5756529E-001	-2.7036972E+002
3	0	1.690805771534724E+003	2.5731525E-001	-2.7037326E+002
3	0	1.691305771522093E+003	2.5708106E-001	-2.7039447E+002
3	0	1.691805771509462E+003	2.5685495E-001	-2.7036972E+002
3	0	1.692305771496831E+003	2.5662518E-001	-2.7036618E+002
3	0	1.692805771484200E+003	2.5639802E-001	-2.7037326E+002
3	0	1.693305771471569E+003	2.5616956E-001	-2.7038031E+002
3	0	1.693805771458938E+003	2.5592017E-001	-2.7036618E+002
3	0	1.694305771446307E+003	2.5566155E-001	-2.7037326E+002
3	0	1.694805771433676E+003	2.5543338E-001	-2.7039093E+002
3	0	1.695305771421044E+003	2.5522450E-001	-2.7035205E+002
3	0	1.695805771408413E+003	2.5501221E-001	-2.7036972E+002
3	0	1.696305771395782E+003	2.5481144E-001	-2.7037326E+002
3	0	1.696805771383151E+003	2.5459906E-001	-2.7037326E+002
3	0	1.697305771370520E+003	2.5439397E-001	-2.7038385E+002
3	0	1.697805771357889E+003	2.5416562E-001	-2.7038742E+002
3	0	1.698305771345258E+003	2.5391954E-001	-2.7040155E+002
3	0	1.698805771332627E+003	2.5370851E-001	-2.7037677E+002
3	0	1.699305771319996E+003	2.5351602E-001	-2.7038742E+002
3	0	1.699805771307365E+003	2.5331748E-001	-2.7039093E+002
3	0	1.700305771294734E+003	2.5312924E-001	-2.7038385E+002
3	0	1.700805771282103E+003	2.5294423E-001	-2.7038742E+002
3	0	1.701305771269472E+003	2.5274622E-001	-2.7036972E+002
3	0	1.701805771256841E+003	2.5253814E-001	-2.7036267E+002
3	0	1.702305771244210E+003	2.5231063E-001	-2.7039093E+002
3	0	1.702805771231579E+003	2.5210699E-001	-2.7037677E+002
3	0	1.703305771218947E+003	2.5192899E-001	-2.7037677E+002
3	0	1.703805771206316E+003	2.5174469E-001	-2.7040506E+002
3	0	1.704305771193685E+003	2.5156355E-001	-2.7034497E+002
3	0	1.704805771181054E+003	2.5137916E-001	-2.7038742E+002
3	0	1.705305771168423E+003	2.5119612E-001	-2.7038385E+002
3	0	1.705805771155792E+003	2.5099730E-001	-2.7037326E+002
3	0	1.706305771143161E+003	2.5078067E-001	-2.7038742E+002
3	0	1.706805771130530E+003	2.5059462E-001	-2.7036618E+002
3	0	1.707305771117899E+003	2.5043193E-001	-2.7039093E+002
3	0	1.707805771105268E+003	2.5026095E-001	-2.7037326E+002
3	0	1.708305771092637E+003	2.5009766E-001	-2.7037677E+002
3	0	1.708805771080006E+003	2.4993399E-001	-2.7037326E+002
3	0	1.709305771067375E+003	2.4973962E-001	-2.7040506E+002
3	0	1.709805771054744E+003	2.4955045E-001	-2.7035559E+002
3	0	1.710305771042113E+003	2.4937506E-001	-2.7039093E+002
3	0	1.710805771029482E+003	2.4921891E-001	-2.7038385E+002
3	0	1.711305771016850E+003	2.4908416E-001	-2.7035559E+002
3	0	1.711805771004219E+003	2.4893643E-001	-2.7035205E+002
3	0	1.712305770991588E+003	2.4878857E-001	-2.7036618E+002
3	0	1.712805770978957E+003	2.4863262E-001	-2.7038031E+002
3	0	1.713305770966326E+003	2.4847157E-001	-2.7040155E+002
3	0	1.713805770953695E+003	2.4828929E-001	-2.7034497E+002
3	0	1.714305770941064E+003	2.4809740E-001	-2.7036618E+002
3	0	1.714805770928433E+003	2.4793226E-001	-2.7038385E+002
3	0	1.715305770915802E+003	2.4779889E-001	-2.7038031E+002
3	0	1.715805770903171E+003	2.4766165E-001	-2.7040506E+002
3	0	1.716305770890540E+003	2.4751595E-001	-2.7036267E+002
3	0	1.716805770877909E+003	2.4736901E-001	-2.7037677E+002
3	0	1.717305770865278E+003	2.4722062E-001	-2.7036972E+002
3	0	1.717805770852647E+003	2.4705121E-001	-2.7036618E+002
3	0	1.718305770840016E+003	2.4686871E-001	-2.7037677E+002
3	0	1.718805770827385E+003	2.4671161E-001	-2.7037677E+002
3	0	1.719305770814753E+003	2.4659124E-001	-2.7037677E+002
3	0	1.719805770802122E+003	2.4646410E-001	-2.7038031E+002
3	0	1.720305770789491E+003	2.4633211E-001	-2.7038742E+002
3	0	1.720805770776860E+003	2.4619931E-001	-2.7035913E+002
3	0	1.721305770764229E+003	2.4606268E-001	-2.7040155E+002
3	0	1.721805770751598E+003	2.4590325E-001	-2.7039093E+002
3	0	1.722305770738967E+003	2.4572894E-001	-2.7036267E+002
3	0	1.722805770726336E+003	2.4558029E-001	-2.7038742E+002
3	0	1.723305770713705E+003	2.4546602E-001	-2.7037677E+002
3	0	1.723805770701074E+003	2.4534440E-001	-2.7038031E+002
3	0	1.724305770688443E+003	2.4521954E-001	-2.7038385E+002
3	0	1.724805770675812E+003	2.4509420E-001	-2.7038385E+002
3	0	1.725305770663181E+003	2.4495953E-001	-2.7036267E+002
3	0	1.725805770650550E+003	2.4480607E-001	-2.7038385E+002
3	0	1.726305770637919E+003	2.4463661E-001	-2.7039093E+002
3	0	1.726805770625288E+003	2.4450345E-001	-2.7037677E+002
3	0	1.727305770612656E+003	2.4439977E-001	-2.7037677E+002
3	0	1.727805770600025E+003	2.4428520E-001	-2.7038031E+002
3	0	1.728305770587394E+003	2.4416932E-001	-2.7038031E+002
3	0	1.728805770574763E+003	2.4405226E-001	-2.7038385E+002
3	0	1.729305770562132E+003	2.4393372E-001	-2.7039801E+002
3	0	1.729805770549501E+003	2.4379344E-001	-2.7038385E+002
3	0	1.730305770536870E+003	2.4363680E-001	-2.7037677E+002
3	0	1.730805770524239E+003	2.4350941E-001	-2.7037677E+002
3	0	1.731305770511608E+003	2.4341296E-001	-2.7036972E+002
3	0	1.731805770498977E+003	2.4331561E-001	-2.7038742E+002
3	0	1.732305770486346E+003	2.4321358E-001	-2.7038031E+002
3	0	1.732805770473715E+003	2.4310973E-001	-2.7039093E+002
3	0	1.733305770461084E+003	2.4299529E-001	-2.7036972E+002
3	0	1.733805770448453E+003	2.4285951E-001	-2.7036972E+002
3	0	1.734305770435822E+003	2.4271134E-001	-2.7037326E+002
3	0	1.734805770423191E+003	2.4259405E-001	-2.7037326E+002
3	0	1.735305770410559E+003	2.4250230E-001	-2.7036618E+002
3	0	1.735805770397928E+003	2.4240337E-001	-2.7036972E+002
3	0	1.736305770385297E+003	2.4230783E-001	-2.7037326E+002
3	0	1.736805770372666E+003	2.4220607E-001	-2.7035205E+002
3	0	1.737305770360035E+003	2.4210684E-001	-2.7037326E+002
3	0	1.737805770347404E+003	2.4198383E-001	-2.7040155E+002
3	0	1.738305770334773E+003	2.4184082E-001	-2.7038385E+002
3	0	1.738805770322142E+003	2.4172860E-001	-2.7037677E+002
3	0	1.739305770309511E+003	2.4163954E-001	-2.7038742E+002
3	0	1.739805770296880E+003	2.4155414E-001	-2.7038031E+002
3	0	1.740305770284249E+003	2.4146241E-001	-2.7037677E+002
3	0	1.740805770271618E+003	2.4137291E-001	-2.7035205E+002
3	0	1.741305770258987E+003	2.4127030E-001	-2.7039801E+002
3	0	1.741805770246356E+003	2.4115390E-001	-2.7037326E+002
3	0	1.742305770233725E+003	2.4101661E-001	-2.7037677E+002
3	0	1.742805770221094E+003	2.4090612E-001	-2.7035559E+002
3	0	1.743305770208462E+003	2.4082631E-001	-2.7037677E+002
3	0	1.743805770195831E+003	2.4074166E-001	-2.7036618E+002
3	0	1.744305770183200E+003	2.4065506E-001	-2.7036618E+002
3	0	1.744805770170569E+003	2.4056612E-001	-2.7036267E+002
3	0	1.745305770157938E+003	2.4046510E-001	-2.7039801E+002
3	0	1.745805770145307E+003	2.4034438E-001	-2.7036267E+002
3	0	1.746305770132676E+003	2.4020965E-001	-2.7038031E+002
3	0	1.746805770120045E+003	2.4010591E-001	-2.7036618E+002
3	0	1.747305770107414E+003	2.4003080E-001	-2.7037677E+002
3	0	1.747805770094783E+003	2.3994921E-001	-2.7039447E+002
3	0	1.748305770082152E+003	2.3985820E-001	-2.7036618E+002
3	0	1.748805770069521E+003	2.3977758E-001	-2.7036267E+002
3	0	1.749305770056890E+003	2.3968795E-001	-2.7036972E+002
3	0	1.749805770044259E+003	2.3958503E-001	-2.7036267E+002
3	0	1.750305770031628E+003	2.3944950E-001	-2.7035559E+002
3	0	1.750805770018997E+003	2.3934723E-001	-2.7035913E+002
3	0	1.751305770006365E+003	2.3927501E-001	-2.7037326E+002
3	0	1.751805769993734E+003	2.3920766E-001	-2.7038742E+002
3	0	1.752305769981103E+003	2.3912846E-001	-2.7038031E+002
3	0	1.752805769968472E+003	2.3905259E-001	-2.7039801E+002
3	0	1.753305769955841E+003	2.3896737E-001	-2.7041214E+002
3	0	1.753805769943210E+003	2.3886389E-001	-2.7039801E+002
3	0	1.754305769930579E+003	2.3873480E-001	-2.7038742E+002
3	0	1.754805769917948E+003	2.3863789E-001	-2.7039447E+002
3	0	1.755305769905317E+003	2.3857130E-001	-2.7038385E+002
3	0	1.755805769892686E+003	2.3850718E-001	-2.7039447E+002
3	0	1.756305769880055E+003	2.3843367E-001	-2.7038031E+002
3	0	1.756805769867424E+003	2.3835821E-001	-2.7038385E+002
3	0	1.757305769854793E+003	2.3827404E-001	-2.7038031E+002
3	0	1.757805769842162E+003	2.3816566E-001	-2.7038031E+002
3	0	1.758305769829531E+003	2.3804119E-001	-2.7036618E+002
3	0	1.758805769816900E+003	2.3795062E-001	-2.7039801E+002
3	0	1.759305769804268E+003	2.3789269E-001	-2.7038385E+002
3	0	1.759805769791637E+003	2.3782159E-001	-2.7037677E+002
3	0	1.760305769779006E+003	2.3774736E-001	-2.7036618E+002
3	0	1.760805769766375E+003	2.3767123E-001	-2.7037677E+002
3	0	1.761305769753744E+003	2.3758988E-001	-2.7039093E+002
3	0	1.761805769741113E+003	2.3749202E-001	-2.7036972E+002
3	0	1.762305769728482E+003	2.3737003E-001	-2.7038031E+002
3	0	1.762805769715851E+003	2.3727940E-001	-2.7039447E+002
3	0	1.763305769703220E+003	2.3721369E-001	-2.7038742E+002
3	0	1.763805769690589E+003	2.3714849E-001	-2.7038742E+002
3	0	1.764305769677958E+003	2.3707943E-001	-2.7037677E+002
3	0	1.764805769665327E+003	2.3700333E-001	-2.7038031E+002
3	0	1.765305769652696E+003	2.3692589E-001	-2.7037326E+002
3	0	1.765805769640065E+003	2.3682415E-001	-2.7039447E+002
3	0	1.766305769627434E+003	2.3670511E-001	-2.7039093E+002
3	0	1.766805769614803E+003	2.3661400E-001	-2.7038742E+002
3	0	1.767305769602171E+003	2.3655882E-001	-2.7035913E+002
3	0	1.767805769589540E+003	2.3650238E-001	-2.7037677E+002
3	0	1.768305769576909E+003	2.3643307E-001	-2.7039093E+002
3	0	1.768805769564278E+003	2.3636845E-001	-2.7039093E+002
3	0	1.769305769551647E+003	2.3629154E-001	-2.7035205E+002
3	0	1.769805769539016E+003	2.3619293E-001	-2.7037677E+002
3	0	1.770305769526385E+003	2.3607999E-001	-2.7037677E+002
3	0	1.770805769513754E+003	2.3599872E-001	-2.7039447E+002
3	0	1.771305769501123E+003	2.3594743E-001	-2.7038385E+002
3	0	1.771805769488492E+003	2.3589535E-001	-2.7037677E+002
3	0	1.772305769475861E+003	2.3583402E-001	-2.7039801E+002
3	0	1.772805769463230E+003	2.3577364E-001	-2.7039447E+002
3	0	1.773305769450599E+003	2.3570950E-001	-2.7038742E+002
3	0	1.773805769437968E+003	2.3562172E-001	-2.7038031E+002
3	0	1.774305769425337E+003	2.3551369E-001	-2.7040155E+002
3	0	1.774805769412706E+003	2.3543370E-001	-2.7036972E+002
3	0	1.775305769400075E+003	2.3538278E-001	-2.7038385E+002
3	0	1.775805769387443E+003	2.3533736E-001	-2.7038742E+002
3	0	1.776305769374812E+003	2.3527955E-001	-2.7037326E+002
3	0	1.776805769362181E+003	2.3522320E-001	-2.7036972E+002
3	0	1.777305769349550E+003	2.3515609E-001	-2.7036972E+002
3	0	1.777805769336919E+003	2.3506437E-001	-2.7036972E+002
3	0	1.778305769324288E+003	2.3495248E-001	-2.7037677E+002
3	0	1.778805769311657E+003	2.3487297E-001	-2.7039447E+002
3	0	1.779305769299026E+003	2.3482713E-001	-2.7040860E+002
3	0	1.779805769286395E+003	2.3477829E-001	-2.7039447E+002
3	0	1.780305769273764E+003	2.3472804E-001	-2.7036267E+002
3	0	1.780805769261133E+003	2.3467098E-001	-2.7038742E+002
3	0	1.781305769248502E+003	2.3460856E-001	-2.7038385E+002
3	0	1.781805769235871E+003	2.3452474E-001	-2.7036618E+002
3	0	1.782305769223240E+003	2.3441507E-001	-2.7039801E+002
3	0	1.782805769210609E+003	2.3434164E-001	-2.7038385E+002
3	0	1.783305769197978E+003	2.3429510E-001	-2.7036972E+002
3	0	1.783805769185346E+003	2.3424059E-001	-2.7038385E+002
3	0	1.784305769172715E+003	2.3418753E-001	-2.7038742E+002
3	0	1.784805769160084E+003	2.3412640E-001	-2.7037326E+002
3	0	1.785305769147453E+003	2.3406190E-001	-2.7038742E+002
3	0	1.785805769134822E+003	2.3397042E-001	-2.7038385E+002
3	0	1.786305769122191E+003	2.3386417E-001	-2.7039093E+002
3	0	1.786805769109560E+003	2.3378646E-001	-2.7039447E+002
3	0	1.787305769096929E+003	2.3373973E-001	-2.7039447E+002
3	0	1.787805769084298E+003	2.3368676E-001	-2.7039801E+002
3	0	1.788305769071667E+003	2.3363343E-001	-2.7036972E+002
3	0	1.788805769059036E+003	2.3357590E-001	-2.7038031E+002
3	0	1.789305769046405E+003	2.3351488E-001	-2.7038742E+002
3	0	1.789805769033774E+003	2.3343520E-001	-2.7037677E+002
3	0	1.790305769021143E+003	2.3333448E-001	-2.7037326E+002
3	0	1.790805769008512E+003	2.3326100E-001	-2.7036267E+002
3	0	1.791305768995881E+003	2.3322251E-001	-2.7039093E+002
3	0	1.791805768983249E+003	2.3318647E-001	-2.7039093E+002
3	0	1.792305768970618E+003	2.3313741E-001	-2.7037677E+002
3	0	1.792805768957987E+003	2.3308945E-001	-2.7036972E+002
3	0	1.793305768945356E+003	2.3303416E-001	-2.7037677E+002
3	0	1.793805768932725E+003	2.3295251E-001	-2.7038742E+002
3	0	1.794305768920094E+003	2.3284774E-001	-2.7040155E+002
3	0	1.794805768907463E+003	2.3278284E-001	-2.7040506E+002
3	0	1.795305768894832E+003	2.3274605E-001	-2.7038385E+002
3	0	1.795805768882201E+003	2.3270419E-001	-2.7036972E+002
3	0	1.796305768869570E+003	2.3265885E-001	-2.7039093E+002
3	0	1.796805768856939E+003	2.3261264E-001	-2.7039447E+002
3	0	1.797305768844308E+003	2.3255856E-001	-2.7037677E+002
3	0	1.797805768831677E+003	2.3248641E-001	-2.7038031E+002
3	0	1.798305768819046E+003	2.3238844E-001	-2.7037326E+002
3	0	1.798805768806415E+003	2.3232101E-001	-2.7037677E+002
3	0	1.799305768793784E+003	2.3229100E-001	-2.7038031E+002
3	0	1.799805768781152E+003	2.3224816E-001	-2.7038385E+002
3	0	1.800305768768521E+003	2.3220074E-001	-2.7036618E+002
3	0	1.800805768755890E+003	2.3214976E-001	-2.7039801E+002
3	0	1.801305768743259E+003	2.3209795E-001	-2.7037326E+002
3	0	1.801805768730628E+003	2.3202477E-001	-2.7038031E+002
3	0	1.802305768717997E+003	2.3192735E-001	-2.7037326E+002
3	0	1.802805768705366E+003	2.3185946E-001	-2.7039801E+002
3	0	1.803305768692735E+003	2.3182271E-001	-2.7038031E+002
3	0	1.803805768680104E+003	2.3178393E-001	-2.7038031E+002
3	0	1.804305768667473E+003	2.3173670E-001	-2.7037326E+002
3	0	1.804805768654842E+003	2.3168807E-001	-2.7037326E+002
3	0	1.805305768642211E+003	2.3163505E-001	-2.7039801E+002
3	0	1.805805768629580E+003	2.3155005E-001	-2.7036972E+002
3	0	1.806305768616949E+003	2.3144308E-001	-2.7036618E+002
3	0	1.806805768604318E+003	2.3137110E-001	-2.7037326E+002
3	0	1.807305768591687E+003	2.3133034E-001	-2.7039447E+002
3	0	1.807805768579055E+003	2.3129527E-001	-2.7038031E+002
3	0	1.808305768566424E+003	2.3125125E-001	-2.7037677E+002
3	0	1.808805768553793E+003	2.3119952E-001	-2.7037326E+002
3	0	1.809305768541162E+003	2.3114960E-001	-2.7039801E+002
3	0	1.809805768528531E+003	2.3107931E-001	-2.7040506E+002
3	0	1.810305768515900E+003	2.3098299E-001	-2.7037677E+002
3	0	1.810805768503269E+003	2.3092057E-001	-2.7039093E+002
3	0	1.811305768490638E+003	2.3088934E-001	-2.7036267E+002
3	0	1.811805768478007E+003	2.3085700E-001	-2.7039093E+002
3	0	1.812305768465376E+003	2.3081525E-001	-2.7038385E+002
3	0	1.812805768452745E+003	2.3077299E-001	-2.7037677E+002
3	0	1.813305768440114E+003	2.3071751E-001	-2.7037326E+002
3	0	1.813805768427483E+003	2.3065004E-001	-2.7040506E+002
3	0	1.814305768414852E+003	2.3056498E-001	-2.7036972E+002
3	0	1.814805768402221E+003	2.3049937E-001	-2.7038742E+002
3	0	1.815305768389590E+003	2.3046911E-001	-2.7036972E+002
3	0	1.815805768376958E+003	2.3044562E-001	-2.7040155E+002
3	0	1.815830368376337E+003	2.3042423E-001	-2.7038385E+002