EC-Lab ASCII FILE
Nb header lines : 48                          

Open Circuit Voltage

Run on channel : 1 (SN 81504)
User : 
CE vs. WE compliance from -10 V to 10 V
Electrode connection : standard
Potential control : Ewe
Ewe ctrl range : min = -2.50 V, max = 2.50 V
Safety Limits :
	Do not start on E overload
Acquisition started on : 05/07/2026 16:58:53.259
Loaded Setting File :  C:\PEM-WE_measurements\2026\372_IV_IV IrOx, 5 min Pt, 30 min C, etched cathode\new station\Loopeis new\1,46 V different time gaps open cell\Loopeis 1,46V_60s_2_PEIS from 65kHz to 10kHz.mps
Saved on :
	File : L_12_Loopeis 1,46V_60s_2_PEIS from 65kHz to 10kHz_04_OCV_C01.mpr
	Directory : C:\PEM-WE_measurements\2026\372_IV_IV IrOx, 5 min Pt, 30 min C, etched cathode\new station\Loopeis new\1,46 V different time gaps open cell\
	Host : 192.168.0.2
Device : SP-150e (SN .005491)
Address : 192.168.0.91
EC-LAB for windows v11.71 (software)
Internet server v28.00 (firmware)
Command interpretor v14.01 (firmware)
Electrode material : 
Initial state : 
Electrolyte : 
Comments : 
Current amplifier : SP-150eB-20A
Electrode surface area : 0.001 cm²
Characteristic mass : 0.001 g
Equivalent Weight : 0.000 g/eq.
Density : 0.000 g/cm3
Volume (V) : 0.001 cm³
Record Analogic IN 1
Text export
   Mode : Standard
   Time format : Elapsed
Cycle Definition : Charge/Discharge alternance
tR (h:m:s)          0:01:0.0000         
dER/dt (mV/h)       1.0                 
record              <Ewe>               
dER (mV)            10.00               
dtR (s)             0.5000              
E range min (V)     -2.500              
E range max (V)     2.500               

mode	error	time/s	<Ewe/V>	Analog IN 1/V	
3	0	1.508623994919617E+002	1.0705990E+000	2.2950437E-005
3	0	1.513623994793306E+002	1.2310621E+000	3.8648941E-006
3	0	1.518623994666996E+002	1.2025959E+000	-7.2477276E-005
3	0	1.523623994540685E+002	1.1380959E+000	-5.3391734E-005
3	0	1.528623994414374E+002	9.4305474E-001	-3.4306191E-005
3	0	1.533623994288064E+002	4.9605721E-001	-3.4306191E-005
3	0	1.538623994161753E+002	3.4534511E-001	8.0207064E-005
3	0	1.543623994035443E+002	3.2455888E-001	-3.4306191E-005
3	0	1.548623993909132E+002	3.1605482E-001	-1.5220648E-005
3	0	1.553623993782821E+002	3.0910632E-001	-7.2477276E-005
3	0	1.558623993656511E+002	3.0373916E-001	-9.1562819E-005
3	0	1.563623993530200E+002	2.9961762E-001	-3.4306191E-005
3	0	1.568623993403889E+002	2.9639775E-001	-7.2477276E-005
3	0	1.573623993277579E+002	2.9382193E-001	-1.6790499E-004
3	0	1.578623993151268E+002	2.9170725E-001	3.8648941E-006
3	0	1.583623993024958E+002	2.8991768E-001	8.0207064E-005
3	0	1.588623992898647E+002	2.8837863E-001	-1.2973390E-004
3	0	1.593623992772336E+002	2.8701156E-001	-1.1064836E-004
3	0	1.598623992646026E+002	2.8582272E-001	-3.4306191E-005
3	0	1.603623992519715E+002	2.8477067E-001	-2.0607607E-004
3	0	1.608623992393404E+002	2.8380856E-001	-1.1064836E-004
3	0	1.613623992267094E+002	2.8290963E-001	-7.2477276E-005
3	0	1.618623992140783E+002	2.8208670E-001	6.1121522E-005
3	0	1.623623992014473E+002	2.8129506E-001	-1.2973390E-004
3	0	1.628623991888162E+002	2.8052586E-001	-5.3391734E-005
3	0	1.633623991761851E+002	2.7977592E-001	-3.4306191E-005
3	0	1.638623991635541E+002	2.7908468E-001	-3.4306191E-005
3	0	1.643623991509230E+002	2.7843410E-001	-1.2973390E-004
3	0	1.648623991382919E+002	2.7779648E-001	-1.4881945E-004
3	0	1.653623991256609E+002	2.7717546E-001	-1.5220648E-005
3	0	1.658623991130298E+002	2.7656806E-001	2.2950437E-005
3	0	1.663623991003988E+002	2.7596769E-001	8.0207064E-005
3	0	1.668623990877677E+002	2.7535963E-001	-9.1562819E-005
3	0	1.673623990751366E+002	2.7475068E-001	2.2950437E-005
3	0	1.678623990625056E+002	2.7417934E-001	-5.3391734E-005
3	0	1.683623990498745E+002	2.7362812E-001	-1.5220648E-005
3	0	1.688623990372434E+002	2.7308500E-001	4.2035979E-005
3	0	1.693623990246124E+002	2.7254918E-001	-7.2477276E-005
3	0	1.698623990119813E+002	2.7201778E-001	-1.1064836E-004
3	0	1.703623989993503E+002	2.7147868E-001	-1.1064836E-004
3	0	1.708623989867192E+002	2.7093452E-001	-3.4306191E-005
3	0	1.713623989740881E+002	2.7037287E-001	3.8648941E-006
3	0	1.718623989614571E+002	2.6984948E-001	2.2950437E-005
3	0	1.723623989488260E+002	2.6936093E-001	-1.2973390E-004
3	0	1.728623989361950E+002	2.6886064E-001	-1.5220648E-005
3	0	1.733623989235639E+002	2.6836276E-001	6.1121522E-005
3	0	1.738623989109328E+002	2.6786894E-001	2.2950437E-005
3	0	1.743623988983018E+002	2.6736978E-001	-1.5220648E-005
3	0	1.748623988856707E+002	2.6686370E-001	-7.2477276E-005
3	0	1.753623988730396E+002	2.6634073E-001	4.2035979E-005
3	0	1.758623988604086E+002	2.6585343E-001	3.8648941E-006
3	0	1.763623988477775E+002	2.6538396E-001	-2.2516162E-004
3	0	1.768623988351465E+002	2.6491392E-001	3.8648941E-006
3	0	1.773623988225154E+002	2.6445812E-001	6.1121522E-005
3	0	1.778623988098843E+002	2.6399758E-001	-1.5220648E-005
3	0	1.783623987972533E+002	2.6353389E-001	-9.1562819E-005
3	0	1.788623987846222E+002	2.6305825E-001	-1.5220648E-005
3	0	1.793623987719911E+002	2.6256764E-001	9.9292607E-005
3	0	1.798623987593601E+002	2.6211509E-001	3.8648941E-006
3	0	1.803623987467290E+002	2.6168653E-001	-3.4306191E-005
3	0	1.808623987340980E+002	2.6125300E-001	3.8648941E-006
3	0	1.813623987214669E+002	2.6082590E-001	3.8648941E-006
3	0	1.818623987088358E+002	2.6039219E-001	-7.2477276E-005
3	0	1.823623986962048E+002	2.5996405E-001	-9.1562819E-005
3	0	1.828623986835737E+002	2.5952306E-001	-1.5220648E-005
3	0	1.833623986709426E+002	2.5907540E-001	-1.5220648E-005
3	0	1.838623986583116E+002	2.5865325E-001	-1.1064836E-004
3	0	1.843623986456805E+002	2.5824964E-001	-1.5220648E-005
3	0	1.848623986330495E+002	2.5785464E-001	4.2035979E-005
3	0	1.853623986204184E+002	2.5745443E-001	-7.2477276E-005
3	0	1.858623986077873E+002	2.5705922E-001	-3.4306191E-005
3	0	1.863623985951563E+002	2.5665936E-001	-5.3391734E-005
3	0	1.868623985825252E+002	2.5623944E-001	9.9292607E-005
3	0	1.873623985698941E+002	2.5581834E-001	-5.3391734E-005
3	0	1.878623985572631E+002	2.5543031E-001	3.8648941E-006
3	0	1.883623985446320E+002	2.5506127E-001	-1.6790499E-004
3	0	1.888623985320010E+002	2.5469118E-001	-9.1562819E-005
3	0	1.893623985193699E+002	2.5432444E-001	6.1121522E-005
3	0	1.898623985067388E+002	2.5396153E-001	3.8648941E-006
3	0	1.903623984941078E+002	2.5360066E-001	3.8648941E-006
3	0	1.908623984814767E+002	2.5321150E-001	3.8648941E-006
3	0	1.913623984688456E+002	2.5281724E-001	-9.1562819E-005
3	0	1.918623984562146E+002	2.5246003E-001	2.2950437E-005
3	0	1.923623984435835E+002	2.5212094E-001	-3.4306191E-005
3	0	1.928623984309525E+002	2.5178245E-001	-1.1064836E-004
3	0	1.933623984183214E+002	2.5144365E-001	9.9292607E-005
3	0	1.938623984056903E+002	2.5110653E-001	-1.5220648E-005
3	0	1.943623983930593E+002	2.5076136E-001	-1.2973390E-004
3	0	1.948623983804282E+002	2.5040120E-001	-1.2973390E-004
3	0	1.953623983677971E+002	2.5003308E-001	-1.5220648E-005
3	0	1.958623983551661E+002	2.4970360E-001	-3.4306191E-005
3	0	1.963623983425350E+002	2.4939476E-001	-1.1064836E-004
3	0	1.968623983299040E+002	2.4908380E-001	-7.2477276E-005
3	0	1.973623983172729E+002	2.4877320E-001	-3.4306191E-005
3	0	1.978623983046418E+002	2.4845789E-001	-1.5220648E-005
3	0	1.983623982920108E+002	2.4814598E-001	4.2035979E-005
3	0	1.988623982793797E+002	2.4782012E-001	1.1837815E-004
3	0	1.993623982667486E+002	2.4748033E-001	-7.2477276E-005
3	0	1.998623982541176E+002	2.4716751E-001	-3.4306191E-005
3	0	2.003623982414865E+002	2.4688168E-001	-9.1562819E-005
3	0	2.008623982288555E+002	2.4660680E-001	4.2035979E-005
3	0	2.013623982162244E+002	2.4632140E-001	-7.2477276E-005
3	0	2.018623982035933E+002	2.4603839E-001	-9.1562819E-005
3	0	2.023623981909623E+002	2.4575797E-001	-3.4306191E-005
3	0	2.028623981783312E+002	2.4545299E-001	-5.3391734E-005
3	0	2.033623981657001E+002	2.4513912E-001	3.8648941E-006
3	0	2.038623981530691E+002	2.4485828E-001	-5.3391734E-005
3	0	2.043623981404380E+002	2.4460192E-001	3.8648941E-006
3	0	2.048623981278070E+002	2.4434799E-001	4.2035979E-005
3	0	2.053623981151759E+002	2.4408917E-001	-9.1562819E-005
3	0	2.058623981025448E+002	2.4383143E-001	-7.2477276E-005
3	0	2.063623980899138E+002	2.4356399E-001	-7.2477276E-005
3	0	2.068623980772827E+002	2.4328443E-001	-3.4306191E-005
3	0	2.073623980646516E+002	2.4299906E-001	-1.1064836E-004
3	0	2.078623980520206E+002	2.4274637E-001	-1.2973390E-004
3	0	2.083623980393895E+002	2.4251220E-001	-1.1064836E-004
3	0	2.088623980267585E+002	2.4227448E-001	-7.2477276E-005
3	0	2.093623980141274E+002	2.4204215E-001	3.8648941E-006
3	0	2.098623980014963E+002	2.4181329E-001	-1.5220648E-005
3	0	2.103623979888653E+002	2.4156976E-001	9.9292607E-005
3	0	2.103979979879659E+002	2.4142432E-001	-1.6790499E-004