EC-Lab ASCII FILE
Nb header lines : 55                          

Open Circuit Voltage

Run on channel : 1 (SN 81504)
User : 
CE vs. WE compliance from -10 V to 10 V
Electrode connection : standard
Potential control : Ewe
Ewe ctrl range : min = -2.50 V, max = 2.50 V
Safety Limits :
	Do not start on E overload
Acquisition started on : 05/07/2026 14:41:51.868
Loaded Setting File :  C:\PEM-WE_measurements\2026\372_IV_IV IrOx, 5 min Pt, 30 min C, etched cathode\new station\Loopeis new\1,46 V different time gaps open cell\Loopeis 1,46V_30s_4_PEIS from 650Hz to 100Hz.mps
Saved on :
	File : L_04_Loopeis 1,46V_30s_4_PEIS from 650Hz to 100Hz_20_OCV_C01.mpr
	Directory : C:\PEM-WE_measurements\2026\372_IV_IV IrOx, 5 min Pt, 30 min C, etched cathode\new station\Loopeis new\1,46 V different time gaps open cell\
	Host : 192.168.0.2
Device : SP-150e (SN .005491)
Address : 192.168.0.91
EC-LAB for windows v11.71 (software)
Internet server v28.00 (firmware)
Command interpretor v14.01 (firmware)
Electrode material : 
Initial state : 
Electrolyte : 
Comments : 
Current amplifier : SP-150eB-20A
Electrode surface area : 0.001 cm²
Characteristic mass : 0.001 g
Equivalent Weight : 0.000 g/eq.
Density : 0.000 g/cm3
Volume (V) : 0.001 cm³
Record Analogic IN 1
Text export
   Mode : Standard
   Time format : Elapsed
Cycle Definition : Charge/Discharge alternance
External device configuration :
   device type : Temperature Probe
   device name : Other
   Analog IN 1 : 
      unit : T/Â°C
      max : 100.000 at 2.000 V
      min : 0.000 at 1.460 V
tR (h:m:s)          0:00:30.0000        
dER/dt (mV/h)       1.0                 
record              <Ewe>               
dER (mV)            10.00               
dtR (s)             0.5000              
E range min (V)     -2.500              
E range max (V)     2.500               

mode	error	time/s	<Ewe/V>	Analog IN 1/V	
3	0	7.284995985506976E+002	1.0520707E+000	-2.7038742E+002
3	0	7.289995985380665E+002	1.2214892E+000	-2.7036972E+002
3	0	7.294995985254354E+002	1.1766239E+000	-2.7035913E+002
3	0	7.299995985128044E+002	1.0684447E+000	-2.7038031E+002
3	0	7.304995985001733E+002	6.5698814E-001	-2.7040155E+002
3	0	7.309995984875422E+002	3.6663255E-001	-2.7036267E+002
3	0	7.314995984749112E+002	3.2621825E-001	-2.7038742E+002
3	0	7.319995984622801E+002	3.1740326E-001	-2.7035913E+002
3	0	7.324995984496491E+002	3.1028458E-001	-2.7038385E+002
3	0	7.329995984370180E+002	3.0465904E-001	-2.7037677E+002
3	0	7.334995984243869E+002	3.0037811E-001	-2.7039093E+002
3	0	7.339995984117559E+002	2.9708958E-001	-2.7036618E+002
3	0	7.344995983991248E+002	2.9449323E-001	-2.7037677E+002
3	0	7.349995983864937E+002	2.9240108E-001	-2.7037326E+002
3	0	7.354995983738627E+002	2.9065800E-001	-2.7038031E+002
3	0	7.359995983612316E+002	2.8916731E-001	-2.7039801E+002
3	0	7.364995983486006E+002	2.8786495E-001	-2.7037326E+002
3	0	7.369995983359695E+002	2.8671524E-001	-2.7036972E+002
3	0	7.374995983233384E+002	2.8570798E-001	-2.7037326E+002
3	0	7.379995983107074E+002	2.8479987E-001	-2.7037326E+002
3	0	7.384995982980763E+002	2.8396335E-001	-2.7037677E+002
3	0	7.389995982854452E+002	2.8317448E-001	-2.7039093E+002
3	0	7.394995982728142E+002	2.8243497E-001	-2.7035559E+002
3	0	7.399995982601831E+002	2.8171113E-001	-2.7038385E+002
3	0	7.404995982475521E+002	2.8099945E-001	-2.7037677E+002
3	0	7.409995982349210E+002	2.8032956E-001	-2.7038742E+002
3	0	7.414995982222899E+002	2.7970976E-001	-2.7036618E+002
3	0	7.419995982096589E+002	2.7911130E-001	-2.7040155E+002
3	0	7.424995981970278E+002	2.7852753E-001	-2.7038385E+002
3	0	7.429995981843967E+002	2.7794859E-001	-2.7037326E+002
3	0	7.434995981717657E+002	2.7738151E-001	-2.7035913E+002
3	0	7.439995981591346E+002	2.7680326E-001	-2.7038742E+002
3	0	7.444995981465036E+002	2.7621147E-001	-2.7038385E+002
3	0	7.449995981338725E+002	2.7564186E-001	-2.7038385E+002
3	0	7.454995981212414E+002	2.7510044E-001	-2.7036267E+002
3	0	7.459995981086104E+002	2.7458957E-001	-2.7039093E+002
3	0	7.464995980959793E+002	2.7407610E-001	-2.7038742E+002
3	0	7.469995980833482E+002	2.7355888E-001	-2.7039093E+002
3	0	7.474995980707172E+002	2.7304694E-001	-2.7039801E+002
3	0	7.479995980580861E+002	2.7251491E-001	-2.7036267E+002
3	0	7.484995980454551E+002	2.7197665E-001	-2.7039447E+002
3	0	7.489995980328240E+002	2.7143854E-001	-2.7035913E+002
3	0	7.494995980201929E+002	2.7094468E-001	-2.7037677E+002
3	0	7.499995980075619E+002	2.7045518E-001	-2.7036972E+002
3	0	7.504995979949308E+002	2.6995736E-001	-2.7039093E+002
3	0	7.509995979822997E+002	2.6947615E-001	-2.7036618E+002
3	0	7.514995979696687E+002	2.6899582E-001	-2.7038031E+002
3	0	7.519995979570376E+002	2.6849622E-001	-2.7038742E+002
3	0	7.524995979444066E+002	2.6798740E-001	-2.7038742E+002
3	0	7.529995979317755E+002	2.6748529E-001	-2.7037677E+002
3	0	7.534995979191444E+002	2.6702237E-001	-2.7038385E+002
3	0	7.539995979065134E+002	2.6656342E-001	-2.7038742E+002
3	0	7.544995978938823E+002	2.6610202E-001	-2.7038031E+002
3	0	7.549995978812512E+002	2.6564750E-001	-2.7038031E+002
3	0	7.554995978686202E+002	2.6519588E-001	-2.7035205E+002
3	0	7.559995978559891E+002	2.6473537E-001	-2.7039093E+002
3	0	7.564995978433581E+002	2.6425868E-001	-2.7035559E+002
3	0	7.569995978307270E+002	2.6379281E-001	-2.7039447E+002
3	0	7.574995978180959E+002	2.6336375E-001	-2.7039801E+002
3	0	7.579995978054649E+002	2.6293555E-001	-2.7036972E+002
3	0	7.580241978048434E+002	2.6270989E-001	-2.7035913E+002