EC-Lab ASCII FILE
Nb header lines : 55                          

Open Circuit Voltage

Run on channel : 1 (SN 81504)
User : 
CE vs. WE compliance from -10 V to 10 V
Electrode connection : standard
Potential control : Ewe
Ewe ctrl range : min = -2.50 V, max = 2.50 V
Safety Limits :
	Do not start on E overload
Acquisition started on : 05/10/2026 09:06:36.404
Loaded Setting File :  C:\PEM-WE_measurements\2026\372_IV_IV IrOx, 5 min Pt, 30 min C, etched cathode\new station\Loopeis new\1,46 V different time gaps closed cell\Loopeis 1,46V_180s_3_PEIS from 6500Hz to 1000Hz.mps
Saved on :
	File : L_28_Loopeis 1,46V_180s_3_PEIS from 6500Hz to 1000Hz_14_OCV_C01.mpr
	Directory : C:\PEM-WE_measurements\2026\372_IV_IV IrOx, 5 min Pt, 30 min C, etched cathode\new station\Loopeis new\1,46 V different time gaps closed cell\
	Host : 192.168.0.2
Device : SP-150e (SN .005491)
Address : 192.168.0.91
EC-LAB for windows v11.71 (software)
Internet server v28.00 (firmware)
Command interpretor v14.01 (firmware)
Electrode material : 
Initial state : 
Electrolyte : 
Comments : 
Current amplifier : SP-150eB-20A
Electrode surface area : 0.001 cm²
Characteristic mass : 0.001 g
Equivalent Weight : 0.000 g/eq.
Density : 0.000 g/cm3
Volume (V) : 0.001 cm³
Record Analogic IN 1
Text export
   Mode : Standard
   Time format : Elapsed
Cycle Definition : Charge/Discharge alternance
External device configuration :
   device type : Temperature Probe
   device name : Other
   Analog IN 1 : 
      unit : T/Â°C
      max : 100.000 at 2.000 V
      min : 0.000 at 1.460 V
tR (h:m:s)          0:03:0.0000         
dER/dt (mV/h)       1.0                 
record              <Ewe>               
dER (mV)            10.00               
dtR (s)             0.5000              
E range min (V)     -2.500              
E range max (V)     2.500               

mode	error	time/s	<Ewe/V>	Analog IN 1/V	
3	0	1.397652174671093E+003	1.2913152E+000	-2.7036972E+002
3	0	1.398152174658462E+003	1.2974192E+000	-2.7039801E+002
3	0	1.398652174645831E+003	1.2852845E+000	-2.7037677E+002
3	0	1.399152174633200E+003	1.2618169E+000	-2.7038742E+002
3	0	1.399652174620569E+003	1.2221824E+000	-2.7038742E+002
3	0	1.400152174607938E+003	1.1521866E+000	-2.7037677E+002
3	0	1.400652174595307E+003	9.2537487E-001	-2.7038385E+002
3	0	1.401152174582676E+003	5.1432776E-001	-2.7036972E+002
3	0	1.401652174570045E+003	3.8921216E-001	-2.7039093E+002
3	0	1.402152174557414E+003	3.6567077E-001	-2.7039093E+002
3	0	1.402652174544783E+003	3.6219606E-001	-2.7037326E+002
3	0	1.403152174532152E+003	3.6214226E-001	-2.7038031E+002
3	0	1.403652174519520E+003	3.6263326E-001	-2.7036972E+002
3	0	1.404152174506889E+003	3.6325029E-001	-2.7037326E+002
3	0	1.404652174494258E+003	3.6375573E-001	-2.7038031E+002
3	0	1.405152174481627E+003	3.6398345E-001	-2.7036267E+002
3	0	1.405652174468996E+003	3.6407429E-001	-2.7035559E+002
3	0	1.406152174456365E+003	3.6417571E-001	-2.7035205E+002
3	0	1.406652174443734E+003	3.6422440E-001	-2.7040860E+002
3	0	1.407152174431103E+003	3.6416107E-001	-2.7035559E+002
3	0	1.407652174418472E+003	3.6410370E-001	-2.7037326E+002
3	0	1.408152174405841E+003	3.6432159E-001	-2.7036618E+002
3	0	1.408652174393210E+003	3.6465180E-001	-2.7038031E+002
3	0	1.409152174380579E+003	3.6486581E-001	-2.7038742E+002
3	0	1.409652174367948E+003	3.6499712E-001	-2.7039447E+002
3	0	1.410152174355317E+003	3.6518705E-001	-2.7039093E+002
3	0	1.410652174342686E+003	3.6544567E-001	-2.7038031E+002
3	0	1.411152174330055E+003	3.6562294E-001	-2.7038031E+002
3	0	1.411652174317423E+003	3.6580226E-001	-2.7036618E+002
3	0	1.412152174304792E+003	3.6630836E-001	-2.7037326E+002
3	0	1.412652174292161E+003	3.6694074E-001	-2.7038031E+002
3	0	1.413152174279530E+003	3.6746830E-001	-2.7038742E+002
3	0	1.413652174266899E+003	3.6789587E-001	-2.7038031E+002
3	0	1.414152174254268E+003	3.6830142E-001	-2.7039093E+002
3	0	1.414652174241637E+003	3.6861628E-001	-2.7037677E+002
3	0	1.415152174229006E+003	3.6877701E-001	-2.7036267E+002
3	0	1.415652174216375E+003	3.6888295E-001	-2.7039801E+002
3	0	1.416152174203744E+003	3.6920160E-001	-2.7040506E+002
3	0	1.416652174191113E+003	3.6964393E-001	-2.7037326E+002
3	0	1.417152174178482E+003	3.6994094E-001	-2.7038031E+002
3	0	1.417652174165851E+003	3.7011373E-001	-2.7037326E+002
3	0	1.418152174153220E+003	3.7024865E-001	-2.7034851E+002
3	0	1.418652174140589E+003	3.7037349E-001	-2.7038031E+002
3	0	1.419152174127958E+003	3.7035748E-001	-2.7036972E+002
3	0	1.419652174115326E+003	3.7028876E-001	-2.7036972E+002
3	0	1.420152174102695E+003	3.7046906E-001	-2.7036618E+002
3	0	1.420652174090064E+003	3.7075108E-001	-2.7038385E+002
3	0	1.421152174077433E+003	3.7089586E-001	-2.7036972E+002
3	0	1.421652174064802E+003	3.7094864E-001	-2.7038031E+002
3	0	1.422152174052171E+003	3.7098128E-001	-2.7038385E+002
3	0	1.422652174039540E+003	3.7100136E-001	-2.7036618E+002
3	0	1.423152174026909E+003	3.7091902E-001	-2.7036972E+002
3	0	1.423652174014278E+003	3.7076008E-001	-2.7037326E+002
3	0	1.424152174001647E+003	3.7086821E-001	-2.7039447E+002
3	0	1.424652173989016E+003	3.7108675E-001	-2.7037677E+002
3	0	1.425152173976385E+003	3.7119433E-001	-2.7039093E+002
3	0	1.425652173963754E+003	3.7117520E-001	-2.7038742E+002
3	0	1.426152173951123E+003	3.7116006E-001	-2.7039093E+002
3	0	1.426652173938492E+003	3.7108487E-001	-2.7038742E+002
3	0	1.427152173925861E+003	3.7091315E-001	-2.7035559E+002
3	0	1.427652173913229E+003	3.7072963E-001	-2.7037326E+002
3	0	1.428152173900598E+003	3.7075162E-001	-2.7036618E+002
3	0	1.428652173887967E+003	3.7091756E-001	-2.7034497E+002
3	0	1.429152173875336E+003	3.7098050E-001	-2.7037326E+002
3	0	1.429652173862705E+003	3.7095222E-001	-2.7038742E+002
3	0	1.430152173850074E+003	3.7097046E-001	-2.7038742E+002
3	0	1.430652173837443E+003	3.7098932E-001	-2.7036618E+002
3	0	1.431152173824812E+003	3.7094209E-001	-2.7036618E+002
3	0	1.431652173812181E+003	3.7094656E-001	-2.7035913E+002
3	0	1.432152173799550E+003	3.7126809E-001	-2.7037677E+002
3	0	1.432652173786919E+003	3.7171781E-001	-2.7036267E+002
3	0	1.433152173774288E+003	3.7208581E-001	-2.7038385E+002
3	0	1.433652173761657E+003	3.7232453E-001	-2.7037677E+002
3	0	1.434152173749026E+003	3.7252370E-001	-2.7039801E+002
3	0	1.434652173736395E+003	3.7268108E-001	-2.7039447E+002
3	0	1.435152173723764E+003	3.7269214E-001	-2.7039093E+002
3	0	1.435652173711132E+003	3.7260416E-001	-2.7036618E+002
3	0	1.436152173698501E+003	3.7272805E-001	-2.7038742E+002
3	0	1.436652173685870E+003	3.7295985E-001	-2.7036972E+002
3	0	1.437152173673239E+003	3.7307820E-001	-2.7039447E+002
3	0	1.437652173660608E+003	3.7306291E-001	-2.7036618E+002
3	0	1.438152173647977E+003	3.7301251E-001	-2.7039093E+002
3	0	1.438652173635346E+003	3.7293977E-001	-2.7036267E+002
3	0	1.439152173622715E+003	3.7275797E-001	-2.7037677E+002
3	0	1.439652173610084E+003	3.7254244E-001	-2.7039801E+002
3	0	1.440152173597453E+003	3.7251300E-001	-2.7040506E+002
3	0	1.440652173584822E+003	3.7260389E-001	-2.7036972E+002
3	0	1.441152173572191E+003	3.7260681E-001	-2.7038031E+002
3	0	1.441652173559560E+003	3.7248418E-001	-2.7039447E+002
3	0	1.442152173546929E+003	3.7234476E-001	-2.7037677E+002
3	0	1.442652173534298E+003	3.7218863E-001	-2.7039447E+002
3	0	1.443152173521667E+003	3.7194020E-001	-2.7037677E+002
3	0	1.443652173509035E+003	3.7163714E-001	-2.7036267E+002
3	0	1.444152173496404E+003	3.7157607E-001	-2.7037677E+002
3	0	1.444652173483773E+003	3.7161201E-001	-2.7036618E+002
3	0	1.445152173471142E+003	3.7156519E-001	-2.7037677E+002
3	0	1.445652173458511E+003	3.7141311E-001	-2.7038031E+002
3	0	1.446152173445880E+003	3.7122789E-001	-2.7039093E+002
3	0	1.446652173433249E+003	3.7105078E-001	-2.7038031E+002
3	0	1.447152173420618E+003	3.7078506E-001	-2.7036618E+002
3	0	1.447652173407987E+003	3.7046739E-001	-2.7035913E+002
3	0	1.448152173395356E+003	3.7035146E-001	-2.7036618E+002
3	0	1.448652173382725E+003	3.7036398E-001	-2.7039093E+002
3	0	1.449152173370094E+003	3.7031430E-001	-2.7038385E+002
3	0	1.449652173357463E+003	3.7017572E-001	-2.7038385E+002
3	0	1.450152173344832E+003	3.7001964E-001	-2.7036618E+002
3	0	1.450652173332201E+003	3.6991793E-001	-2.7039093E+002
3	0	1.451152173319570E+003	3.6978975E-001	-2.7039093E+002
3	0	1.451652173306938E+003	3.6964577E-001	-2.7037677E+002
3	0	1.452152173294307E+003	3.6975577E-001	-2.7038385E+002
3	0	1.452652173281676E+003	3.7005502E-001	-2.7038031E+002
3	0	1.453152173269045E+003	3.7029415E-001	-2.7038742E+002
3	0	1.453652173256414E+003	3.7044379E-001	-2.7037326E+002
3	0	1.454152173243783E+003	3.7057272E-001	-2.7038742E+002
3	0	1.454652173231152E+003	3.7063596E-001	-2.7038031E+002
3	0	1.455152173218521E+003	3.7053338E-001	-2.7041568E+002
3	0	1.455652173205890E+003	3.7038308E-001	-2.7036618E+002
3	0	1.456152173193259E+003	3.7040251E-001	-2.7038385E+002
3	0	1.456652173180628E+003	3.7050349E-001	-2.7038385E+002
3	0	1.457152173167997E+003	3.7052438E-001	-2.7039447E+002
3	0	1.457652173155366E+003	3.7043557E-001	-2.7039447E+002
3	0	1.458152173142735E+003	3.7030008E-001	-2.7035913E+002
3	0	1.458652173130104E+003	3.7015361E-001	-2.7036618E+002
3	0	1.459152173117473E+003	3.6991033E-001	-2.7037677E+002
3	0	1.459652173104842E+003	3.6957142E-001	-2.7036972E+002
3	0	1.460152173092210E+003	3.6944771E-001	-2.7036618E+002
3	0	1.460652173079579E+003	3.6946008E-001	-2.7039093E+002
3	0	1.461152173066948E+003	3.6939761E-001	-2.7038385E+002
3	0	1.461652173054317E+003	3.6923420E-001	-2.7037677E+002
3	0	1.462152173041686E+003	3.6903930E-001	-2.7038031E+002
3	0	1.462652173029055E+003	3.6881933E-001	-2.7036972E+002
3	0	1.463152173016424E+003	3.6848989E-001	-2.7035205E+002
3	0	1.463652173003793E+003	3.6815044E-001	-2.7038385E+002
3	0	1.464152172991162E+003	3.6798826E-001	-2.7039801E+002
3	0	1.464652172978531E+003	3.6797208E-001	-2.7038385E+002
3	0	1.465152172965900E+003	3.6787090E-001	-2.7036972E+002
3	0	1.465652172953269E+003	3.6765844E-001	-2.7040506E+002
3	0	1.466152172940638E+003	3.6741531E-001	-2.7036972E+002
3	0	1.466652172928007E+003	3.6714026E-001	-2.7038031E+002
3	0	1.467152172915376E+003	3.6685902E-001	-2.7036618E+002
3	0	1.467652172902745E+003	3.6653551E-001	-2.7037677E+002
3	0	1.468152172890113E+003	3.6641622E-001	-2.7038385E+002
3	0	1.468652172877482E+003	3.6638579E-001	-2.7039093E+002
3	0	1.469152172864851E+003	3.6626196E-001	-2.7036618E+002
3	0	1.469652172852220E+003	3.6605600E-001	-2.7035913E+002
3	0	1.470152172839589E+003	3.6588562E-001	-2.7038031E+002
3	0	1.470652172826958E+003	3.6571133E-001	-2.7036972E+002
3	0	1.471152172814327E+003	3.6553618E-001	-2.7035205E+002
3	0	1.471652172801696E+003	3.6534819E-001	-2.7036972E+002
3	0	1.472152172789065E+003	3.6539367E-001	-2.7037326E+002
3	0	1.472652172776434E+003	3.6562118E-001	-2.7038385E+002
3	0	1.473152172763803E+003	3.6580715E-001	-2.7038742E+002
3	0	1.473652172751172E+003	3.6590731E-001	-2.7039801E+002
3	0	1.474152172738541E+003	3.6598650E-001	-2.7037677E+002
3	0	1.474652172725910E+003	3.6602101E-001	-2.7039801E+002
3	0	1.475152172713279E+003	3.6596566E-001	-2.7036618E+002
3	0	1.475652172700648E+003	3.6582756E-001	-2.7038031E+002
3	0	1.476152172688016E+003	3.6580792E-001	-2.7037326E+002
3	0	1.476652172675385E+003	3.6589488E-001	-2.7039093E+002
3	0	1.477152172662754E+003	3.6587569E-001	-2.7036972E+002
3	0	1.477652172650123E+003	3.6575124E-001	-2.7039447E+002
3	0	1.478152172637492E+003	3.6560538E-001	-2.7036267E+002
3	0	1.478652172624861E+003	3.6541837E-001	-2.7038385E+002
3	0	1.479152172612230E+003	3.6513460E-001	-2.7039093E+002
3	0	1.479652172599599E+003	3.6480570E-001	-2.7036972E+002
3	0	1.480152172586968E+003	3.6464852E-001	-2.7035205E+002
3	0	1.480652172574337E+003	3.6461192E-001	-2.7037326E+002
3	0	1.481152172561706E+003	3.6449975E-001	-2.7037677E+002
3	0	1.481652172549075E+003	3.6430398E-001	-2.7038742E+002
3	0	1.482152172536444E+003	3.6410961E-001	-2.7039447E+002
3	0	1.482652172523813E+003	3.6386546E-001	-2.7040155E+002
3	0	1.483152172511182E+003	3.6355662E-001	-2.7038385E+002
3	0	1.483652172498551E+003	3.6316848E-001	-2.7036267E+002
3	0	1.484152172485919E+003	3.6296001E-001	-2.7040155E+002
3	0	1.484652172473288E+003	3.6289001E-001	-2.7036618E+002
3	0	1.485152172460657E+003	3.6273730E-001	-2.7036618E+002
3	0	1.485652172448026E+003	3.6251539E-001	-2.7037677E+002
3	0	1.486152172435395E+003	3.6230695E-001	-2.7037326E+002
3	0	1.486652172422764E+003	3.6209002E-001	-2.7036618E+002
3	0	1.487152172410133E+003	3.6178705E-001	-2.7038031E+002
3	0	1.487652172397502E+003	3.6144638E-001	-2.7036972E+002
3	0	1.488152172384871E+003	3.6124912E-001	-2.7037677E+002
3	0	1.488652172372240E+003	3.6119142E-001	-2.7036972E+002
3	0	1.489152172359609E+003	3.6107239E-001	-2.7038031E+002
3	0	1.489652172346978E+003	3.6086866E-001	-2.7038385E+002
3	0	1.490152172334347E+003	3.6066428E-001	-2.7039093E+002
3	0	1.490652172321716E+003	3.6046836E-001	-2.7037326E+002
3	0	1.491152172309085E+003	3.6026755E-001	-2.7037677E+002
3	0	1.491652172296454E+003	3.6005637E-001	-2.7037677E+002
3	0	1.492152172283822E+003	3.6007446E-001	-2.7036972E+002
3	0	1.492652172271191E+003	3.6028332E-001	-2.7036972E+002
3	0	1.493152172258560E+003	3.6046383E-001	-2.7038742E+002
3	0	1.493652172245929E+003	3.6056975E-001	-2.7038742E+002
3	0	1.494152172233298E+003	3.6067411E-001	-2.7039447E+002
3	0	1.494652172220667E+003	3.6072379E-001	-2.7038385E+002
3	0	1.495152172208036E+003	3.6064014E-001	-2.7040155E+002
3	0	1.495652172195405E+003	3.6048529E-001	-2.7035913E+002
3	0	1.496152172182774E+003	3.6045864E-001	-2.7038742E+002
3	0	1.496652172170143E+003	3.6052322E-001	-2.7037677E+002
3	0	1.497152172157512E+003	3.6049515E-001	-2.7039447E+002
3	0	1.497652172144881E+003	3.6037776E-001	-2.7036972E+002
3	0	1.498152172132250E+003	3.6023813E-001	-2.7037326E+002
3	0	1.498652172119619E+003	3.6006504E-001	-2.7038031E+002
3	0	1.499152172106988E+003	3.5980079E-001	-2.7037326E+002
3	0	1.499652172094357E+003	3.5947496E-001	-2.7038742E+002
3	0	1.500152172081725E+003	3.5929447E-001	-2.7037326E+002
3	0	1.500652172069094E+003	3.5924658E-001	-2.7038742E+002
3	0	1.501152172056463E+003	3.5912326E-001	-2.7039801E+002
3	0	1.501652172043832E+003	3.5892209E-001	-2.7038742E+002
3	0	1.502152172031201E+003	3.5871148E-001	-2.7037677E+002
3	0	1.502652172018570E+003	3.5845506E-001	-2.7040860E+002
3	0	1.503152172005939E+003	3.5812050E-001	-2.7038742E+002
3	0	1.503652171993308E+003	3.5774788E-001	-2.7038742E+002
3	0	1.504152171980677E+003	3.5753042E-001	-2.7039093E+002
3	0	1.504652171968046E+003	3.5745260E-001	-2.7036972E+002
3	0	1.505152171955415E+003	3.5731527E-001	-2.7039093E+002
3	0	1.505652171942784E+003	3.5710368E-001	-2.7036618E+002
3	0	1.506152171930153E+003	3.5690436E-001	-2.7036972E+002
3	0	1.506652171917522E+003	3.5668251E-001	-2.7037326E+002
3	0	1.507152171904891E+003	3.5635328E-001	-2.7036972E+002
3	0	1.507652171892260E+003	3.5596400E-001	-2.7037326E+002
3	0	1.508152171879628E+003	3.5573956E-001	-2.7035913E+002
3	0	1.508652171866997E+003	3.5565305E-001	-2.7036267E+002
3	0	1.509152171854366E+003	3.5550544E-001	-2.7037326E+002
3	0	1.509652171841735E+003	3.5530266E-001	-2.7039093E+002
3	0	1.510152171829104E+003	3.5509115E-001	-2.7037326E+002
3	0	1.510652171816473E+003	3.5488176E-001	-2.7039093E+002
3	0	1.511152171803842E+003	3.5465780E-001	-2.7039093E+002
3	0	1.511652171791211E+003	3.5445938E-001	-2.7038031E+002
3	0	1.512152171778580E+003	3.5443637E-001	-2.7036972E+002
3	0	1.512652171765949E+003	3.5461485E-001	-2.7039093E+002
3	0	1.513152171753318E+003	3.5478073E-001	-2.7036972E+002
3	0	1.513652171740687E+003	3.5490352E-001	-2.7041568E+002
3	0	1.514152171728056E+003	3.5500535E-001	-2.7037326E+002
3	0	1.514652171715425E+003	3.5505164E-001	-2.7036618E+002
3	0	1.515152171702794E+003	3.5500291E-001	-2.7037326E+002
3	0	1.515652171690163E+003	3.5485607E-001	-2.7036618E+002
3	0	1.516152171677531E+003	3.5481629E-001	-2.7036972E+002
3	0	1.516652171664900E+003	3.5487303E-001	-2.7038031E+002
3	0	1.517152171652269E+003	3.5483736E-001	-2.7038385E+002
3	0	1.517652171639638E+003	3.5472605E-001	-2.7037326E+002
3	0	1.518152171627007E+003	3.5459965E-001	-2.7038385E+002
3	0	1.518652171614376E+003	3.5442910E-001	-2.7036972E+002
3	0	1.519152171601745E+003	3.5416645E-001	-2.7035913E+002
3	0	1.519652171589114E+003	3.5384500E-001	-2.7041214E+002
3	0	1.520152171576483E+003	3.5366112E-001	-2.7040506E+002
3	0	1.520652171563852E+003	3.5361737E-001	-2.7037677E+002
3	0	1.521152171551221E+003	3.5349140E-001	-2.7036972E+002
3	0	1.521652171538590E+003	3.5330889E-001	-2.7037677E+002
3	0	1.522152171525959E+003	3.5310462E-001	-2.7036972E+002
3	0	1.522652171513328E+003	3.5286969E-001	-2.7035913E+002
3	0	1.523152171500697E+003	3.5255465E-001	-2.7038031E+002
3	0	1.523652171488066E+003	3.5219827E-001	-2.7039093E+002
3	0	1.524152171475434E+003	3.5197479E-001	-2.7036267E+002
3	0	1.524652171462803E+003	3.5189620E-001	-2.7040155E+002
3	0	1.525152171450172E+003	3.5175833E-001	-2.7037677E+002
3	0	1.525652171437541E+003	3.5156548E-001	-2.7037677E+002
3	0	1.526152171424910E+003	3.5134277E-001	-2.7038031E+002
3	0	1.526652171412279E+003	3.5109851E-001	-2.7038031E+002
3	0	1.527152171399648E+003	3.5078150E-001	-2.7035913E+002
3	0	1.527652171387017E+003	3.5042199E-001	-2.7037326E+002
3	0	1.528152171374386E+003	3.5020250E-001	-2.7039801E+002
3	0	1.528652171361755E+003	3.5011977E-001	-2.7039447E+002
3	0	1.529152171349124E+003	3.4999368E-001	-2.7038031E+002
3	0	1.529652171336493E+003	3.4978509E-001	-2.7036267E+002
3	0	1.530152171323862E+003	3.4960225E-001	-2.7036618E+002
3	0	1.530652171311231E+003	3.4940779E-001	-2.7039093E+002
3	0	1.531152171298600E+003	3.4919119E-001	-2.7041214E+002
3	0	1.531652171285969E+003	3.4896395E-001	-2.7036267E+002
3	0	1.532152171273337E+003	3.4889558E-001	-2.7036618E+002
3	0	1.532652171260706E+003	3.4901267E-001	-2.7037677E+002
3	0	1.533152171248075E+003	3.4912878E-001	-2.7038385E+002
3	0	1.533652171235444E+003	3.4923837E-001	-2.7035913E+002
3	0	1.534152171222813E+003	3.4934181E-001	-2.7039447E+002
3	0	1.534652171210182E+003	3.4942716E-001	-2.7039447E+002
3	0	1.535152171197551E+003	3.4940562E-001	-2.7036972E+002
3	0	1.535652171184920E+003	3.4929669E-001	-2.7036972E+002
3	0	1.536152171172289E+003	3.4925228E-001	-2.7034851E+002
3	0	1.536652171159658E+003	3.4932074E-001	-2.7038742E+002
3	0	1.537152171147027E+003	3.4932205E-001	-2.7040155E+002
3	0	1.537652171134396E+003	3.4923148E-001	-2.7036618E+002
3	0	1.538152171121765E+003	3.4911552E-001	-2.7036267E+002
3	0	1.538652171109134E+003	3.4894833E-001	-2.7039447E+002
3	0	1.539152171096503E+003	3.4869358E-001	-2.7039093E+002
3	0	1.539652171083872E+003	3.4836122E-001	-2.7037326E+002
3	0	1.540152171071240E+003	3.4815773E-001	-2.7037326E+002
3	0	1.540652171058609E+003	3.4808889E-001	-2.7040155E+002
3	0	1.541152171045978E+003	3.4797454E-001	-2.7037677E+002
3	0	1.541652171033347E+003	3.4780928E-001	-2.7039093E+002
3	0	1.542152171020716E+003	3.4761733E-001	-2.7036972E+002
3	0	1.542652171008085E+003	3.4738100E-001	-2.7039447E+002
3	0	1.543152170995454E+003	3.4707454E-001	-2.7036618E+002
3	0	1.543652170982823E+003	3.4670070E-001	-2.7038385E+002
3	0	1.544152170970192E+003	3.4644076E-001	-2.7038031E+002
3	0	1.544652170957561E+003	3.4632340E-001	-2.7035913E+002
3	0	1.545152170944930E+003	3.4615636E-001	-2.7036972E+002
3	0	1.545652170932299E+003	3.4594360E-001	-2.7038031E+002
3	0	1.546152170919668E+003	3.4575191E-001	-2.7038031E+002
3	0	1.546652170907037E+003	3.4552377E-001	-2.7037677E+002
3	0	1.547152170894406E+003	3.4522685E-001	-2.7039093E+002
3	0	1.547652170881775E+003	3.4488538E-001	-2.7038385E+002
3	0	1.548152170869143E+003	3.4466732E-001	-2.7037677E+002
3	0	1.548652170856512E+003	3.4456918E-001	-2.7039801E+002
3	0	1.549152170843881E+003	3.4444207E-001	-2.7037326E+002
3	0	1.549652170831250E+003	3.4424761E-001	-2.7038031E+002
3	0	1.550152170818619E+003	3.4404659E-001	-2.7037326E+002
3	0	1.550652170805988E+003	3.4383914E-001	-2.7037326E+002
3	0	1.551152170793357E+003	3.4358659E-001	-2.7037326E+002
3	0	1.551652170780726E+003	3.4334585E-001	-2.7035559E+002
3	0	1.552152170768095E+003	3.4327888E-001	-2.7040155E+002
3	0	1.552652170755464E+003	3.4336579E-001	-2.7036267E+002
3	0	1.553152170742833E+003	3.4346077E-001	-2.7037677E+002
3	0	1.553652170730202E+003	3.4355330E-001	-2.7039093E+002
3	0	1.554152170717571E+003	3.4367934E-001	-2.7037677E+002
3	0	1.554652170704940E+003	3.4379074E-001	-2.7037677E+002
3	0	1.555152170692309E+003	3.4381348E-001	-2.7037326E+002
3	0	1.555652170679678E+003	3.4375963E-001	-2.7038031E+002
3	0	1.556152170667046E+003	3.4378612E-001	-2.7038385E+002
3	0	1.556652170654415E+003	3.4388781E-001	-2.7038385E+002
3	0	1.557152170641784E+003	3.4391445E-001	-2.7037677E+002
3	0	1.557652170629153E+003	3.4386328E-001	-2.7036267E+002
3	0	1.558152170616522E+003	3.4377423E-001	-2.7035913E+002
3	0	1.558652170603891E+003	3.4362957E-001	-2.7037677E+002
3	0	1.559152170591260E+003	3.4342554E-001	-2.7038742E+002
3	0	1.559652170578629E+003	3.4315631E-001	-2.7036267E+002
3	0	1.560152170565998E+003	3.4297118E-001	-2.7039447E+002
3	0	1.560652170553367E+003	3.4289342E-001	-2.7039093E+002
3	0	1.561152170540736E+003	3.4277013E-001	-2.7039801E+002
3	0	1.561652170528105E+003	3.4259251E-001	-2.7037326E+002
3	0	1.562152170515474E+003	3.4239286E-001	-2.7037326E+002
3	0	1.562652170502843E+003	3.4217018E-001	-2.7037326E+002
3	0	1.563152170490212E+003	3.4187284E-001	-2.7037326E+002
3	0	1.563652170477581E+003	3.4152260E-001	-2.7037326E+002
3	0	1.564152170464949E+003	3.4129408E-001	-2.7039447E+002
3	0	1.564652170452318E+003	3.4118187E-001	-2.7036618E+002
3	0	1.565152170439687E+003	3.4102866E-001	-2.7036972E+002
3	0	1.565652170427056E+003	3.4082842E-001	-2.7038742E+002
3	0	1.566152170414425E+003	3.4062392E-001	-2.7037326E+002
3	0	1.566652170401794E+003	3.4041807E-001	-2.7039093E+002
3	0	1.567152170389163E+003	3.4014690E-001	-2.7039801E+002
3	0	1.567652170376532E+003	3.3979884E-001	-2.7037326E+002
3	0	1.568152170363901E+003	3.3956167E-001	-2.7038031E+002
3	0	1.568652170351270E+003	3.3944589E-001	-2.7038385E+002
3	0	1.569152170338639E+003	3.3930495E-001	-2.7037326E+002
3	0	1.569652170326008E+003	3.3912602E-001	-2.7040155E+002
3	0	1.570152170313377E+003	3.3890569E-001	-2.7039801E+002
3	0	1.570652170300746E+003	3.3869123E-001	-2.7038031E+002
3	0	1.571152170288115E+003	3.3844170E-001	-2.7037677E+002
3	0	1.571652170275484E+003	3.3818159E-001	-2.7038031E+002
3	0	1.572152170262852E+003	3.3805957E-001	-2.7038742E+002
3	0	1.572652170250221E+003	3.3812183E-001	-2.7038742E+002
3	0	1.573152170237590E+003	3.3821046E-001	-2.7037326E+002
3	0	1.573652170224959E+003	3.3830303E-001	-2.7037326E+002
3	0	1.574152170212328E+003	3.3841220E-001	-2.7038385E+002
3	0	1.574652170199697E+003	3.3849224E-001	-2.7038742E+002
3	0	1.575152170187066E+003	3.3849132E-001	-2.7040155E+002
3	0	1.575652170174435E+003	3.3839747E-001	-2.7035913E+002
3	0	1.576152170161804E+003	3.3837870E-001	-2.7039447E+002
3	0	1.576652170149173E+003	3.3843926E-001	-2.7036618E+002
3	0	1.577152170136542E+003	3.3844754E-001	-2.7037677E+002
3	0	1.577152570136532E+003	3.3852679E-001	-2.7040155E+002