EC-Lab ASCII FILE
Nb header lines : 55                          

Open Circuit Voltage

Run on channel : 1 (SN 81504)
User : 
CE vs. WE compliance from -10 V to 10 V
Electrode connection : standard
Potential control : Ewe
Ewe ctrl range : min = -2.50 V, max = 2.50 V
Safety Limits :
	Do not start on E overload
Acquisition started on : 05/07/2026 14:54:34.266
Loaded Setting File :  C:\PEM-WE_measurements\2026\372_IV_IV IrOx, 5 min Pt, 30 min C, etched cathode\new station\Loopeis new\1,46 V different time gaps open cell\Loopeis 1,46V_30s_5_PEIS from 65Hz to 10Hz.mps
Saved on :
	File : L_05_Loopeis 1,46V_30s_5_PEIS from 65Hz to 10Hz_06_OCV_C01.mpr
	Directory : C:\PEM-WE_measurements\2026\372_IV_IV IrOx, 5 min Pt, 30 min C, etched cathode\new station\Loopeis new\1,46 V different time gaps open cell\
	Host : 192.168.0.2
Device : SP-150e (SN .005491)
Address : 192.168.0.91
EC-LAB for windows v11.71 (software)
Internet server v28.00 (firmware)
Command interpretor v14.01 (firmware)
Electrode material : 
Initial state : 
Electrolyte : 
Comments : 
Current amplifier : SP-150eB-20A
Electrode surface area : 0.001 cm²
Characteristic mass : 0.001 g
Equivalent Weight : 0.000 g/eq.
Density : 0.000 g/cm3
Volume (V) : 0.001 cm³
Record Analogic IN 1
Text export
   Mode : Standard
   Time format : Elapsed
Cycle Definition : Charge/Discharge alternance
External device configuration :
   device type : Temperature Probe
   device name : Other
   Analog IN 1 : 
      unit : T/Â°C
      max : 100.000 at 2.000 V
      min : 0.000 at 1.460 V
tR (h:m:s)          0:00:30.0000        
dER/dt (mV/h)       1.0                 
record              <Ewe>               
dER (mV)            10.00               
dtR (s)             0.5000              
E range min (V)     -2.500              
E range max (V)     2.500               

mode	error	time/s	<Ewe/V>	Analog IN 1/V	
3	0	6.480736198314116E+002	1.2765367E+000	-2.7037326E+002
3	0	6.485736198187806E+002	1.2701559E+000	-2.7038742E+002
3	0	6.490736198061495E+002	1.2296627E+000	-2.7036618E+002
3	0	6.495736197935184E+002	1.1451765E+000	-2.7036972E+002
3	0	6.500736197808874E+002	8.4311002E-001	-2.7036267E+002
3	0	6.505736197682563E+002	4.3882468E-001	-2.7038031E+002
3	0	6.510736197556253E+002	3.5333028E-001	-2.7038385E+002
3	0	6.515736197429942E+002	3.4037596E-001	-2.7037677E+002
3	0	6.520736197303631E+002	3.3180115E-001	-2.7036618E+002
3	0	6.525736197177321E+002	3.2516238E-001	-2.7036267E+002
3	0	6.530736197051010E+002	3.2019144E-001	-2.7034143E+002
3	0	6.535736196924699E+002	3.1642511E-001	-2.7036618E+002
3	0	6.540736196798389E+002	3.1347692E-001	-2.7035205E+002
3	0	6.545736196672078E+002	3.1109479E-001	-2.7036972E+002
3	0	6.550736196545768E+002	3.0913201E-001	-2.7038385E+002
3	0	6.555736196419457E+002	3.0750519E-001	-2.7041568E+002
3	0	6.560736196293146E+002	3.0609193E-001	-2.7038031E+002
3	0	6.565736196166836E+002	3.0485386E-001	-2.7038031E+002
3	0	6.570736196040525E+002	3.0375144E-001	-2.7036618E+002
3	0	6.575736195914214E+002	3.0275127E-001	-2.7037326E+002
3	0	6.580736195787904E+002	3.0180892E-001	-2.7036267E+002
3	0	6.585736195661593E+002	3.0091518E-001	-2.7036618E+002
3	0	6.590736195535283E+002	3.0008015E-001	-2.7038385E+002
3	0	6.595736195408972E+002	2.9932261E-001	-2.7037677E+002
3	0	6.600736195282661E+002	2.9860985E-001	-2.7037677E+002
3	0	6.605736195156351E+002	2.9792216E-001	-2.7038742E+002
3	0	6.610736195030040E+002	2.9725477E-001	-2.7035913E+002
3	0	6.615736194903729E+002	2.9659730E-001	-2.7038742E+002
3	0	6.620736194777419E+002	2.9594889E-001	-2.7034851E+002
3	0	6.625736194651108E+002	2.9530132E-001	-2.7036618E+002
3	0	6.630736194524798E+002	2.9467624E-001	-2.7039801E+002
3	0	6.635736194398487E+002	2.9408929E-001	-2.7042273E+002
3	0	6.640736194272176E+002	2.9351732E-001	-2.7036267E+002
3	0	6.645736194145866E+002	2.9295388E-001	-2.7038385E+002
3	0	6.650736194019555E+002	2.9239199E-001	-2.7035913E+002
3	0	6.655736193893244E+002	2.9184550E-001	-2.7040506E+002
3	0	6.660736193766934E+002	2.9128364E-001	-2.7036972E+002
3	0	6.665736193640623E+002	2.9071200E-001	-2.7036267E+002
3	0	6.670736193514313E+002	2.9015577E-001	-2.7037677E+002
3	0	6.675736193388002E+002	2.8963375E-001	-2.7036618E+002
3	0	6.680736193261691E+002	2.8911719E-001	-2.7038385E+002
3	0	6.685736193135381E+002	2.8860739E-001	-2.7036267E+002
3	0	6.690736193009070E+002	2.8809634E-001	-2.7036618E+002
3	0	6.695736192882760E+002	2.8758857E-001	-2.7039447E+002
3	0	6.700736192756449E+002	2.8706977E-001	-2.7036267E+002
3	0	6.705736192630138E+002	2.8653377E-001	-2.7036618E+002
3	0	6.710736192503828E+002	2.8601837E-001	-2.7038742E+002
3	0	6.715736192377517E+002	2.8553790E-001	-2.7038742E+002
3	0	6.720736192251206E+002	2.8505409E-001	-2.7034497E+002
3	0	6.725736192124896E+002	2.8457472E-001	-2.7038385E+002
3	0	6.730736191998585E+002	2.8410700E-001	-2.7038742E+002
3	0	6.735736191872275E+002	2.8362980E-001	-2.7036267E+002
3	0	6.740736191745964E+002	2.8314707E-001	-2.7036972E+002
3	0	6.745736191619653E+002	2.8264433E-001	-2.7038385E+002
3	0	6.750736191493343E+002	2.8217116E-001	-2.7035559E+002
3	0	6.755736191367032E+002	2.8172266E-001	-2.7038031E+002
3	0	6.760736191240721E+002	2.8128150E-001	-2.7038385E+002
3	0	6.765736191114411E+002	2.8084335E-001	-2.7038385E+002
3	0	6.770736190988100E+002	2.8040558E-001	-2.7036618E+002
3	0	6.775736190861790E+002	2.7996632E-001	-2.7038385E+002
3	0	6.775740190861688E+002	2.7976763E-001	-2.7038742E+002