EC-Lab ASCII FILE
Nb header lines : 55                          

Open Circuit Voltage

Run on channel : 1 (SN 81504)
User : 
CE vs. WE compliance from -10 V to 10 V
Electrode connection : standard
Potential control : Ewe
Ewe ctrl range : min = -2.50 V, max = 2.50 V
Safety Limits :
	Do not start on E overload
Acquisition started on : 05/10/2026 07:17:37.794
Loaded Setting File :  C:\PEM-WE_measurements\2026\372_IV_IV IrOx, 5 min Pt, 30 min C, etched cathode\new station\Loopeis new\1,46 V different time gaps closed cell\Loopeis 1,46V_120s_5_PEIS from 65Hz to 10Hz.mps
Saved on :
	File : L_25_Loopeis 1,46V_120s_5_PEIS from 65Hz to 10Hz_12_OCV_C01.mpr
	Directory : C:\PEM-WE_measurements\2026\372_IV_IV IrOx, 5 min Pt, 30 min C, etched cathode\new station\Loopeis new\1,46 V different time gaps closed cell\
	Host : 192.168.0.2
Device : SP-150e (SN .005491)
Address : 192.168.0.91
EC-LAB for windows v11.71 (software)
Internet server v28.00 (firmware)
Command interpretor v14.01 (firmware)
Electrode material : 
Initial state : 
Electrolyte : 
Comments : 
Current amplifier : SP-150eB-20A
Electrode surface area : 0.001 cm²
Characteristic mass : 0.001 g
Equivalent Weight : 0.000 g/eq.
Density : 0.000 g/cm3
Volume (V) : 0.001 cm³
Record Analogic IN 1
Text export
   Mode : Standard
   Time format : Elapsed
Cycle Definition : Charge/Discharge alternance
External device configuration :
   device type : Temperature Probe
   device name : Other
   Analog IN 1 : 
      unit : T/Â°C
      max : 100.000 at 2.000 V
      min : 0.000 at 1.460 V
tR (h:m:s)          0:02:0.0000         
dER/dt (mV/h)       1.0                 
record              <Ewe>               
dER (mV)            10.00               
dtR (s)             0.5000              
E range min (V)     -2.500              
E range max (V)     2.500               

mode	error	time/s	<Ewe/V>	Analog IN 1/V	
3	0	1.014338994665304E+003	1.2912924E+000	-2.7035913E+002
3	0	1.014838994652673E+003	1.2983638E+000	-2.7037677E+002
3	0	1.015338994640042E+003	1.2974343E+000	-2.7036267E+002
3	0	1.015838994627411E+003	1.2935627E+000	-2.7037326E+002
3	0	1.016338994614780E+003	1.2854226E+000	-2.7037677E+002
3	0	1.016838994602149E+003	1.2710059E+000	-2.7038742E+002
3	0	1.017338994589518E+003	1.2474204E+000	-2.7036618E+002
3	0	1.017838994576887E+003	1.2092850E+000	-2.7036267E+002
3	0	1.018338994564256E+003	1.1422427E+000	-2.7037326E+002
3	0	1.018838994551625E+003	9.6946663E-001	-2.7036972E+002
3	0	1.019338994538994E+003	6.2329382E-001	-2.7038031E+002
3	0	1.019838994526363E+003	4.9360710E-001	-2.7036618E+002
3	0	1.020338994513731E+003	4.4976819E-001	-2.7037677E+002
3	0	1.020838994501100E+003	4.3526644E-001	-2.7036972E+002
3	0	1.021338994488469E+003	4.2928261E-001	-2.7037677E+002
3	0	1.021838994475838E+003	4.2553195E-001	-2.7038031E+002
3	0	1.022338994463207E+003	4.2223498E-001	-2.7034497E+002
3	0	1.022838994450576E+003	4.1951501E-001	-2.7036972E+002
3	0	1.023338994437945E+003	4.1804308E-001	-2.7037326E+002
3	0	1.023838994425314E+003	4.1684750E-001	-2.7038031E+002
3	0	1.024338994412683E+003	4.1569406E-001	-2.7038031E+002
3	0	1.024838994400052E+003	4.1469929E-001	-2.7038385E+002
3	0	1.025338994387421E+003	4.1405451E-001	-2.7037326E+002
3	0	1.025838994374790E+003	4.1366625E-001	-2.7038031E+002
3	0	1.026338994362159E+003	4.1332620E-001	-2.7039093E+002
3	0	1.026838994349528E+003	4.1322610E-001	-2.7036267E+002
3	0	1.027338994336897E+003	4.1415134E-001	-2.7038031E+002
3	0	1.027838994324266E+003	4.1524586E-001	-2.7037677E+002
3	0	1.028338994311634E+003	4.1627118E-001	-2.7038031E+002
3	0	1.028838994299003E+003	4.1721639E-001	-2.7039801E+002
3	0	1.029338994286372E+003	4.1816932E-001	-2.7037677E+002
3	0	1.029838994273741E+003	4.1888151E-001	-2.7038742E+002
3	0	1.030338994261110E+003	4.1936609E-001	-2.7039093E+002
3	0	1.030838994248479E+003	4.1979426E-001	-2.7038742E+002
3	0	1.031338994235848E+003	4.2103568E-001	-2.7038385E+002
3	0	1.031838994223217E+003	4.2222100E-001	-2.7039093E+002
3	0	1.032338994210586E+003	4.2314973E-001	-2.7036972E+002
3	0	1.032838994197955E+003	4.2391545E-001	-2.7036267E+002
3	0	1.033338994185324E+003	4.2463049E-001	-2.7038031E+002
3	0	1.033838994172693E+003	4.2507845E-001	-2.7036267E+002
3	0	1.034338994160062E+003	4.2521042E-001	-2.7036618E+002
3	0	1.034838994147431E+003	4.2537752E-001	-2.7037326E+002
3	0	1.035338994134800E+003	4.2627111E-001	-2.7036972E+002
3	0	1.035838994122169E+003	4.2715579E-001	-2.7037677E+002
3	0	1.036338994109537E+003	4.2782986E-001	-2.7040155E+002
3	0	1.036838994096906E+003	4.2832547E-001	-2.7035559E+002
3	0	1.037338994084275E+003	4.2872247E-001	-2.7036618E+002
3	0	1.037838994071644E+003	4.2896608E-001	-2.7036618E+002
3	0	1.038338994059013E+003	4.2884666E-001	-2.7036618E+002
3	0	1.038838994046382E+003	4.2865834E-001	-2.7038031E+002
3	0	1.039338994033751E+003	4.2928547E-001	-2.7039093E+002
3	0	1.039838994021120E+003	4.2988089E-001	-2.7035205E+002
3	0	1.040338994008489E+003	4.3021154E-001	-2.7039093E+002
3	0	1.040838993995858E+003	4.3036965E-001	-2.7036618E+002
3	0	1.041338993983227E+003	4.3040138E-001	-2.7037677E+002
3	0	1.041838993970596E+003	4.3027657E-001	-2.7037326E+002
3	0	1.042338993957965E+003	4.2979968E-001	-2.7036972E+002
3	0	1.042838993945334E+003	4.2927092E-001	-2.7038742E+002
3	0	1.043338993932703E+003	4.2952365E-001	-2.7038385E+002
3	0	1.043838993920072E+003	4.2982435E-001	-2.7035205E+002
3	0	1.044338993907440E+003	4.2984447E-001	-2.7038031E+002
3	0	1.044838993894809E+003	4.2974168E-001	-2.7036267E+002
3	0	1.045338993882178E+003	4.2973709E-001	-2.7036972E+002
3	0	1.045838993869547E+003	4.2964387E-001	-2.7037677E+002
3	0	1.046338993856916E+003	4.2952850E-001	-2.7037677E+002
3	0	1.046838993844285E+003	4.2962635E-001	-2.7039447E+002
3	0	1.047338993831654E+003	4.3073064E-001	-2.7038742E+002
3	0	1.047838993819023E+003	4.3204734E-001	-2.7038385E+002
3	0	1.048338993806392E+003	4.3331593E-001	-2.7038742E+002
3	0	1.048838993793761E+003	4.3445465E-001	-2.7036972E+002
3	0	1.049338993781130E+003	4.3554464E-001	-2.7039801E+002
3	0	1.049838993768499E+003	4.3642750E-001	-2.7037677E+002
3	0	1.050338993755868E+003	4.3689120E-001	-2.7036972E+002
3	0	1.050838993743237E+003	4.3724391E-001	-2.7036618E+002
3	0	1.051338993730606E+003	4.3832937E-001	-2.7035559E+002
3	0	1.051838993717975E+003	4.3934822E-001	-2.7038385E+002
3	0	1.052338993705343E+003	4.4011146E-001	-2.7034497E+002
3	0	1.052838993692712E+003	4.4060734E-001	-2.7036972E+002
3	0	1.053338993680081E+003	4.4094303E-001	-2.7040860E+002
3	0	1.053838993667450E+003	4.4111213E-001	-2.7037677E+002
3	0	1.054338993654819E+003	4.4085646E-001	-2.7037677E+002
3	0	1.054838993642188E+003	4.4052872E-001	-2.7039093E+002
3	0	1.055338993629557E+003	4.4090021E-001	-2.7036972E+002
3	0	1.055838993616926E+003	4.4127932E-001	-2.7035913E+002
3	0	1.056338993604295E+003	4.4137362E-001	-2.7038385E+002
3	0	1.056838993591664E+003	4.4125074E-001	-2.7038742E+002
3	0	1.057338993579033E+003	4.4097033E-001	-2.7036618E+002
3	0	1.057838993566402E+003	4.4042435E-001	-2.7039093E+002
3	0	1.058338993553771E+003	4.3943778E-001	-2.7036618E+002
3	0	1.058838993541140E+003	4.3846658E-001	-2.7036972E+002
3	0	1.059338993528509E+003	4.3828407E-001	-2.7036618E+002
3	0	1.059838993515878E+003	4.3807018E-001	-2.7036618E+002
3	0	1.060338993503246E+003	4.3765086E-001	-2.7036618E+002
3	0	1.060838993490615E+003	4.3704456E-001	-2.7034851E+002
3	0	1.061338993477984E+003	4.3645129E-001	-2.7036972E+002
3	0	1.061838993465353E+003	4.3556926E-001	-2.7037326E+002
3	0	1.062338993452722E+003	4.3427908E-001	-2.7037326E+002
3	0	1.062838993440091E+003	4.3299684E-001	-2.7035559E+002
3	0	1.063338993427460E+003	4.3245655E-001	-2.7035205E+002
3	0	1.063838993414829E+003	4.3194544E-001	-2.7037326E+002
3	0	1.064338993402198E+003	4.3123573E-001	-2.7036267E+002
3	0	1.064838993389567E+003	4.3042859E-001	-2.7038031E+002
3	0	1.065338993376936E+003	4.2969680E-001	-2.7036618E+002
3	0	1.065838993364305E+003	4.2896941E-001	-2.7040860E+002
3	0	1.066338993351674E+003	4.2814925E-001	-2.7036618E+002
3	0	1.066838993339043E+003	4.2755499E-001	-2.7038031E+002
3	0	1.067338993326412E+003	4.2794240E-001	-2.7038742E+002
3	0	1.067838993313781E+003	4.2859596E-001	-2.7036618E+002
3	0	1.068338993301149E+003	4.2915666E-001	-2.7036972E+002
3	0	1.068838993288518E+003	4.2962950E-001	-2.7038031E+002
3	0	1.069338993275887E+003	4.3002117E-001	-2.7035559E+002
3	0	1.069838993263256E+003	4.3019152E-001	-2.7039801E+002
3	0	1.070338993250625E+003	4.2992195E-001	-2.7039447E+002
3	0	1.070838993237994E+003	4.2959279E-001	-2.7037326E+002
3	0	1.071338993225363E+003	4.2995745E-001	-2.7037326E+002
3	0	1.071838993212732E+003	4.3031618E-001	-2.7039093E+002
3	0	1.072338993200101E+003	4.3040541E-001	-2.7036267E+002
3	0	1.072838993187470E+003	4.3034479E-001	-2.7039447E+002
3	0	1.073338993174839E+003	4.3017146E-001	-2.7038031E+002
3	0	1.073838993162208E+003	4.2977941E-001	-2.7039447E+002
3	0	1.074338993149577E+003	4.2893907E-001	-2.7035913E+002
3	0	1.074838993136946E+003	4.2805725E-001	-2.7037677E+002
3	0	1.075338993124315E+003	4.2789099E-001	-2.7036618E+002
3	0	1.075838993111684E+003	4.2768836E-001	-2.7038385E+002
3	0	1.076338993099052E+003	4.2724070E-001	-2.7037677E+002
3	0	1.076838993086421E+003	4.2661917E-001	-2.7038742E+002
3	0	1.077338993073790E+003	4.2589745E-001	-2.7040506E+002
3	0	1.077838993061159E+003	4.2502469E-001	-2.7037677E+002
3	0	1.078338993048528E+003	4.2386496E-001	-2.7039093E+002
3	0	1.078838993035897E+003	4.2263010E-001	-2.7039447E+002
3	0	1.079338993023266E+003	4.2201036E-001	-2.7039801E+002
3	0	1.079838993010635E+003	4.2143333E-001	-2.7040155E+002
3	0	1.080338992998004E+003	4.2066219E-001	-2.7037677E+002
3	0	1.080838992985373E+003	4.1973385E-001	-2.7037326E+002
3	0	1.081338992972742E+003	4.1874632E-001	-2.7039801E+002
3	0	1.081838992960111E+003	4.1762111E-001	-2.7037677E+002
3	0	1.082338992947480E+003	4.1623053E-001	-2.7036972E+002
3	0	1.082838992934849E+003	4.1486049E-001	-2.7035559E+002
3	0	1.083338992922218E+003	4.1416588E-001	-2.7037326E+002
3	0	1.083838992909587E+003	4.1350314E-001	-2.7037326E+002
3	0	1.084338992896955E+003	4.1270074E-001	-2.7039093E+002
3	0	1.084838992884324E+003	4.1185477E-001	-2.7039093E+002
3	0	1.085338992871693E+003	4.1105133E-001	-2.7039093E+002
3	0	1.085838992859062E+003	4.1031468E-001	-2.7035559E+002
3	0	1.086338992846431E+003	4.0957206E-001	-2.7039801E+002
3	0	1.086838992833800E+003	4.0900367E-001	-2.7039801E+002
3	0	1.087338992821169E+003	4.0917882E-001	-2.7040155E+002
3	0	1.087838992808538E+003	4.0953803E-001	-2.7039093E+002
3	0	1.088338992795907E+003	4.0984142E-001	-2.7036618E+002
3	0	1.088838992783276E+003	4.0999818E-001	-2.7036972E+002
3	0	1.089338992770645E+003	4.1009274E-001	-2.7039801E+002
3	0	1.089838992758014E+003	4.1004530E-001	-2.7035913E+002
3	0	1.090338992745383E+003	4.0980035E-001	-2.7036972E+002
3	0	1.090838992732752E+003	4.0946797E-001	-2.7038385E+002
3	0	1.091338992720121E+003	4.0960944E-001	-2.7037677E+002
3	0	1.091838992707490E+003	4.0976024E-001	-2.7038742E+002
3	0	1.092338992694858E+003	4.0968913E-001	-2.7039447E+002
3	0	1.092838992682227E+003	4.0943769E-001	-2.7037677E+002
3	0	1.093338992669596E+003	4.0912640E-001	-2.7035559E+002
3	0	1.093838992656965E+003	4.0868738E-001	-2.7036618E+002
3	0	1.094338992644334E+003	4.0799195E-001	-2.7035559E+002
3	0	1.094838992631703E+003	4.0728107E-001	-2.7038385E+002
3	0	1.095338992619072E+003	4.0712002E-001	-2.7036972E+002
3	0	1.095838992606441E+003	4.0696377E-001	-2.7036618E+002
3	0	1.096338992593810E+003	4.0663305E-001	-2.7039093E+002
3	0	1.096838992581179E+003	4.0614682E-001	-2.7036267E+002
3	0	1.097338992568548E+003	4.0559718E-001	-2.7037677E+002
3	0	1.097838992555917E+003	4.0497267E-001	-2.7038031E+002
3	0	1.098338992543286E+003	4.0409034E-001	-2.7037677E+002
3	0	1.098838992530655E+003	4.0321302E-001	-2.7039447E+002
3	0	1.099338992518024E+003	4.0286100E-001	-2.7038031E+002
3	0	1.099838992505393E+003	4.0252182E-001	-2.7037326E+002
3	0	1.100338992492761E+003	4.0205353E-001	-2.7038385E+002
3	0	1.100838992480130E+003	4.0149468E-001	-2.7038031E+002
3	0	1.101338992467499E+003	4.0088180E-001	-2.7038742E+002
3	0	1.101838992454868E+003	4.0017492E-001	-2.7037326E+002
3	0	1.102338992442237E+003	3.9933753E-001	-2.7036618E+002
3	0	1.102838992429606E+003	3.9850855E-001	-2.7035913E+002
3	0	1.103338992416975E+003	3.9813265E-001	-2.7038385E+002
3	0	1.103838992404344E+003	3.9782295E-001	-2.7036972E+002
3	0	1.104338992391713E+003	3.9738816E-001	-2.7038385E+002
3	0	1.104838992379082E+003	3.9685580E-001	-2.7039801E+002
3	0	1.105338992366451E+003	3.9634684E-001	-2.7036972E+002
3	0	1.105838992353820E+003	3.9584166E-001	-2.7039447E+002
3	0	1.106338992341189E+003	3.9530268E-001	-2.7035913E+002
3	0	1.106838992328558E+003	3.9489409E-001	-2.7037326E+002
3	0	1.107338992315927E+003	3.9510012E-001	-2.7036972E+002
3	0	1.107838992303296E+003	3.9541900E-001	-2.7037677E+002
3	0	1.108338992290664E+003	3.9574364E-001	-2.7038031E+002
3	0	1.108838992278033E+003	3.9602029E-001	-2.7038742E+002
3	0	1.109338992265402E+003	3.9621347E-001	-2.7038031E+002
3	0	1.109838992252771E+003	3.9627784E-001	-2.7035913E+002
3	0	1.110338992240140E+003	3.9612103E-001	-2.7038385E+002
3	0	1.110838992227509E+003	3.9593795E-001	-2.7038031E+002
3	0	1.111338992214878E+003	3.9613500E-001	-2.7038385E+002
3	0	1.111838992202247E+003	3.9630130E-001	-2.7036972E+002
3	0	1.112338992189616E+003	3.9632532E-001	-2.7040155E+002
3	0	1.112838992176985E+003	3.9622113E-001	-2.7039801E+002
3	0	1.113338992164354E+003	3.9603296E-001	-2.7036267E+002
3	0	1.113838992151723E+003	3.9570653E-001	-2.7038385E+002
3	0	1.114338992139092E+003	3.9523661E-001	-2.7038742E+002
3	0	1.114838992126461E+003	3.9471892E-001	-2.7038742E+002
3	0	1.115338992113830E+003	3.9460549E-001	-2.7037326E+002
3	0	1.115838992101199E+003	3.9451680E-001	-2.7036972E+002
3	0	1.116338992088567E+003	3.9429569E-001	-2.7039447E+002
3	0	1.116838992075936E+003	3.9393356E-001	-2.7037677E+002
3	0	1.117338992063305E+003	3.9357165E-001	-2.7038385E+002
3	0	1.117838992050674E+003	3.9310643E-001	-2.7037677E+002
3	0	1.118338992038043E+003	3.9246807E-001	-2.7035559E+002
3	0	1.118838992025412E+003	3.9180499E-001	-2.7037326E+002
3	0	1.119338992012781E+003	3.9153931E-001	-2.7038031E+002
3	0	1.119838992000150E+003	3.9130566E-001	-2.7039447E+002
3	0	1.120338991987519E+003	3.9098290E-001	-2.7036618E+002
3	0	1.120838991974888E+003	3.9059806E-001	-2.7037677E+002
3	0	1.121338991962257E+003	3.9017951E-001	-2.7037677E+002
3	0	1.121838991949626E+003	3.8966998E-001	-2.7036972E+002
3	0	1.122338991936995E+003	3.8902646E-001	-2.7036618E+002
3	0	1.122838991924364E+003	3.8835686E-001	-2.7037677E+002
3	0	1.123338991911733E+003	3.8805735E-001	-2.7036972E+002
3	0	1.123838991899102E+003	3.8781610E-001	-2.7038385E+002
3	0	1.124338991886470E+003	3.8750675E-001	-2.7038742E+002
3	0	1.124838991873839E+003	3.8710296E-001	-2.7037326E+002
3	0	1.125338991861208E+003	3.8672757E-001	-2.7038385E+002
3	0	1.125838991848577E+003	3.8636619E-001	-2.7040860E+002
3	0	1.126338991835946E+003	3.8596132E-001	-2.7037326E+002
3	0	1.126838991823315E+003	3.8564545E-001	-2.7037326E+002
3	0	1.127338991810684E+003	3.8576785E-001	-2.7038385E+002
3	0	1.127838991798053E+003	3.8603359E-001	-2.7037677E+002
3	0	1.128338991785422E+003	3.8630313E-001	-2.7036618E+002
3	0	1.128838991772791E+003	3.8652796E-001	-2.7038385E+002
3	0	1.129338991760160E+003	3.8668811E-001	-2.7035913E+002
3	0	1.129838991747529E+003	3.8675225E-001	-2.7037677E+002
3	0	1.130338991734898E+003	3.8658974E-001	-2.7037326E+002
3	0	1.130838991722267E+003	3.8639367E-001	-2.7037326E+002
3	0	1.131338991709636E+003	3.8653624E-001	-2.7039093E+002
3	0	1.131838991697005E+003	3.8667986E-001	-2.7039801E+002
3	0	1.132338991684373E+003	3.8673148E-001	-2.7037326E+002
3	0	1.132838991671742E+003	3.8663316E-001	-2.7039093E+002
3	0	1.133338991659111E+003	3.8651067E-001	-2.7039801E+002
3	0	1.133838991646480E+003	3.8627496E-001	-2.7036972E+002
3	0	1.133863591645859E+003	3.8607198E-001	-2.7037677E+002