EC-Lab ASCII FILE
Nb header lines : 48                          

Open Circuit Voltage

Run on channel : 1 (SN 81504)
User : 
CE vs. WE compliance from -10 V to 10 V
Electrode connection : standard
Potential control : Ewe
Ewe ctrl range : min = -2.50 V, max = 2.50 V
Safety Limits :
	Do not start on E overload
Acquisition started on : 05/10/2026 02:09:52.585
Loaded Setting File :  C:\PEM-WE_measurements\2026\372_IV_IV IrOx, 5 min Pt, 30 min C, etched cathode\new station\Loopeis new\1,46 V different time gaps closed cell\Loopeis 1,46V_60s_2_PEIS from 65kHz to 10kHz.mps
Saved on :
	File : L_12_Loopeis 1,46V_60s_2_PEIS from 65kHz to 10kHz_16_OCV_C01.mpr
	Directory : C:\PEM-WE_measurements\2026\372_IV_IV IrOx, 5 min Pt, 30 min C, etched cathode\new station\Loopeis new\1,46 V different time gaps closed cell\
	Host : 192.168.0.2
Device : SP-150e (SN .005491)
Address : 192.168.0.91
EC-LAB for windows v11.71 (software)
Internet server v28.00 (firmware)
Command interpretor v14.01 (firmware)
Electrode material : 
Initial state : 
Electrolyte : 
Comments : 
Current amplifier : SP-150eB-20A
Electrode surface area : 0.001 cm²
Characteristic mass : 0.001 g
Equivalent Weight : 0.000 g/eq.
Density : 0.000 g/cm3
Volume (V) : 0.001 cm³
Record Analogic IN 1
Text export
   Mode : Standard
   Time format : Elapsed
Cycle Definition : Charge/Discharge alternance
tR (h:m:s)          0:01:0.0000         
dER/dt (mV/h)       1.0                 
record              <Ewe>               
dER (mV)            10.00               
dtR (s)             0.5000              
E range min (V)     -2.500              
E range max (V)     2.500               

mode	error	time/s	<Ewe/V>	Analog IN 1/V	
3	0	7.834293935207825E+002	1.1917490E+000	9.9292607E-005
3	0	7.839293935081514E+002	1.2585560E+000	2.2950437E-005
3	0	7.844293934955203E+002	1.2626337E+000	2.2950437E-005
3	0	7.849293934828893E+002	1.2650017E+000	-1.5220648E-005
3	0	7.854293934702582E+002	1.2665424E+000	-5.3391734E-005
3	0	7.859293934576272E+002	1.2676100E+000	8.0207064E-005
3	0	7.864293934449961E+002	1.2684481E+000	-3.4306191E-005
3	0	7.869293934323650E+002	1.2690899E+000	3.8648941E-006
3	0	7.874293934197340E+002	1.2695755E+000	-1.4881945E-004
3	0	7.879293934071029E+002	1.2699441E+000	-9.1562819E-005
3	0	7.884293933944718E+002	1.2702246E+000	-3.4306191E-005
3	0	7.889293933818408E+002	1.2704004E+000	-3.4306191E-005
3	0	7.894293933692097E+002	1.2704581E+000	-1.5220648E-005
3	0	7.899293933565787E+002	1.2704515E+000	2.2950437E-005
3	0	7.904293933439476E+002	1.2704872E+000	1.3746369E-004
3	0	7.909293933313165E+002	1.2705245E+000	-1.5220648E-005
3	0	7.914293933186855E+002	1.2705470E+000	-1.8699054E-004
3	0	7.919293933060544E+002	1.2705548E+000	-9.1562819E-005
3	0	7.924293932934233E+002	1.2705764E+000	-5.3391734E-005
3	0	7.929293932807923E+002	1.2705575E+000	-1.1064836E-004
3	0	7.934293932681612E+002	1.2704784E+000	-1.1064836E-004
3	0	7.939293932555302E+002	1.2703584E+000	-1.2973390E-004
3	0	7.944293932428991E+002	1.2703346E+000	3.8648941E-006
3	0	7.949293932302680E+002	1.2703339E+000	-7.2477276E-005
3	0	7.954293932176370E+002	1.2703309E+000	1.1837815E-004
3	0	7.959293932050059E+002	1.2703251E+000	-1.4881945E-004
3	0	7.964293931923748E+002	1.2703245E+000	-1.1064836E-004
3	0	7.969293931797438E+002	1.2702903E+000	3.8648941E-006
3	0	7.974293931671127E+002	1.2701992E+000	-1.1064836E-004
3	0	7.979293931544817E+002	1.2700789E+000	-7.2477276E-005
3	0	7.984293931418506E+002	1.2700312E+000	2.2950437E-005
3	0	7.989293931292195E+002	1.2700145E+000	-5.3391734E-005
3	0	7.994293931165885E+002	1.2699995E+000	-1.1064836E-004
3	0	7.999293931039574E+002	1.2699784E+000	-1.2973390E-004
3	0	8.004293930913263E+002	1.2699533E+000	8.0207064E-005
3	0	8.009293930786953E+002	1.2698902E+000	-7.2477276E-005
3	0	8.014293930660642E+002	1.2697636E+000	-1.5220648E-005
3	0	8.019293930534332E+002	1.2696004E+000	-1.1064836E-004
3	0	8.024293930408021E+002	1.2695153E+000	3.8648941E-006
3	0	8.029293930281710E+002	1.2694503E+000	-9.1562819E-005
3	0	8.034293930155400E+002	1.2693920E+000	-1.5220648E-005
3	0	8.039293930029089E+002	1.2693264E+000	-1.2973390E-004
3	0	8.044293929902778E+002	1.2692597E+000	-7.2477276E-005
3	0	8.049293929776468E+002	1.2691635E+000	-5.3391734E-005
3	0	8.054293929650157E+002	1.2689878E+000	-9.1562819E-005
3	0	8.059293929523847E+002	1.2687815E+000	-1.8699054E-004
3	0	8.064293929397536E+002	1.2686592E+000	-9.1562819E-005
3	0	8.069293929271225E+002	1.2685528E+000	-1.6790499E-004
3	0	8.074293929144915E+002	1.2684486E+000	-9.1562819E-005
3	0	8.079293929018604E+002	1.2683282E+000	3.8648941E-006
3	0	8.084293928892293E+002	1.2682025E+000	-9.1562819E-005
3	0	8.089293928765983E+002	1.2680473E+000	4.2035979E-005
3	0	8.094293928639672E+002	1.2678329E+000	-1.1064836E-004
3	0	8.099293928513362E+002	1.2675811E+000	-5.3391734E-005
3	0	8.104293928387051E+002	1.2674191E+000	-9.1562819E-005
3	0	8.109293928260740E+002	1.2672931E+000	4.2035979E-005
3	0	8.114293928134430E+002	1.2671819E+000	-1.2973390E-004
3	0	8.119293928008119E+002	1.2670758E+000	-9.1562819E-005
3	0	8.124293927881808E+002	1.2669784E+000	-7.2477276E-005
3	0	8.129293927755498E+002	1.2668536E+000	-7.2477276E-005
3	0	8.134293927629187E+002	1.2666740E+000	2.2950437E-005
3	0	8.139293927502877E+002	1.2664545E+000	-1.5220648E-005
3	0	8.144293927376566E+002	1.2663280E+000	-1.5220648E-005
3	0	8.149293927250255E+002	1.2662320E+000	-1.4881945E-004
3	0	8.154293927123945E+002	1.2661498E+000	-7.2477276E-005
3	0	8.159293926997634E+002	1.2660480E+000	6.1121522E-005
3	0	8.164293926871323E+002	1.2659538E+000	3.8648941E-006
3	0	8.169293926745013E+002	1.2658252E+000	3.8648941E-006
3	0	8.174293926618702E+002	1.2656341E+000	-1.1064836E-004
3	0	8.179293926492392E+002	1.2653925E+000	4.2035979E-005
3	0	8.184293926366081E+002	1.2652370E+000	-1.5220648E-005
3	0	8.189293926239770E+002	1.2651069E+000	-2.0607607E-004
3	0	8.194293926113460E+002	1.2649820E+000	-7.2477276E-005
3	0	8.199293925987149E+002	1.2648414E+000	3.8648941E-006
3	0	8.204293925860839E+002	1.2646990E+000	-1.4881945E-004
3	0	8.209293925734528E+002	1.2645234E+000	6.1121522E-005
3	0	8.214293925608217E+002	1.2642771E+000	-9.1562819E-005
3	0	8.219293925481907E+002	1.2639834E+000	3.8648941E-006
3	0	8.224293925355596E+002	1.2637715E+000	-1.5220648E-005
3	0	8.229293925229285E+002	1.2635883E+000	-9.1562819E-005
3	0	8.234293925102975E+002	1.2634022E+000	-1.1064836E-004
3	0	8.239293924976664E+002	1.2632149E+000	-5.3391734E-005
3	0	8.244293924850354E+002	1.2630256E+000	-3.4306191E-005
3	0	8.249293924724043E+002	1.2627969E+000	4.2035979E-005
3	0	8.254293924597732E+002	1.2624929E+000	-1.5220648E-005
3	0	8.259293924471422E+002	1.2621517E+000	-9.1562819E-005
3	0	8.264293924345111E+002	1.2619017E+000	-3.4306191E-005
3	0	8.269293924218800E+002	1.2616705E+000	3.8648941E-006
3	0	8.274293924092490E+002	1.2614349E+000	-5.3391734E-005
3	0	8.279293923966179E+002	1.2612031E+000	-3.4306191E-005
3	0	8.284293923839869E+002	1.2609686E+000	-1.1064836E-004
3	0	8.289293923713558E+002	1.2607009E+000	-1.5220648E-005
3	0	8.294293923587247E+002	1.2603625E+000	1.1837815E-004
3	0	8.299293923460937E+002	1.2599845E+000	-3.4306191E-005
3	0	8.304293923334626E+002	1.2597065E+000	4.2035979E-005
3	0	8.309293923208315E+002	1.2594565E+000	6.1121522E-005
3	0	8.314293923082005E+002	1.2592167E+000	-9.1562819E-005
3	0	8.319293922955694E+002	1.2589984E+000	-1.1064836E-004
3	0	8.324293922829384E+002	1.2587734E+000	-3.4306191E-005
3	0	8.329293922703073E+002	1.2585382E+000	-1.4881945E-004
3	0	8.334293922576762E+002	1.2582450E+000	-5.3391734E-005
3	0	8.339293922450452E+002	1.2579187E+000	3.8648941E-006
3	0	8.344293922324141E+002	1.2576811E+000	-1.5220648E-005
3	0	8.349293922197830E+002	1.2574843E+000	-3.4306191E-005
3	0	8.354293922071520E+002	1.2572962E+000	-3.4306191E-005
3	0	8.359293921945209E+002	1.2571057E+000	3.8648941E-006
3	0	8.364293921818899E+002	1.2569129E+000	-1.2973390E-004
3	0	8.369293921692588E+002	1.2566911E+000	-7.2477276E-005
3	0	8.374293921566277E+002	1.2563961E+000	-3.4306191E-005
3	0	8.379293921439967E+002	1.2560728E+000	4.2035979E-005
3	0	8.384293921313656E+002	1.2558328E+000	-5.3391734E-005
3	0	8.389293921187345E+002	1.2556161E+000	-9.1562819E-005
3	0	8.394293921061035E+002	1.2553996E+000	-3.4306191E-005
3	0	8.399293920934724E+002	1.2551805E+000	-3.4306191E-005
3	0	8.404293920808414E+002	1.2549593E+000	-7.2477276E-005
3	0	8.409293920682103E+002	1.2547168E+000	2.2950437E-005
3	0	8.414293920555792E+002	1.2543921E+000	6.1121522E-005
3	0	8.419293920429482E+002	1.2540283E+000	-9.1562819E-005
3	0	8.424293920303171E+002	1.2537521E+000	2.2950437E-005
3	0	8.429293920176860E+002	1.2534990E+000	-3.4306191E-005
3	0	8.429633920168271E+002	1.2533736E+000	-3.4306191E-005