EC-Lab ASCII FILE
Nb header lines : 55                          

Open Circuit Voltage

Run on channel : 1 (SN 81504)
User : 
CE vs. WE compliance from -10 V to 10 V
Electrode connection : standard
Potential control : Ewe
Ewe ctrl range : min = -2.50 V, max = 2.50 V
Safety Limits :
	Do not start on E overload
Acquisition started on : 05/10/2026 07:17:37.794
Loaded Setting File :  C:\PEM-WE_measurements\2026\372_IV_IV IrOx, 5 min Pt, 30 min C, etched cathode\new station\Loopeis new\1,46 V different time gaps closed cell\Loopeis 1,46V_120s_5_PEIS from 65Hz to 10Hz.mps
Saved on :
	File : L_25_Loopeis 1,46V_120s_5_PEIS from 65Hz to 10Hz_16_OCV_C01.mpr
	Directory : C:\PEM-WE_measurements\2026\372_IV_IV IrOx, 5 min Pt, 30 min C, etched cathode\new station\Loopeis new\1,46 V different time gaps closed cell\
	Host : 192.168.0.2
Device : SP-150e (SN .005491)
Address : 192.168.0.91
EC-LAB for windows v11.71 (software)
Internet server v28.00 (firmware)
Command interpretor v14.01 (firmware)
Electrode material : 
Initial state : 
Electrolyte : 
Comments : 
Current amplifier : SP-150eB-20A
Electrode surface area : 0.001 cm²
Characteristic mass : 0.001 g
Equivalent Weight : 0.000 g/eq.
Density : 0.000 g/cm3
Volume (V) : 0.001 cm³
Record Analogic IN 1
Text export
   Mode : Standard
   Time format : Elapsed
Cycle Definition : Charge/Discharge alternance
External device configuration :
   device type : Temperature Probe
   device name : Other
   Analog IN 1 : 
      unit : T/Â°C
      max : 100.000 at 2.000 V
      min : 0.000 at 1.460 V
tR (h:m:s)          0:02:0.0000         
dER/dt (mV/h)       1.0                 
record              <Ewe>               
dER (mV)            10.00               
dtR (s)             0.5000              
E range min (V)     -2.500              
E range max (V)     2.500               

mode	error	time/s	<Ewe/V>	Analog IN 1/V	
3	0	1.345984789681024E+003	1.2907392E+000	-2.7037677E+002
3	0	1.346484789668393E+003	1.2978666E+000	-2.7035559E+002
3	0	1.346984789655762E+003	1.2959236E+000	-2.7036972E+002
3	0	1.347484789643131E+003	1.2898691E+000	-2.7039801E+002
3	0	1.347984789630500E+003	1.2782416E+000	-2.7036267E+002
3	0	1.348484789617869E+003	1.2588693E+000	-2.7034497E+002
3	0	1.348984789605238E+003	1.2283847E+000	-2.7037677E+002
3	0	1.349484789592607E+003	1.1793664E+000	-2.7037326E+002
3	0	1.349984789579976E+003	1.0862025E+000	-2.7036972E+002
3	0	1.350484789567345E+003	8.1101990E-001	-2.7040506E+002
3	0	1.350984789554714E+003	5.4638731E-001	-2.7036972E+002
3	0	1.351484789542083E+003	4.6396959E-001	-2.7039447E+002
3	0	1.351984789529452E+003	4.3705958E-001	-2.7039447E+002
3	0	1.352484789516820E+003	4.2812833E-001	-2.7036972E+002
3	0	1.352984789504189E+003	4.2398196E-001	-2.7035913E+002
3	0	1.353484789491558E+003	4.2119852E-001	-2.7036972E+002
3	0	1.353984789478927E+003	4.1874626E-001	-2.7038742E+002
3	0	1.354484789466296E+003	4.1645822E-001	-2.7036972E+002
3	0	1.354984789453665E+003	4.1514334E-001	-2.7037326E+002
3	0	1.355484789441034E+003	4.1474041E-001	-2.7037326E+002
3	0	1.355984789428403E+003	4.1424379E-001	-2.7035559E+002
3	0	1.356484789415772E+003	4.1357550E-001	-2.7037326E+002
3	0	1.356984789403141E+003	4.1304797E-001	-2.7037326E+002
3	0	1.357484789390510E+003	4.1253293E-001	-2.7039093E+002
3	0	1.357984789377879E+003	4.1183355E-001	-2.7037326E+002
3	0	1.358484789365248E+003	4.1102043E-001	-2.7037677E+002
3	0	1.358984789352617E+003	4.1090125E-001	-2.7038742E+002
3	0	1.359484789339986E+003	4.1136989E-001	-2.7038031E+002
3	0	1.359984789327355E+003	4.1160822E-001	-2.7039447E+002
3	0	1.360484789314723E+003	4.1152829E-001	-2.7036972E+002
3	0	1.360984789302092E+003	4.1150856E-001	-2.7039447E+002
3	0	1.361484789289461E+003	4.1144291E-001	-2.7038742E+002
3	0	1.361984789276830E+003	4.1108224E-001	-2.7039093E+002
3	0	1.362484789264199E+003	4.1051453E-001	-2.7040155E+002
3	0	1.362984789251568E+003	4.1052458E-001	-2.7037326E+002
3	0	1.363484789238937E+003	4.1109601E-001	-2.7035559E+002
3	0	1.363984789226306E+003	4.1136995E-001	-2.7036972E+002
3	0	1.364484789213675E+003	4.1140038E-001	-2.7038385E+002
3	0	1.364984789201044E+003	4.1138741E-001	-2.7038031E+002
3	0	1.365484789188413E+003	4.1132450E-001	-2.7037326E+002
3	0	1.365984789175782E+003	4.1097370E-001	-2.7038385E+002
3	0	1.366484789163151E+003	4.1052011E-001	-2.7037677E+002
3	0	1.366984789150520E+003	4.1064709E-001	-2.7038031E+002
3	0	1.367484789137889E+003	4.1147131E-001	-2.7034497E+002
3	0	1.367984789125258E+003	4.1220248E-001	-2.7038385E+002
3	0	1.368484789112626E+003	4.1286272E-001	-2.7037677E+002
3	0	1.368984789099995E+003	4.1369379E-001	-2.7037677E+002
3	0	1.369484789087364E+003	4.1469008E-001	-2.7038385E+002
3	0	1.369984789074733E+003	4.1544908E-001	-2.7035205E+002
3	0	1.370484789062102E+003	4.1605070E-001	-2.7035913E+002
3	0	1.370984789049471E+003	4.1722366E-001	-2.7036618E+002
3	0	1.371484789036840E+003	4.1883260E-001	-2.7039093E+002
3	0	1.371984789024209E+003	4.2019367E-001	-2.7037677E+002
3	0	1.372484789011578E+003	4.2111170E-001	-2.7039093E+002
3	0	1.372984788998947E+003	4.2204398E-001	-2.7035559E+002
3	0	1.373484788986316E+003	4.2287064E-001	-2.7037326E+002
3	0	1.373984788973685E+003	4.2333031E-001	-2.7037326E+002
3	0	1.374484788961054E+003	4.2350456E-001	-2.7036267E+002
3	0	1.374984788948423E+003	4.2411789E-001	-2.7036267E+002
3	0	1.375484788935792E+003	4.2520848E-001	-2.7036972E+002
3	0	1.375984788923161E+003	4.2595437E-001	-2.7039801E+002
3	0	1.376484788910529E+003	4.2636028E-001	-2.7037326E+002
3	0	1.376984788897898E+003	4.2670217E-001	-2.7037326E+002
3	0	1.377484788885267E+003	4.2683440E-001	-2.7038742E+002
3	0	1.377984788872636E+003	4.2674324E-001	-2.7040155E+002
3	0	1.378484788860005E+003	4.2633024E-001	-2.7035205E+002
3	0	1.378984788847374E+003	4.2638049E-001	-2.7035559E+002
3	0	1.379484788834743E+003	4.2699617E-001	-2.7038385E+002
3	0	1.379984788822112E+003	4.2730212E-001	-2.7038742E+002
3	0	1.380484788809481E+003	4.2730531E-001	-2.7038385E+002
3	0	1.380984788796850E+003	4.2721111E-001	-2.7040155E+002
3	0	1.381484788784219E+003	4.2704147E-001	-2.7036267E+002
3	0	1.381984788771588E+003	4.2636910E-001	-2.7040155E+002
3	0	1.382484788758957E+003	4.2548668E-001	-2.7036972E+002
3	0	1.382984788746326E+003	4.2508382E-001	-2.7038742E+002
3	0	1.383484788733695E+003	4.2524734E-001	-2.7039093E+002
3	0	1.383984788721064E+003	4.2510101E-001	-2.7038742E+002
3	0	1.384484788708432E+003	4.2458948E-001	-2.7036972E+002
3	0	1.384984788695801E+003	4.2405105E-001	-2.7036972E+002
3	0	1.385484788683170E+003	4.2343023E-001	-2.7040155E+002
3	0	1.385984788670539E+003	4.2251471E-001	-2.7038742E+002
3	0	1.386484788657908E+003	4.2132941E-001	-2.7036972E+002
3	0	1.386984788645277E+003	4.2074871E-001	-2.7038385E+002
3	0	1.387484788632646E+003	4.2088005E-001	-2.7038742E+002
3	0	1.387984788620015E+003	4.2098889E-001	-2.7038742E+002
3	0	1.388484788607384E+003	4.2102557E-001	-2.7037677E+002
3	0	1.388984788594753E+003	4.2121199E-001	-2.7038031E+002
3	0	1.389484788582122E+003	4.2153195E-001	-2.7038031E+002
3	0	1.389984788569491E+003	4.2171517E-001	-2.7037326E+002
3	0	1.390484788556860E+003	4.2180768E-001	-2.7038742E+002
3	0	1.390984788544229E+003	4.2230850E-001	-2.7041214E+002
3	0	1.391484788531598E+003	4.2336166E-001	-2.7037677E+002
3	0	1.391984788518967E+003	4.2411467E-001	-2.7035559E+002
3	0	1.392484788506335E+003	4.2457029E-001	-2.7039447E+002
3	0	1.392984788493704E+003	4.2484695E-001	-2.7035913E+002
3	0	1.393484788481073E+003	4.2496413E-001	-2.7039093E+002
3	0	1.393984788468442E+003	4.2472199E-001	-2.7036618E+002
3	0	1.394484788455811E+003	4.2425016E-001	-2.7038385E+002
3	0	1.394984788443180E+003	4.2418590E-001	-2.7035205E+002
3	0	1.395484788430549E+003	4.2460740E-001	-2.7036267E+002
3	0	1.395984788417918E+003	4.2476761E-001	-2.7038385E+002
3	0	1.396484788405287E+003	4.2456248E-001	-2.7036972E+002
3	0	1.396984788392656E+003	4.2424762E-001	-2.7037677E+002
3	0	1.397484788380025E+003	4.2384684E-001	-2.7035205E+002
3	0	1.397984788367394E+003	4.2321107E-001	-2.7040155E+002
3	0	1.398484788354763E+003	4.2223322E-001	-2.7039093E+002
3	0	1.398984788342132E+003	4.2162463E-001	-2.7035559E+002
3	0	1.399484788329501E+003	4.2157409E-001	-2.7037677E+002
3	0	1.399984788316870E+003	4.2125857E-001	-2.7037677E+002
3	0	1.400484788304238E+003	4.2058435E-001	-2.7039447E+002
3	0	1.400984788291607E+003	4.1982180E-001	-2.7038031E+002
3	0	1.401484788278976E+003	4.1895980E-001	-2.7036267E+002
3	0	1.401984788266345E+003	4.1782591E-001	-2.7039093E+002
3	0	1.402484788253714E+003	4.1650984E-001	-2.7037326E+002
3	0	1.402984788241083E+003	4.1553757E-001	-2.7036618E+002
3	0	1.403484788228452E+003	4.1514203E-001	-2.7037326E+002
3	0	1.403984788215821E+003	4.1458690E-001	-2.7037677E+002
3	0	1.404484788203190E+003	4.1373196E-001	-2.7036618E+002
3	0	1.404984788190559E+003	4.1286364E-001	-2.7037326E+002
3	0	1.405484788177928E+003	4.1195148E-001	-2.7038031E+002
3	0	1.405984788165297E+003	4.1083729E-001	-2.7036267E+002
3	0	1.406484788152666E+003	4.0956300E-001	-2.7038742E+002
3	0	1.406984788140035E+003	4.0872985E-001	-2.7038385E+002
3	0	1.407484788127404E+003	4.0851611E-001	-2.7033789E+002
3	0	1.407984788114773E+003	4.0829292E-001	-2.7036972E+002
3	0	1.408484788102141E+003	4.0800887E-001	-2.7039447E+002
3	0	1.408984788089510E+003	4.0789181E-001	-2.7037326E+002
3	0	1.409484788076879E+003	4.0786669E-001	-2.7036972E+002
3	0	1.409984788064248E+003	4.0776700E-001	-2.7038031E+002
3	0	1.410484788051617E+003	4.0748939E-001	-2.7034497E+002
3	0	1.410984788038986E+003	4.0763173E-001	-2.7037677E+002
3	0	1.411484788026355E+003	4.0823397E-001	-2.7039801E+002
3	0	1.411984788013724E+003	4.0863597E-001	-2.7037326E+002
3	0	1.412484788001093E+003	4.0871710E-001	-2.7040155E+002
3	0	1.412984787988462E+003	4.0868071E-001	-2.7038742E+002
3	0	1.413484787975831E+003	4.0856627E-001	-2.7037677E+002
3	0	1.413984787963200E+003	4.0811458E-001	-2.7035559E+002
3	0	1.414484787950569E+003	4.0756902E-001	-2.7038742E+002
3	0	1.414984787937938E+003	4.0726626E-001	-2.7038031E+002
3	0	1.415484787925307E+003	4.0738788E-001	-2.7040155E+002
3	0	1.415984787912676E+003	4.0734887E-001	-2.7036618E+002
3	0	1.416484787900044E+003	4.0708312E-001	-2.7037677E+002
3	0	1.416984787887413E+003	4.0670431E-001	-2.7038385E+002
3	0	1.417484787874782E+003	4.0626141E-001	-2.7038742E+002
3	0	1.417984787862151E+003	4.0553701E-001	-2.7038385E+002
3	0	1.418484787849520E+003	4.0461445E-001	-2.7035559E+002
3	0	1.418984787836889E+003	4.0409109E-001	-2.7038031E+002
3	0	1.419484787824258E+003	4.0398249E-001	-2.7035559E+002
3	0	1.419984787811627E+003	4.0366444E-001	-2.7036618E+002
3	0	1.420484787798996E+003	4.0309781E-001	-2.7039093E+002
3	0	1.420984787786365E+003	4.0249529E-001	-2.7036267E+002
3	0	1.421484787773734E+003	4.0188488E-001	-2.7036267E+002
3	0	1.421984787761103E+003	4.0103480E-001	-2.7036267E+002
3	0	1.422484787748472E+003	4.0005919E-001	-2.7038385E+002
3	0	1.422984787735841E+003	3.9941514E-001	-2.7037326E+002
3	0	1.423484787723210E+003	3.9918244E-001	-2.7037326E+002
3	0	1.423984787710579E+003	3.9878964E-001	-2.7038031E+002
3	0	1.424484787697947E+003	3.9821601E-001	-2.7036618E+002
3	0	1.424984787685316E+003	3.9756441E-001	-2.7037326E+002
3	0	1.425484787672685E+003	3.9690566E-001	-2.7037326E+002
3	0	1.425984787660054E+003	3.9608324E-001	-2.7037326E+002
3	0	1.426484787647423E+003	3.9514995E-001	-2.7038385E+002
3	0	1.426984787634792E+003	3.9456764E-001	-2.7039093E+002
3	0	1.427484787622161E+003	3.9449015E-001	-2.7036618E+002
3	0	1.427984787609530E+003	3.9441904E-001	-2.7036267E+002
3	0	1.428484787596899E+003	3.9425260E-001	-2.7042273E+002
3	0	1.428984787584268E+003	3.9417636E-001	-2.7037326E+002
3	0	1.429484787571637E+003	3.9420730E-001	-2.7039093E+002
3	0	1.429984787559006E+003	3.9413720E-001	-2.7038031E+002
3	0	1.430484787546375E+003	3.9399526E-001	-2.7038385E+002
3	0	1.430984787533744E+003	3.9415792E-001	-2.7036972E+002
3	0	1.431484787521113E+003	3.9461660E-001	-2.7038742E+002
3	0	1.431984787508482E+003	3.9488077E-001	-2.7036972E+002
3	0	1.432484787495850E+003	3.9494532E-001	-2.7038031E+002
3	0	1.432984787483219E+003	3.9487994E-001	-2.7035913E+002
3	0	1.433484787470588E+003	3.9476034E-001	-2.7039801E+002
3	0	1.433984787457957E+003	3.9445147E-001	-2.7035205E+002
3	0	1.434484787445326E+003	3.9396819E-001	-2.7038385E+002
3	0	1.434984787432695E+003	3.9374664E-001	-2.7038385E+002
3	0	1.435484787420064E+003	3.9387006E-001	-2.7036618E+002
3	0	1.435984787407433E+003	3.9382106E-001	-2.7038031E+002
3	0	1.436484787394802E+003	3.9359310E-001	-2.7036972E+002
3	0	1.436984787382171E+003	3.9328650E-001	-2.7037326E+002
3	0	1.437484787369540E+003	3.9291841E-001	-2.7038742E+002
3	0	1.437984787356909E+003	3.9239478E-001	-2.7039801E+002
3	0	1.438484787344278E+003	3.9171171E-001	-2.7037677E+002
3	0	1.438984787331647E+003	3.9130655E-001	-2.7038385E+002
3	0	1.439484787319016E+003	3.9124608E-001	-2.7039447E+002
3	0	1.439984787306385E+003	3.9106703E-001	-2.7036618E+002
3	0	1.440484787293753E+003	3.9069960E-001	-2.7034851E+002
3	0	1.440984787281122E+003	3.9030421E-001	-2.7034851E+002
3	0	1.441484787268491E+003	3.8983443E-001	-2.7038031E+002
3	0	1.441984787255860E+003	3.8921043E-001	-2.7038385E+002
3	0	1.442484787243229E+003	3.8847718E-001	-2.7038385E+002
3	0	1.442984787230598E+003	3.8804534E-001	-2.7036618E+002
3	0	1.443484787217967E+003	3.8790700E-001	-2.7038031E+002
3	0	1.443984787205336E+003	3.8768160E-001	-2.7036972E+002
3	0	1.444484787192705E+003	3.8727030E-001	-2.7038031E+002
3	0	1.444984787180074E+003	3.8681427E-001	-2.7039447E+002
3	0	1.445484787167443E+003	3.8630292E-001	-2.7035559E+002
3	0	1.445984787154812E+003	3.8568777E-001	-2.7036972E+002
3	0	1.446484787142181E+003	3.8492760E-001	-2.7036972E+002
3	0	1.446984787129550E+003	3.8443992E-001	-2.7035913E+002
3	0	1.447484787116919E+003	3.8436303E-001	-2.7036972E+002
3	0	1.447984787104288E+003	3.8429725E-001	-2.7038742E+002
3	0	1.448484787091656E+003	3.8417667E-001	-2.7038385E+002
3	0	1.448984787079025E+003	3.8411263E-001	-2.7038742E+002
3	0	1.449484787066394E+003	3.8411233E-001	-2.7038385E+002
3	0	1.449984787053763E+003	3.8403192E-001	-2.7037677E+002
3	0	1.450484787041132E+003	3.8396814E-001	-2.7036972E+002
3	0	1.450984787028501E+003	3.8410631E-001	-2.7038031E+002
3	0	1.451484787015870E+003	3.8455656E-001	-2.7039801E+002
3	0	1.451984787003239E+003	3.8488510E-001	-2.7039801E+002
3	0	1.452484786990608E+003	3.8499001E-001	-2.7038385E+002
3	0	1.452984786977977E+003	3.8497511E-001	-2.7038031E+002
3	0	1.453484786965346E+003	3.8489848E-001	-2.7036972E+002
3	0	1.453984786952715E+003	3.8460878E-001	-2.7036267E+002
3	0	1.454484786940084E+003	3.8423848E-001	-2.7038031E+002
3	0	1.454984786927453E+003	3.8409999E-001	-2.7038385E+002
3	0	1.455484786914822E+003	3.8421524E-001	-2.7039093E+002
3	0	1.455984786902191E+003	3.8419113E-001	-2.7040155E+002
3	0	1.456484786889559E+003	3.8401389E-001	-2.7037326E+002
3	0	1.456984786876928E+003	3.8380659E-001	-2.7040155E+002
3	0	1.457484786864297E+003	3.8353795E-001	-2.7038385E+002
3	0	1.457984786851666E+003	3.8307765E-001	-2.7037326E+002
3	0	1.458484786839035E+003	3.8257363E-001	-2.7039093E+002
3	0	1.458984786826404E+003	3.8225937E-001	-2.7037326E+002
3	0	1.459484786813773E+003	3.8222736E-001	-2.7036267E+002
3	0	1.459984786801142E+003	3.8209626E-001	-2.7037677E+002
3	0	1.460484786788511E+003	3.8181251E-001	-2.7035559E+002
3	0	1.460984786775880E+003	3.8146946E-001	-2.7038031E+002
3	0	1.461484786763249E+003	3.8107947E-001	-2.7038385E+002
3	0	1.461984786750618E+003	3.8058901E-001	-2.7039093E+002
3	0	1.462484786737987E+003	3.7999025E-001	-2.7036267E+002
3	0	1.462984786725356E+003	3.7959120E-001	-2.7035913E+002
3	0	1.463484786712725E+003	3.7947765E-001	-2.7041214E+002
3	0	1.463984786700094E+003	3.7928602E-001	-2.7036618E+002
3	0	1.464484786687462E+003	3.7896124E-001	-2.7034851E+002
3	0	1.464984786674831E+003	3.7857777E-001	-2.7037677E+002
3	0	1.465484786662200E+003	3.7817618E-001	-2.7039093E+002
3	0	1.465509386661579E+003	3.7793159E-001	-2.7038031E+002