EC-Lab ASCII FILE
Nb header lines : 48                          

Open Circuit Voltage

Run on channel : 1 (SN 81504)
User : 
CE vs. WE compliance from -10 V to 10 V
Electrode connection : standard
Potential control : Ewe
Ewe ctrl range : min = -2.50 V, max = 2.50 V
Safety Limits :
	Do not start on E overload
Acquisition started on : 05/10/2026 00:41:40.044
Loaded Setting File :  C:\PEM-WE_measurements\2026\372_IV_IV IrOx, 5 min Pt, 30 min C, etched cathode\new station\Loopeis new\1,46 V different time gaps closed cell\Loopeis 1,46V_45s_2_PEIS from 65kHz to 10kHz.mps
Saved on :
	File : L_07_Loopeis 1,46V_45s_2_PEIS from 65kHz to 10kHz_18_OCV_C01.mpr
	Directory : C:\PEM-WE_measurements\2026\372_IV_IV IrOx, 5 min Pt, 30 min C, etched cathode\new station\Loopeis new\1,46 V different time gaps closed cell\
	Host : 192.168.0.2
Device : SP-150e (SN .005491)
Address : 192.168.0.91
EC-LAB for windows v11.71 (software)
Internet server v28.00 (firmware)
Command interpretor v14.01 (firmware)
Electrode material : 
Initial state : 
Electrolyte : 
Comments : 
Current amplifier : SP-150eB-20A
Electrode surface area : 0.001 cm²
Characteristic mass : 0.001 g
Equivalent Weight : 0.000 g/eq.
Density : 0.000 g/cm3
Volume (V) : 0.001 cm³
Record Analogic IN 1
Text export
   Mode : Standard
   Time format : Elapsed
Cycle Definition : Charge/Discharge alternance
tR (h:m:s)          0:00:45.0000        
dER/dt (mV/h)       1.0                 
record              <Ewe>               
dER (mV)            10.00               
dtR (s)             0.5000              
E range min (V)     -2.500              
E range max (V)     2.500               

mode	error	time/s	<Ewe/V>	Analog IN 1/V	
3	0	7.684419938977953E+002	1.4197296E+000	2.2950437E-005
3	0	7.689419938851643E+002	1.4117250E+000	2.2950437E-005
3	0	7.694419938725332E+002	1.4063010E+000	3.8648941E-006
3	0	7.699419938599021E+002	1.4022937E+000	8.0207064E-005
3	0	7.704419938472711E+002	1.3989996E+000	4.2035979E-005
3	0	7.709419938346400E+002	1.3961626E+000	-1.1064836E-004
3	0	7.714419938220090E+002	1.3937826E+000	-5.3391734E-005
3	0	7.719419938093779E+002	1.3917180E+000	-1.1064836E-004
3	0	7.724419937967468E+002	1.3898598E+000	3.8648941E-006
3	0	7.729419937841158E+002	1.3881838E+000	-1.8699054E-004
3	0	7.734419937714847E+002	1.3866389E+000	-3.4306191E-005
3	0	7.739419937588536E+002	1.3851829E+000	-2.0607607E-004
3	0	7.744419937462226E+002	1.3837564E+000	-1.5220648E-005
3	0	7.749419937335915E+002	1.3823583E+000	-3.4306191E-005
3	0	7.754419937209605E+002	1.3811198E+000	-1.2973390E-004
3	0	7.759419937083294E+002	1.3799820E+000	4.2035979E-005
3	0	7.764419936956983E+002	1.3789052E+000	-1.5220648E-005
3	0	7.769419936830673E+002	1.3778886E+000	-1.5220648E-005
3	0	7.774419936704362E+002	1.3769169E+000	-1.2973390E-004
3	0	7.779419936578051E+002	1.3759658E+000	3.8648941E-006
3	0	7.784419936451741E+002	1.3749790E+000	3.8648941E-006
3	0	7.789419936325430E+002	1.3739985E+000	-1.5220648E-005
3	0	7.794419936199120E+002	1.3731258E+000	6.1121522E-005
3	0	7.799419936072809E+002	1.3723139E+000	-3.4306191E-005
3	0	7.804419935946498E+002	1.3715235E+000	3.8648941E-006
3	0	7.809419935820188E+002	1.3707660E+000	6.1121522E-005
3	0	7.814419935693877E+002	1.3700380E+000	-9.1562819E-005
3	0	7.819419935567566E+002	1.3693051E+000	-3.4306191E-005
3	0	7.824419935441256E+002	1.3685242E+000	4.2035979E-005
3	0	7.829419935314945E+002	1.3677186E+000	-1.1064836E-004
3	0	7.834419935188635E+002	1.3670158E+000	-9.1562819E-005
3	0	7.839419935062324E+002	1.3663689E+000	8.0207064E-005
3	0	7.844419934936013E+002	1.3657386E+000	-1.5220648E-005
3	0	7.849419934809703E+002	1.3651206E+000	8.0207064E-005
3	0	7.854419934683392E+002	1.3645303E+000	2.2950437E-005
3	0	7.859419934557081E+002	1.3639206E+000	2.2950437E-005
3	0	7.864419934430771E+002	1.3632511E+000	-1.2973390E-004
3	0	7.869419934304460E+002	1.3625479E+000	-1.5220648E-005
3	0	7.874419934178150E+002	1.3619452E+000	-5.3391734E-005
3	0	7.879419934051839E+002	1.3613811E+000	3.8648941E-006
3	0	7.884419933925528E+002	1.3608357E+000	-2.6333271E-004
3	0	7.889419933799218E+002	1.3603027E+000	2.2950437E-005
3	0	7.894419933672907E+002	1.3597802E+000	3.8648941E-006
3	0	7.899419933546596E+002	1.3592407E+000	-1.2973390E-004
3	0	7.904419933420286E+002	1.3586397E+000	-1.4881945E-004
3	0	7.909419933293975E+002	1.3580157E+000	3.8648941E-006
3	0	7.914419933167665E+002	1.3575033E+000	-9.1562819E-005
3	0	7.919419933041354E+002	1.3570448E+000	-9.1562819E-005
3	0	7.924419932915043E+002	1.3565995E+000	-3.4306191E-005
3	0	7.929419932788733E+002	1.3561691E+000	-9.1562819E-005
3	0	7.934419932662422E+002	1.3557533E+000	-1.1064836E-004
3	0	7.939419932536111E+002	1.3553118E+000	-7.2477276E-005
3	0	7.944419932409801E+002	1.3548213E+000	-5.3391734E-005
3	0	7.949419932283490E+002	1.3542930E+000	-1.5220648E-005
3	0	7.954419932157180E+002	1.3538620E+000	-5.3391734E-005
3	0	7.959419932030869E+002	1.3534645E+000	-5.3391734E-005
3	0	7.964419931904558E+002	1.3530666E+000	-3.4306191E-005
3	0	7.969419931778248E+002	1.3526704E+000	-9.1562819E-005
3	0	7.974419931651937E+002	1.3522830E+000	-3.4306191E-005
3	0	7.979419931525626E+002	1.3518652E+000	-3.4306191E-005
3	0	7.984419931399316E+002	1.3513830E+000	-3.4306191E-005
3	0	7.989419931273005E+002	1.3508772E+000	-1.1064836E-004
3	0	7.994419931146695E+002	1.3504517E+000	-5.3391734E-005
3	0	7.999419931020384E+002	1.3500587E+000	6.1121522E-005
3	0	8.004419930894073E+002	1.3496689E+000	-1.1064836E-004
3	0	8.009419930767763E+002	1.3492684E+000	-3.4306191E-005
3	0	8.014419930641452E+002	1.3488688E+000	8.0207064E-005
3	0	8.019419930515141E+002	1.3484368E+000	-1.6790499E-004
3	0	8.024419930388831E+002	1.3479320E+000	-1.5220648E-005
3	0	8.029419930262520E+002	1.3473977E+000	-3.4306191E-005
3	0	8.034419930136210E+002	1.3469510E+000	3.8648941E-006
3	0	8.039419930009899E+002	1.3465229E+000	-1.1064836E-004
3	0	8.044419929883588E+002	1.3460933E+000	-3.4306191E-005
3	0	8.049419929757278E+002	1.3456630E+000	-7.2477276E-005
3	0	8.054419929630967E+002	1.3452313E+000	6.1121522E-005
3	0	8.059419929504656E+002	1.3447706E+000	-1.2973390E-004
3	0	8.064419929378346E+002	1.3442472E+000	6.1121522E-005
3	0	8.069419929252035E+002	1.3436803E+000	-3.4306191E-005
3	0	8.074419929125725E+002	1.3431934E+000	8.0207064E-005
3	0	8.079419928999414E+002	1.3427284E+000	-1.2973390E-004
3	0	8.084419928873103E+002	1.3422700E+000	2.2950437E-005
3	0	8.089419928746793E+002	1.3418114E+000	2.2950437E-005
3	0	8.094419928620482E+002	1.3413556E+000	-1.6790499E-004
3	0	8.099419928494171E+002	1.3408647E+000	6.1121522E-005
3	0	8.104419928367861E+002	1.3403269E+000	-3.4306191E-005
3	0	8.109419928241550E+002	1.3397565E+000	-1.2973390E-004
3	0	8.114419928115240E+002	1.3392781E+000	-3.4306191E-005
3	0	8.119419927988929E+002	1.3388302E+000	8.0207064E-005
3	0	8.124419927862618E+002	1.3383853E+000	3.8648941E-006
3	0	8.129419927736308E+002	1.3379570E+000	3.8648941E-006
3	0	8.129423927736207E+002	1.3376774E+000	-5.3391734E-005