EC-Lab ASCII FILE
Nb header lines : 55                          

Open Circuit Voltage

Run on channel : 1 (SN 81504)
User : 
CE vs. WE compliance from -10 V to 10 V
Electrode connection : standard
Potential control : Ewe
Ewe ctrl range : min = -2.50 V, max = 2.50 V
Safety Limits :
	Do not start on E overload
Acquisition started on : 05/10/2026 09:44:17.042
Loaded Setting File :  C:\PEM-WE_measurements\2026\372_IV_IV IrOx, 5 min Pt, 30 min C, etched cathode\new station\Loopeis new\1,46 V different time gaps closed cell\Loopeis 1,46V_180s_4_PEIS from 650Hz to 100Hz.mps
Saved on :
	File : L_29_Loopeis 1,46V_180s_4_PEIS from 650Hz to 100Hz_04_OCV_C01.mpr
	Directory : C:\PEM-WE_measurements\2026\372_IV_IV IrOx, 5 min Pt, 30 min C, etched cathode\new station\Loopeis new\1,46 V different time gaps closed cell\
	Host : 192.168.0.2
Device : SP-150e (SN .005491)
Address : 192.168.0.91
EC-LAB for windows v11.71 (software)
Internet server v28.00 (firmware)
Command interpretor v14.01 (firmware)
Electrode material : 
Initial state : 
Electrolyte : 
Comments : 
Current amplifier : SP-150eB-20A
Electrode surface area : 0.001 cm²
Characteristic mass : 0.001 g
Equivalent Weight : 0.000 g/eq.
Density : 0.000 g/cm3
Volume (V) : 0.001 cm³
Record Analogic IN 1
Text export
   Mode : Standard
   Time format : Elapsed
Cycle Definition : Charge/Discharge alternance
External device configuration :
   device type : Temperature Probe
   device name : Other
   Analog IN 1 : 
      unit : T/Â°C
      max : 100.000 at 2.000 V
      min : 0.000 at 1.460 V
tR (h:m:s)          0:03:0.0000         
dER/dt (mV/h)       1.0                 
record              <Ewe>               
dER (mV)            10.00               
dtR (s)             0.5000              
E range min (V)     -2.500              
E range max (V)     2.500               

mode	error	time/s	<Ewe/V>	Analog IN 1/V	
3	0	2.701905964277103E+002	1.1080943E+000	-2.7036267E+002
3	0	2.706905964150792E+002	1.2543278E+000	-2.7040155E+002
3	0	2.711905964024481E+002	1.2430850E+000	-2.7039093E+002
3	0	2.716905963898171E+002	1.2191236E+000	-2.7036618E+002
3	0	2.721905963771860E+002	1.1766359E+000	-2.7037677E+002
3	0	2.726905963645549E+002	1.0977674E+000	-2.7039093E+002
3	0	2.731905963519239E+002	8.3201557E-001	-2.7038385E+002
3	0	2.736905963392928E+002	4.6217331E-001	-2.7039093E+002
3	0	2.741905963266618E+002	3.4912670E-001	-2.7036267E+002
3	0	2.746905963140307E+002	3.2929865E-001	-2.7037677E+002
3	0	2.751905963013996E+002	3.2766560E-001	-2.7040155E+002
3	0	2.756905962887686E+002	3.2949862E-001	-2.7035913E+002
3	0	2.761905962761375E+002	3.3150786E-001	-2.7035913E+002
3	0	2.766905962635065E+002	3.3298278E-001	-2.7036972E+002
3	0	2.771905962508754E+002	3.3403638E-001	-2.7037326E+002
3	0	2.776905962382443E+002	3.3481222E-001	-2.7037677E+002
3	0	2.781905962256133E+002	3.3539450E-001	-2.7036972E+002
3	0	2.786905962129822E+002	3.3585480E-001	-2.7036267E+002
3	0	2.791905962003511E+002	3.3625013E-001	-2.7038031E+002
3	0	2.796905961877201E+002	3.3694100E-001	-2.7038742E+002
3	0	2.801905961750890E+002	3.3760700E-001	-2.7035913E+002
3	0	2.806905961624580E+002	3.3812562E-001	-2.7036972E+002
3	0	2.811905961498269E+002	3.3865088E-001	-2.7036267E+002
3	0	2.816905961371958E+002	3.3909532E-001	-2.7037326E+002
3	0	2.821905961245648E+002	3.3947542E-001	-2.7036972E+002
3	0	2.826905961119337E+002	3.3973512E-001	-2.7038031E+002
3	0	2.831905960993026E+002	3.3994403E-001	-2.7037677E+002
3	0	2.836905960866716E+002	3.4041652E-001	-2.7036618E+002
3	0	2.841905960740405E+002	3.4090418E-001	-2.7038385E+002
3	0	2.846905960614095E+002	3.4123197E-001	-2.7038385E+002
3	0	2.851905960487784E+002	3.4157088E-001	-2.7038742E+002
3	0	2.856905960361473E+002	3.4181911E-001	-2.7038385E+002
3	0	2.861905960235163E+002	3.4185368E-001	-2.7038385E+002
3	0	2.866905960108852E+002	3.4213293E-001	-2.7036972E+002
3	0	2.871905959982541E+002	3.4233347E-001	-2.7036972E+002
3	0	2.876905959856231E+002	3.4269080E-001	-2.7036618E+002
3	0	2.881905959729920E+002	3.4307617E-001	-2.7037326E+002
3	0	2.886905959603610E+002	3.4327906E-001	-2.7039093E+002
3	0	2.891905959477299E+002	3.4345305E-001	-2.7037677E+002
3	0	2.896905959350988E+002	3.4361553E-001	-2.7036618E+002
3	0	2.901905959224678E+002	3.4371653E-001	-2.7038742E+002
3	0	2.906905959098367E+002	3.4369451E-001	-2.7039447E+002
3	0	2.911905958972056E+002	3.4364653E-001	-2.7038385E+002
3	0	2.916905958845746E+002	3.4386337E-001	-2.7036267E+002
3	0	2.921905958719435E+002	3.4421399E-001	-2.7039093E+002
3	0	2.926905958593125E+002	3.4440267E-001	-2.7038742E+002
3	0	2.931905958466814E+002	3.4450585E-001	-2.7038742E+002
3	0	2.936905958340503E+002	3.4458661E-001	-2.7039093E+002
3	0	2.941905958214193E+002	3.4460777E-001	-2.7037677E+002
3	0	2.946905958087882E+002	3.4452069E-001	-2.7038385E+002
3	0	2.951905957961571E+002	3.4438318E-001	-2.7038742E+002
3	0	2.956905957835261E+002	3.4453976E-001	-2.7039801E+002
3	0	2.961905957708950E+002	3.4483066E-001	-2.7036618E+002
3	0	2.966905957582640E+002	3.4498954E-001	-2.7039801E+002
3	0	2.971905957456329E+002	3.4508398E-001	-2.7035913E+002
3	0	2.976905957330018E+002	3.4526041E-001	-2.7038031E+002
3	0	2.981905957203708E+002	3.4544730E-001	-2.7035913E+002
3	0	2.986905957077397E+002	3.4556141E-001	-2.7037677E+002
3	0	2.991905956951086E+002	3.4569433E-001	-2.7038385E+002
3	0	2.996905956824776E+002	3.4616029E-001	-2.7037677E+002
3	0	3.001905956698465E+002	3.4672764E-001	-2.7036618E+002
3	0	3.006905956572155E+002	3.4712178E-001	-2.7037326E+002
3	0	3.011905956445844E+002	3.4736210E-001	-2.7037326E+002
3	0	3.016905956319533E+002	3.4758738E-001	-2.7039093E+002
3	0	3.021905956193223E+002	3.4771791E-001	-2.7038385E+002
3	0	3.026905956066912E+002	3.4770054E-001	-2.7040506E+002
3	0	3.031905955940601E+002	3.4759045E-001	-2.7038385E+002
3	0	3.036905955814291E+002	3.4779608E-001	-2.7035913E+002
3	0	3.041905955687980E+002	3.4808278E-001	-2.7036267E+002
3	0	3.046905955561670E+002	3.4821564E-001	-2.7036972E+002
3	0	3.051905955435359E+002	3.4825417E-001	-2.7037326E+002
3	0	3.056905955309048E+002	3.4826383E-001	-2.7035205E+002
3	0	3.061905955182738E+002	3.4821901E-001	-2.7038031E+002
3	0	3.066905955056427E+002	3.4805149E-001	-2.7037326E+002
3	0	3.071905954930116E+002	3.4783715E-001	-2.7037326E+002
3	0	3.076905954803806E+002	3.4789890E-001	-2.7038742E+002
3	0	3.081905954677495E+002	3.4808829E-001	-2.7036267E+002
3	0	3.086905954551185E+002	3.4813830E-001	-2.7034851E+002
3	0	3.091905954424874E+002	3.4810364E-001	-2.7038031E+002
3	0	3.096905954298563E+002	3.4805611E-001	-2.7036267E+002
3	0	3.101905954172253E+002	3.4794444E-001	-2.7036618E+002
3	0	3.106905954045942E+002	3.4769595E-001	-2.7036972E+002
3	0	3.111905953919631E+002	3.4741622E-001	-2.7040860E+002
3	0	3.116905953793321E+002	3.4742826E-001	-2.7036267E+002
3	0	3.121905953667010E+002	3.4755960E-001	-2.7036972E+002
3	0	3.126905953540700E+002	3.4753710E-001	-2.7036267E+002
3	0	3.131905953414389E+002	3.4740409E-001	-2.7035559E+002
3	0	3.136905953288078E+002	3.4730843E-001	-2.7035913E+002
3	0	3.141905953161768E+002	3.4715790E-001	-2.7036618E+002
3	0	3.146905953035457E+002	3.4688649E-001	-2.7038385E+002
3	0	3.151905952909146E+002	3.4658173E-001	-2.7037677E+002
3	0	3.156905952782836E+002	3.4653065E-001	-2.7037326E+002
3	0	3.161905952656525E+002	3.4663156E-001	-2.7037677E+002
3	0	3.166905952530215E+002	3.4661204E-001	-2.7039447E+002
3	0	3.171905952403904E+002	3.4653521E-001	-2.7037677E+002
3	0	3.176905952277593E+002	3.4652281E-001	-2.7037326E+002
3	0	3.181905952151283E+002	3.4653553E-001	-2.7038742E+002
3	0	3.186905952024972E+002	3.4648195E-001	-2.7038385E+002
3	0	3.191905951898661E+002	3.4645715E-001	-2.7036618E+002
3	0	3.196905951772351E+002	3.4670663E-001	-2.7038031E+002
3	0	3.201905951646040E+002	3.4712207E-001	-2.7037677E+002
3	0	3.206905951519730E+002	3.4742594E-001	-2.7040155E+002
3	0	3.211905951393419E+002	3.4760988E-001	-2.7038385E+002
3	0	3.216905951267108E+002	3.4774828E-001	-2.7036972E+002
3	0	3.221905951140798E+002	3.4778187E-001	-2.7038385E+002
3	0	3.226905951014487E+002	3.4768388E-001	-2.7039093E+002
3	0	3.231905950888176E+002	3.4751627E-001	-2.7037326E+002
3	0	3.236905950761866E+002	3.4758475E-001	-2.7039801E+002
3	0	3.241905950635555E+002	3.4774995E-001	-2.7038742E+002
3	0	3.246905950509245E+002	3.4778094E-001	-2.7038385E+002
3	0	3.251905950382934E+002	3.4769532E-001	-2.7039447E+002
3	0	3.256905950256623E+002	3.4760070E-001	-2.7040860E+002
3	0	3.261905950130313E+002	3.4744719E-001	-2.7039447E+002
3	0	3.266905950004002E+002	3.4719148E-001	-2.7036618E+002
3	0	3.271905949877691E+002	3.4686044E-001	-2.7039447E+002
3	0	3.276905949751381E+002	3.4677422E-001	-2.7038385E+002
3	0	3.281905949625070E+002	3.4684429E-001	-2.7039447E+002
3	0	3.286905949498760E+002	3.4678528E-001	-2.7036972E+002
3	0	3.291905949372449E+002	3.4662655E-001	-2.7035559E+002
3	0	3.296905949246138E+002	3.4646848E-001	-2.7034143E+002
3	0	3.301905949119828E+002	3.4624225E-001	-2.7035913E+002
3	0	3.306905948993517E+002	3.4592891E-001	-2.7038031E+002
3	0	3.311905948867206E+002	3.4557459E-001	-2.7037677E+002
3	0	3.316905948740896E+002	3.4543896E-001	-2.7039093E+002
3	0	3.321905948614585E+002	3.4547007E-001	-2.7036267E+002
3	0	3.326905948488275E+002	3.4537581E-001	-2.7036972E+002
3	0	3.331905948361964E+002	3.4518439E-001	-2.7036972E+002
3	0	3.336905948235653E+002	3.4498307E-001	-2.7037677E+002
3	0	3.341905948109343E+002	3.4473419E-001	-2.7037677E+002
3	0	3.346905947983032E+002	3.4434035E-001	-2.7038031E+002
3	0	3.351905947856721E+002	3.4392470E-001	-2.7036267E+002
3	0	3.356905947730411E+002	3.4378064E-001	-2.7038031E+002
3	0	3.361905947604100E+002	3.4377828E-001	-2.7036972E+002
3	0	3.366905947477790E+002	3.4367198E-001	-2.7037326E+002
3	0	3.371905947351479E+002	3.4352335E-001	-2.7039093E+002
3	0	3.376905947225168E+002	3.4345824E-001	-2.7039093E+002
3	0	3.381905947098858E+002	3.4335858E-001	-2.7036618E+002
3	0	3.386905946972547E+002	3.4319806E-001	-2.7039093E+002
3	0	3.391905946846236E+002	3.4305444E-001	-2.7036267E+002
3	0	3.396905946719926E+002	3.4321716E-001	-2.7037326E+002
3	0	3.401905946593615E+002	3.4354508E-001	-2.7036972E+002
3	0	3.406905946467305E+002	3.4375748E-001	-2.7039093E+002
3	0	3.411905946340994E+002	3.4385985E-001	-2.7035205E+002
3	0	3.416905946214683E+002	3.4393427E-001	-2.7036267E+002
3	0	3.421905946088373E+002	3.4390867E-001	-2.7035559E+002
3	0	3.426905945962062E+002	3.4376732E-001	-2.7038031E+002
3	0	3.431905945835751E+002	3.4354523E-001	-2.7036618E+002
3	0	3.436905945709441E+002	3.4351847E-001	-2.7040155E+002
3	0	3.441905945583130E+002	3.4361356E-001	-2.7037326E+002
3	0	3.446905945456820E+002	3.4359384E-001	-2.7039801E+002
3	0	3.451905945330509E+002	3.4345832E-001	-2.7038742E+002
3	0	3.456905945204198E+002	3.4329239E-001	-2.7036972E+002
3	0	3.461905945077888E+002	3.4308732E-001	-2.7041214E+002
3	0	3.466905944951577E+002	3.4279081E-001	-2.7040506E+002
3	0	3.471905944825266E+002	3.4240690E-001	-2.7038031E+002
3	0	3.476905944698956E+002	3.4225580E-001	-2.7035559E+002
3	0	3.481905944572645E+002	3.4224221E-001	-2.7039447E+002
3	0	3.486905944446335E+002	3.4212881E-001	-2.7038742E+002
3	0	3.491905944320024E+002	3.4194043E-001	-2.7038031E+002
3	0	3.496905944193713E+002	3.4174392E-001	-2.7038031E+002
3	0	3.501905944067403E+002	3.4150499E-001	-2.7035559E+002
3	0	3.506905943941092E+002	3.4115425E-001	-2.7039447E+002
3	0	3.511905943814781E+002	3.4073260E-001	-2.7036972E+002
3	0	3.516905943688471E+002	3.4056398E-001	-2.7036972E+002
3	0	3.521905943562160E+002	3.4055606E-001	-2.7039093E+002
3	0	3.526905943435850E+002	3.4044918E-001	-2.7039093E+002
3	0	3.531905943309539E+002	3.4025270E-001	-2.7038031E+002
3	0	3.536905943183228E+002	3.4004092E-001	-2.7036267E+002
3	0	3.541905943056918E+002	3.3979937E-001	-2.7039801E+002
3	0	3.546905942930607E+002	3.3946028E-001	-2.7036972E+002
3	0	3.551905942804297E+002	3.3908916E-001	-2.7036972E+002
3	0	3.556905942677986E+002	3.3891648E-001	-2.7039801E+002
3	0	3.561905942551675E+002	3.3888575E-001	-2.7038031E+002
3	0	3.566905942425365E+002	3.3876860E-001	-2.7039093E+002
3	0	3.571905942299054E+002	3.3858702E-001	-2.7038742E+002
3	0	3.576905942172743E+002	3.3845434E-001	-2.7035205E+002
3	0	3.581905942046433E+002	3.3835182E-001	-2.7038742E+002
3	0	3.586905941920122E+002	3.3822572E-001	-2.7040506E+002
3	0	3.591905941793812E+002	3.3810148E-001	-2.7040506E+002
3	0	3.596905941667501E+002	3.3825719E-001	-2.7037677E+002
3	0	3.601905941541190E+002	3.3855003E-001	-2.7040155E+002
3	0	3.606905941414880E+002	3.3875468E-001	-2.7035913E+002
3	0	3.611905941288569E+002	3.3884618E-001	-2.7037326E+002
3	0	3.616905941162258E+002	3.3889833E-001	-2.7036972E+002
3	0	3.621905941035948E+002	3.3889979E-001	-2.7036972E+002
3	0	3.626905940909637E+002	3.3875719E-001	-2.7039447E+002
3	0	3.631905940783327E+002	3.3851707E-001	-2.7039093E+002
3	0	3.636905940657016E+002	3.3847341E-001	-2.7037326E+002
3	0	3.641905940530705E+002	3.3854371E-001	-2.7037677E+002
3	0	3.646905940404395E+002	3.3850470E-001	-2.7034143E+002
3	0	3.651905940278084E+002	3.3838940E-001	-2.7039093E+002
3	0	3.656905940151773E+002	3.3822924E-001	-2.7036267E+002
3	0	3.661905940025463E+002	3.3801907E-001	-2.7036618E+002
3	0	3.666905939899152E+002	3.3775371E-001	-2.7039447E+002
3	0	3.671905939772842E+002	3.3740097E-001	-2.7037326E+002
3	0	3.676905939646531E+002	3.3723477E-001	-2.7036972E+002
3	0	3.681905939520220E+002	3.3721524E-001	-2.7038031E+002
3	0	3.686905939393910E+002	3.3711404E-001	-2.7037326E+002
3	0	3.691905939267599E+002	3.3691132E-001	-2.7039447E+002
3	0	3.696905939141288E+002	3.3667871E-001	-2.7039093E+002
3	0	3.701905939014978E+002	3.3643055E-001	-2.7036618E+002
3	0	3.706905938888667E+002	3.3609784E-001	-2.7038031E+002
3	0	3.711905938762357E+002	3.3568451E-001	-2.7038031E+002
3	0	3.716905938636046E+002	3.3550552E-001	-2.7039447E+002
3	0	3.721905938509735E+002	3.3545053E-001	-2.7035559E+002
3	0	3.726905938383425E+002	3.3531839E-001	-2.7038031E+002
3	0	3.731905938257114E+002	3.3509463E-001	-2.7039093E+002
3	0	3.736905938130803E+002	3.3485946E-001	-2.7037677E+002
3	0	3.741905938004493E+002	3.3462426E-001	-2.7038385E+002
3	0	3.746905937878182E+002	3.3426553E-001	-2.7038031E+002
3	0	3.751905937751872E+002	3.3387393E-001	-2.7036972E+002
3	0	3.756905937625561E+002	3.3368382E-001	-2.7038031E+002
3	0	3.761905937499250E+002	3.3361635E-001	-2.7040155E+002
3	0	3.766905937372940E+002	3.3346048E-001	-2.7038385E+002
3	0	3.771905937246629E+002	3.3323732E-001	-2.7036267E+002
3	0	3.776905937120318E+002	3.3306003E-001	-2.7036618E+002
3	0	3.781905936994008E+002	3.3292615E-001	-2.7038031E+002
3	0	3.786905936867697E+002	3.3276612E-001	-2.7037677E+002
3	0	3.791905936741387E+002	3.3261231E-001	-2.7037677E+002
3	0	3.796905936615076E+002	3.3271784E-001	-2.7040506E+002
3	0	3.801905936488765E+002	3.3300024E-001	-2.7037677E+002
3	0	3.806905936362455E+002	3.3323863E-001	-2.7038031E+002
3	0	3.811905936236144E+002	3.3333418E-001	-2.7038385E+002
3	0	3.816905936109833E+002	3.3338776E-001	-2.7036267E+002
3	0	3.821905935983523E+002	3.3336532E-001	-2.7037677E+002
3	0	3.826905935857212E+002	3.3322164E-001	-2.7039801E+002
3	0	3.831905935730902E+002	3.3298966E-001	-2.7040506E+002
3	0	3.836905935604591E+002	3.3296230E-001	-2.7040155E+002
3	0	3.841905935478280E+002	3.3302489E-001	-2.7039093E+002
3	0	3.846905935351970E+002	3.3300617E-001	-2.7039447E+002
3	0	3.851905935225659E+002	3.3287284E-001	-2.7039801E+002
3	0	3.856905935099348E+002	3.3271596E-001	-2.7037677E+002
3	0	3.861905934973038E+002	3.3254057E-001	-2.7038385E+002
3	0	3.866905934846727E+002	3.3227852E-001	-2.7035913E+002
3	0	3.871905934720417E+002	3.3192194E-001	-2.7038742E+002
3	0	3.876905934594106E+002	3.3173573E-001	-2.7038385E+002
3	0	3.881905934467795E+002	3.3169273E-001	-2.7036267E+002
3	0	3.886905934341485E+002	3.3156937E-001	-2.7038742E+002
3	0	3.891905934215174E+002	3.3135039E-001	-2.7038385E+002
3	0	3.896905934088863E+002	3.3112398E-001	-2.7039447E+002
3	0	3.901905933962553E+002	3.3086023E-001	-2.7038385E+002
3	0	3.906905933836242E+002	3.3053243E-001	-2.7038385E+002
3	0	3.911905933709932E+002	3.3015162E-001	-2.7038385E+002
3	0	3.916905933583621E+002	3.2995421E-001	-2.7036618E+002
3	0	3.921905933457310E+002	3.2989329E-001	-2.7035913E+002
3	0	3.926905933331000E+002	3.2977721E-001	-2.7040155E+002
3	0	3.931905933204689E+002	3.2957631E-001	-2.7035913E+002
3	0	3.936905933078378E+002	3.2935467E-001	-2.7037677E+002
3	0	3.941905932952068E+002	3.2911184E-001	-2.7036972E+002
3	0	3.946905932825757E+002	3.2880896E-001	-2.7034143E+002
3	0	3.951905932699447E+002	3.2843390E-001	-2.7035913E+002
3	0	3.956905932573136E+002	3.2824031E-001	-2.7038031E+002
3	0	3.961905932446825E+002	3.2818565E-001	-2.7038385E+002
3	0	3.966905932320515E+002	3.2808024E-001	-2.7038031E+002
3	0	3.971905932194204E+002	3.2790157E-001	-2.7037326E+002
3	0	3.976905932067893E+002	3.2773161E-001	-2.7036972E+002
3	0	3.981905931941583E+002	3.2760021E-001	-2.7039093E+002
3	0	3.986905931815272E+002	3.2740989E-001	-2.7039801E+002
3	0	3.991905931688962E+002	3.2720983E-001	-2.7037677E+002
3	0	3.996905931562651E+002	3.2724619E-001	-2.7036972E+002
3	0	4.001905931436340E+002	3.2747009E-001	-2.7037677E+002
3	0	4.006905931310030E+002	3.2766968E-001	-2.7040506E+002
3	0	4.011905931183719E+002	3.2778910E-001	-2.7035559E+002
3	0	4.016905931057408E+002	3.2786953E-001	-2.7034851E+002
3	0	4.021905930931098E+002	3.2792118E-001	-2.7038031E+002
3	0	4.026905930804787E+002	3.2785538E-001	-2.7039093E+002
3	0	4.031905930678477E+002	3.2770690E-001	-2.7036267E+002
3	0	4.036905930552166E+002	3.2765284E-001	-2.7035913E+002
3	0	4.041905930425855E+002	3.2772276E-001	-2.7035205E+002
3	0	4.046905930299545E+002	3.2771447E-001	-2.7036618E+002
3	0	4.051905930173234E+002	3.2759604E-001	-2.7036972E+002
3	0	4.056905930046923E+002	3.2743064E-001	-2.7035913E+002
3	0	4.061905929920613E+002	3.2723123E-001	-2.7039801E+002
3	0	4.066905929794302E+002	3.2696155E-001	-2.7037677E+002
3	0	4.071905929667992E+002	3.2660082E-001	-2.7036972E+002
3	0	4.076905929541681E+002	3.2640609E-001	-2.7035559E+002
3	0	4.081905929415370E+002	3.2635117E-001	-2.7036972E+002
3	0	4.086905929289060E+002	3.2625648E-001	-2.7039093E+002
3	0	4.091905929162749E+002	3.2606867E-001	-2.7038385E+002
3	0	4.096905929036438E+002	3.2585695E-001	-2.7039447E+002
3	0	4.101905928910128E+002	3.2562736E-001	-2.7039447E+002
3	0	4.106905928783817E+002	3.2530957E-001	-2.7038742E+002
3	0	4.111905928657507E+002	3.2491803E-001	-2.7038385E+002
3	0	4.116905928531196E+002	3.2470107E-001	-2.7038385E+002
3	0	4.121905928404885E+002	3.2464030E-001	-2.7039093E+002
3	0	4.126905928278575E+002	3.2452127E-001	-2.7037326E+002
3	0	4.131905928152264E+002	3.2433239E-001	-2.7038031E+002
3	0	4.136905928025953E+002	3.2412645E-001	-2.7038031E+002
3	0	4.141905927899643E+002	3.2387275E-001	-2.7036972E+002
3	0	4.146905927773332E+002	3.2354820E-001	-2.7036972E+002
3	0	4.151905927647022E+002	3.2318735E-001	-2.7036267E+002
3	0	4.156905927520711E+002	3.2296228E-001	-2.7038385E+002
3	0	4.161905927394400E+002	3.2288396E-001	-2.7035559E+002
3	0	4.166905927268090E+002	3.2277045E-001	-2.7041568E+002
3	0	4.171905927141779E+002	3.2259858E-001	-2.7035913E+002
3	0	4.176905927015468E+002	3.2240883E-001	-2.7039093E+002
3	0	4.181905926889158E+002	3.2224628E-001	-2.7037326E+002
3	0	4.186905926762847E+002	3.2201940E-001	-2.7039447E+002
3	0	4.191905926636537E+002	3.2177895E-001	-2.7039447E+002
3	0	4.196905926510226E+002	3.2172263E-001	-2.7036618E+002
3	0	4.201905926383915E+002	3.2180807E-001	-2.7038742E+002
3	0	4.206905926257605E+002	3.2183275E-001	-2.7038385E+002
3	0	4.211905926131294E+002	3.2176277E-001	-2.7037326E+002
3	0	4.216905926004983E+002	3.2166588E-001	-2.7037326E+002
3	0	4.221905925878673E+002	3.2152489E-001	-2.7038031E+002
3	0	4.226905925752362E+002	3.2128036E-001	-2.7039801E+002
3	0	4.231905925626052E+002	3.2095250E-001	-2.7040155E+002
3	0	4.236905925499741E+002	3.2076353E-001	-2.7039447E+002
3	0	4.241905925373430E+002	3.2072672E-001	-2.7039447E+002
3	0	4.246905925247120E+002	3.2065976E-001	-2.7037677E+002
3	0	4.251905925120809E+002	3.2051635E-001	-2.7038031E+002
3	0	4.256905924994498E+002	3.2034242E-001	-2.7036618E+002
3	0	4.261905924868188E+002	3.2013339E-001	-2.7037677E+002
3	0	4.266905924741877E+002	3.1985641E-001	-2.7039093E+002
3	0	4.271905924615567E+002	3.1953496E-001	-2.7035205E+002
3	0	4.276905924489256E+002	3.1935546E-001	-2.7039801E+002
3	0	4.281905924362945E+002	3.1931102E-001	-2.7036618E+002
3	0	4.286905924236635E+002	3.1923836E-001	-2.7034851E+002
3	0	4.291905924110324E+002	3.1908631E-001	-2.7037326E+002
3	0	4.296905923984014E+002	3.1891984E-001	-2.7036972E+002
3	0	4.301905923857703E+002	3.1872323E-001	-2.7037677E+002
3	0	4.306905923731392E+002	3.1842116E-001	-2.7036618E+002
3	0	4.311905923605082E+002	3.1805563E-001	-2.7039093E+002
3	0	4.316905923478771E+002	3.1785712E-001	-2.7036618E+002
3	0	4.321905923352460E+002	3.1778833E-001	-2.7036972E+002
3	0	4.326905923226150E+002	3.1769958E-001	-2.7037326E+002
3	0	4.331905923099839E+002	3.1754100E-001	-2.7039093E+002
3	0	4.336905922973529E+002	3.1736284E-001	-2.7036267E+002
3	0	4.341905922847218E+002	3.1714922E-001	-2.7041214E+002
3	0	4.346905922720907E+002	3.1687185E-001	-2.7037326E+002
3	0	4.351905922594597E+002	3.1653184E-001	-2.7036972E+002
3	0	4.356905922468286E+002	3.1634030E-001	-2.7036972E+002
3	0	4.361905922341975E+002	3.1629181E-001	-2.7038742E+002
3	0	4.366905922215665E+002	3.1620950E-001	-2.7037326E+002
3	0	4.371905922089354E+002	3.1605935E-001	-2.7038742E+002
3	0	4.376905921963044E+002	3.1592330E-001	-2.7036618E+002
3	0	4.381905921836733E+002	3.1578201E-001	-2.7040860E+002
3	0	4.386905921710422E+002	3.1562325E-001	-2.7040155E+002
3	0	4.391905921584112E+002	3.1544441E-001	-2.7037677E+002
3	0	4.396905921457801E+002	3.1544757E-001	-2.7037326E+002
3	0	4.401905921331490E+002	3.1565318E-001	-2.7038031E+002
3	0	4.406905921205180E+002	3.1589252E-001	-2.7036267E+002
3	0	4.411905921078869E+002	3.1608307E-001	-2.7036618E+002
3	0	4.416905920952559E+002	3.1623921E-001	-2.7037677E+002
3	0	4.421905920826248E+002	3.1634793E-001	-2.7036618E+002
3	0	4.426905920699937E+002	3.1632149E-001	-2.7035913E+002
3	0	4.431905920573627E+002	3.1621337E-001	-2.7037677E+002
3	0	4.436905920447316E+002	3.1619778E-001	-2.7035913E+002
3	0	4.441905920321005E+002	3.1628665E-001	-2.7038385E+002
3	0	4.446905920194695E+002	3.1632370E-001	-2.7036972E+002
3	0	4.451905920068384E+002	3.1627774E-001	-2.7037677E+002
3	0	4.456905919942074E+002	3.1618771E-001	-2.7039093E+002
3	0	4.461905919815763E+002	3.1605950E-001	-2.7039801E+002
3	0	4.466905919689452E+002	3.1583336E-001	-2.7039093E+002
3	0	4.471905919563142E+002	3.1549886E-001	-2.7038031E+002
3	0	4.476905919436831E+002	3.1529596E-001	-2.7037677E+002
3	0	4.481905919310520E+002	3.1523159E-001	-2.7038031E+002
3	0	4.486905919184210E+002	3.1513730E-001	-2.7037326E+002
3	0	4.491905919057899E+002	3.1497309E-001	-2.7038385E+002
3	0	4.496905918931589E+002	3.1478339E-001	-2.7038742E+002
3	0	4.497139918925677E+002	3.1466922E-001	-2.7037677E+002