EC-Lab ASCII FILE
Nb header lines : 55                          

Open Circuit Voltage

Run on channel : 1 (SN 81504)
User : 
CE vs. WE compliance from -10 V to 10 V
Electrode connection : standard
Potential control : Ewe
Ewe ctrl range : min = -2.50 V, max = 2.50 V
Safety Limits :
	Do not start on E overload
Acquisition started on : 05/10/2026 01:12:03.277
Loaded Setting File :  C:\PEM-WE_measurements\2026\372_IV_IV IrOx, 5 min Pt, 30 min C, etched cathode\new station\Loopeis new\1,46 V different time gaps closed cell\Loopeis 1,46V_45s_4_PEIS from 650Hz to 100Hz.mps
Saved on :
	File : L_09_Loopeis 1,46V_45s_4_PEIS from 650Hz to 100Hz_04_OCV_C01.mpr
	Directory : C:\PEM-WE_measurements\2026\372_IV_IV IrOx, 5 min Pt, 30 min C, etched cathode\new station\Loopeis new\1,46 V different time gaps closed cell\
	Host : 192.168.0.2
Device : SP-150e (SN .005491)
Address : 192.168.0.91
EC-LAB for windows v11.71 (software)
Internet server v28.00 (firmware)
Command interpretor v14.01 (firmware)
Electrode material : 
Initial state : 
Electrolyte : 
Comments : 
Current amplifier : SP-150eB-20A
Electrode surface area : 0.001 cm²
Characteristic mass : 0.001 g
Equivalent Weight : 0.000 g/eq.
Density : 0.000 g/cm3
Volume (V) : 0.001 cm³
Record Analogic IN 1
Text export
   Mode : Standard
   Time format : Elapsed
Cycle Definition : Charge/Discharge alternance
External device configuration :
   device type : Temperature Probe
   device name : Other
   Analog IN 1 : 
      unit : T/Â°C
      max : 100.000 at 2.000 V
      min : 0.000 at 1.460 V
tR (h:m:s)          0:00:45.0000        
dER/dt (mV/h)       1.0                 
record              <Ewe>               
dER (mV)            10.00               
dtR (s)             0.5000              
E range min (V)     -2.500              
E range max (V)     2.500               

mode	error	time/s	<Ewe/V>	Analog IN 1/V	
3	0	1.359825998757151E+002	1.2058120E+000	-2.7038031E+002
3	0	1.364825998630840E+002	1.2552435E+000	-2.7037326E+002
3	0	1.369825998504530E+002	1.2595751E+000	-2.7039093E+002
3	0	1.374825998378219E+002	1.2622180E+000	-2.7038385E+002
3	0	1.379825998251908E+002	1.2640597E+000	-2.7034851E+002
3	0	1.384825998125598E+002	1.2654376E+000	-2.7037677E+002
3	0	1.389825997999287E+002	1.2664807E+000	-2.7038031E+002
3	0	1.394825997872977E+002	1.2672647E+000	-2.7038742E+002
3	0	1.399825997746666E+002	1.2678459E+000	-2.7037677E+002
3	0	1.404825997620355E+002	1.2683694E+000	-2.7038742E+002
3	0	1.409825997494045E+002	1.2688355E+000	-2.7038385E+002
3	0	1.414825997367734E+002	1.2692068E+000	-2.7035913E+002
3	0	1.419825997241423E+002	1.2695173E+000	-2.7036618E+002
3	0	1.424825997115113E+002	1.2697653E+000	-2.7039447E+002
3	0	1.429825996988802E+002	1.2699544E+000	-2.7039447E+002
3	0	1.434825996862492E+002	1.2700475E+000	-2.7038385E+002
3	0	1.439825996736181E+002	1.2700572E+000	-2.7036972E+002
3	0	1.444825996609870E+002	1.2701117E+000	-2.7036267E+002
3	0	1.449825996483560E+002	1.2701844E+000	-2.7039447E+002
3	0	1.454825996357249E+002	1.2702272E+000	-2.7038385E+002
3	0	1.459825996230938E+002	1.2702520E+000	-2.7039447E+002
3	0	1.464825996104628E+002	1.2702640E+000	-2.7037677E+002
3	0	1.469825995978317E+002	1.2702417E+000	-2.7039093E+002
3	0	1.474825995852007E+002	1.2701492E+000	-2.7035559E+002
3	0	1.479825995725696E+002	1.2699956E+000	-2.7037677E+002
3	0	1.484825995599385E+002	1.2699010E+000	-2.7036972E+002
3	0	1.489825995473075E+002	1.2698379E+000	-2.7038031E+002
3	0	1.494825995346764E+002	1.2697585E+000	-2.7037677E+002
3	0	1.499825995220453E+002	1.2696718E+000	-2.7036267E+002
3	0	1.504825995094143E+002	1.2695944E+000	-2.7034851E+002
3	0	1.509825994967832E+002	1.2694749E+000	-2.7038031E+002
3	0	1.514825994841522E+002	1.2693026E+000	-2.7039801E+002
3	0	1.519825994715211E+002	1.2690656E+000	-2.7038031E+002
3	0	1.524825994588900E+002	1.2688942E+000	-2.7035205E+002
3	0	1.529825994462590E+002	1.2687578E+000	-2.7037326E+002
3	0	1.534825994336279E+002	1.2686206E+000	-2.7039093E+002
3	0	1.539825994209968E+002	1.2684798E+000	-2.7038742E+002
3	0	1.544825994083658E+002	1.2683361E+000	-2.7039093E+002
3	0	1.549825993957347E+002	1.2681835E+000	-2.7038031E+002
3	0	1.554825993831037E+002	1.2679603E+000	-2.7038742E+002
3	0	1.559825993704726E+002	1.2676936E+000	-2.7037326E+002
3	0	1.564825993578415E+002	1.2675098E+000	-2.7038385E+002
3	0	1.569825993452105E+002	1.2673758E+000	-2.7037326E+002
3	0	1.574825993325794E+002	1.2672397E+000	-2.7038385E+002
3	0	1.579825993199483E+002	1.2670943E+000	-2.7037677E+002
3	0	1.584825993073173E+002	1.2669643E+000	-2.7038031E+002
3	0	1.589825992946862E+002	1.2668127E+000	-2.7038031E+002
3	0	1.594825992820552E+002	1.2665983E+000	-2.7035559E+002
3	0	1.599825992694241E+002	1.2663251E+000	-2.7037326E+002
3	0	1.604825992567930E+002	1.2661299E+000	-2.7035559E+002
3	0	1.609825992441620E+002	1.2659720E+000	-2.7036972E+002
3	0	1.614825992315309E+002	1.2658057E+000	-2.7037326E+002
3	0	1.619825992188999E+002	1.2656323E+000	-2.7038031E+002
3	0	1.624825992062688E+002	1.2654604E+000	-2.7038031E+002
3	0	1.629825991936377E+002	1.2652609E+000	-2.7038742E+002
3	0	1.634825991810067E+002	1.2650036E+000	-2.7039093E+002
3	0	1.639825991683756E+002	1.2646793E+000	-2.7035559E+002
3	0	1.644825991557445E+002	1.2644314E+000	-2.7038385E+002
3	0	1.649825991431135E+002	1.2642273E+000	-2.7040506E+002
3	0	1.654825991304824E+002	1.2640109E+000	-2.7037326E+002
3	0	1.659825991178514E+002	1.2637893E+000	-2.7039093E+002
3	0	1.664825991052203E+002	1.2635688E+000	-2.7036267E+002
3	0	1.669825990925892E+002	1.2633233E+000	-2.7039093E+002
3	0	1.674825990799582E+002	1.2630049E+000	-2.7038742E+002
3	0	1.679825990673271E+002	1.2626349E+000	-2.7038031E+002
3	0	1.684825990546960E+002	1.2623410E+000	-2.7038385E+002
3	0	1.689825990420650E+002	1.2620869E+000	-2.7040506E+002
3	0	1.694825990294339E+002	1.2618208E+000	-2.7039093E+002
3	0	1.699825990168029E+002	1.2615541E+000	-2.7039447E+002
3	0	1.704825990041718E+002	1.2612897E+000	-2.7039093E+002
3	0	1.709825989915407E+002	1.2609993E+000	-2.7038385E+002
3	0	1.714825989789097E+002	1.2606446E+000	-2.7038031E+002
3	0	1.719825989662786E+002	1.2602187E+000	-2.7038742E+002
3	0	1.724825989536475E+002	1.2598673E+000	-2.7039447E+002
3	0	1.729825989410165E+002	1.2595690E+000	-2.7041214E+002
3	0	1.734825989283854E+002	1.2592654E+000	-2.7038742E+002
3	0	1.739825989157544E+002	1.2589539E+000	-2.7036267E+002
3	0	1.744825989031233E+002	1.2586484E+000	-2.7036972E+002
3	0	1.749825988904922E+002	1.2583330E+000	-2.7037677E+002
3	0	1.754825988778612E+002	1.2579647E+000	-2.7038385E+002
3	0	1.759825988652301E+002	1.2575425E+000	-2.7038742E+002
3	0	1.764825988525990E+002	1.2571998E+000	-2.7037677E+002
3	0	1.769825988399680E+002	1.2569165E+000	-2.7037326E+002
3	0	1.774825988273369E+002	1.2566464E+000	-2.7039093E+002
3	0	1.779825988147059E+002	1.2563668E+000	-2.7036972E+002
3	0	1.784825988020748E+002	1.2561110E+000	-2.7038385E+002
3	0	1.789825987894437E+002	1.2558227E+000	-2.7040860E+002
3	0	1.794825987768127E+002	1.2554716E+000	-2.7039093E+002
3	0	1.799825987641816E+002	1.2550634E+000	-2.7039801E+002
3	0	1.804825987515505E+002	1.2547308E+000	-2.7037326E+002
3	0	1.805059987509594E+002	1.2545705E+000	-2.7039447E+002