EC-Lab ASCII FILE
Nb header lines : 55                          

Open Circuit Voltage

Run on channel : 1 (SN 81504)
User : 
CE vs. WE compliance from -10 V to 10 V
Electrode connection : standard
Potential control : Ewe
Ewe ctrl range : min = -2.50 V, max = 2.50 V
Safety Limits :
	Do not start on E overload
Acquisition started on : 05/07/2026 17:16:31.252
Loaded Setting File :  C:\PEM-WE_measurements\2026\372_IV_IV IrOx, 5 min Pt, 30 min C, etched cathode\new station\Loopeis new\1,46 V different time gaps open cell\Loopeis 1,46V_60s_3_PEIS from 6500Hz to 1000Hz.mps
Saved on :
	File : L_13_Loopeis 1,46V_60s_3_PEIS from 6500Hz to 1000Hz_10_OCV_C01.mpr
	Directory : C:\PEM-WE_measurements\2026\372_IV_IV IrOx, 5 min Pt, 30 min C, etched cathode\new station\Loopeis new\1,46 V different time gaps open cell\
	Host : 192.168.0.2
Device : SP-150e (SN .005491)
Address : 192.168.0.91
EC-LAB for windows v11.71 (software)
Internet server v28.00 (firmware)
Command interpretor v14.01 (firmware)
Electrode material : 
Initial state : 
Electrolyte : 
Comments : 
Current amplifier : SP-150eB-20A
Electrode surface area : 0.001 cm²
Characteristic mass : 0.001 g
Equivalent Weight : 0.000 g/eq.
Density : 0.000 g/cm3
Volume (V) : 0.001 cm³
Record Analogic IN 1
Text export
   Mode : Standard
   Time format : Elapsed
Cycle Definition : Charge/Discharge alternance
External device configuration :
   device type : Temperature Probe
   device name : Other
   Analog IN 1 : 
      unit : T/Â°C
      max : 100.000 at 2.000 V
      min : 0.000 at 1.460 V
tR (h:m:s)          0:01:0.0000         
dER/dt (mV/h)       1.0                 
record              <Ewe>               
dER (mV)            10.00               
dtR (s)             0.5000              
E range min (V)     -2.500              
E range max (V)     2.500               

mode	error	time/s	<Ewe/V>	Analog IN 1/V	
3	0	4.654433947859070E+002	1.2776359E+000	-2.7036972E+002
3	0	4.659433947732759E+002	1.2744040E+000	-2.7034851E+002
3	0	4.664433947606449E+002	1.2427286E+000	-2.7036618E+002
3	0	4.669433947480138E+002	1.1779523E+000	-2.7038031E+002
3	0	4.674433947353828E+002	9.9512279E-001	-2.7038031E+002
3	0	4.679433947227517E+002	5.2836800E-001	-2.7038031E+002
3	0	4.684433947101206E+002	3.6916441E-001	-2.7035913E+002
3	0	4.689433946974896E+002	3.4587464E-001	-2.7037677E+002
3	0	4.694433946848585E+002	3.3633479E-001	-2.7036267E+002
3	0	4.699433946722274E+002	3.2883194E-001	-2.7036618E+002
3	0	4.704433946595964E+002	3.2314178E-001	-2.7036267E+002
3	0	4.709433946469653E+002	3.1881225E-001	-2.7038031E+002
3	0	4.714433946343343E+002	3.1543732E-001	-2.7036618E+002
3	0	4.719433946217032E+002	3.1273028E-001	-2.7040506E+002
3	0	4.724433946090721E+002	3.1049794E-001	-2.7036972E+002
3	0	4.729433945964411E+002	3.0859861E-001	-2.7038031E+002
3	0	4.734433945838100E+002	3.0698621E-001	-2.7036972E+002
3	0	4.739433945711789E+002	3.0558842E-001	-2.7036267E+002
3	0	4.744433945585479E+002	3.0434933E-001	-2.7035913E+002
3	0	4.749433945459168E+002	3.0322206E-001	-2.7036972E+002
3	0	4.754433945332858E+002	3.0220145E-001	-2.7038031E+002
3	0	4.759433945206547E+002	3.0124527E-001	-2.7040155E+002
3	0	4.764433945080236E+002	3.0033201E-001	-2.7037677E+002
3	0	4.769433944953926E+002	2.9945537E-001	-2.7038385E+002
3	0	4.774433944827615E+002	2.9865032E-001	-2.7038742E+002
3	0	4.779433944701304E+002	2.9790241E-001	-2.7037677E+002
3	0	4.784433944574994E+002	2.9717457E-001	-2.7036267E+002
3	0	4.789433944448683E+002	2.9646805E-001	-2.7036618E+002
3	0	4.794433944322373E+002	2.9578540E-001	-2.7036972E+002
3	0	4.799433944196062E+002	2.9511735E-001	-2.7037677E+002
3	0	4.804433944069751E+002	2.9444546E-001	-2.7040155E+002
3	0	4.809433943943441E+002	2.9377943E-001	-2.7038385E+002
3	0	4.814433943817130E+002	2.9315150E-001	-2.7035205E+002
3	0	4.819433943690819E+002	2.9255182E-001	-2.7036618E+002
3	0	4.824433943564509E+002	2.9195845E-001	-2.7038031E+002
3	0	4.829433943438198E+002	2.9136652E-001	-2.7037677E+002
3	0	4.834433943311888E+002	2.9078948E-001	-2.7034497E+002
3	0	4.839433943185577E+002	2.9021090E-001	-2.7038385E+002
3	0	4.844433943059266E+002	2.8962159E-001	-2.7039801E+002
3	0	4.849433942932956E+002	2.8902176E-001	-2.7039447E+002
3	0	4.854433942806645E+002	2.8846791E-001	-2.7036267E+002
3	0	4.859433942680334E+002	2.8792557E-001	-2.7039801E+002
3	0	4.864433942554024E+002	2.8738824E-001	-2.7037326E+002
3	0	4.869433942427713E+002	2.8685480E-001	-2.7039801E+002
3	0	4.874433942301403E+002	2.8631505E-001	-2.7038385E+002
3	0	4.879433942175092E+002	2.8579053E-001	-2.7037677E+002
3	0	4.884433942048781E+002	2.8524449E-001	-2.7037677E+002
3	0	4.889433941922471E+002	2.8468785E-001	-2.7036972E+002
3	0	4.894433941796160E+002	2.8417754E-001	-2.7038031E+002
3	0	4.899433941669849E+002	2.8367299E-001	-2.7039801E+002
3	0	4.904433941543539E+002	2.8317040E-001	-2.7036972E+002
3	0	4.909433941417228E+002	2.8267655E-001	-2.7037326E+002
3	0	4.914433941290918E+002	2.8219730E-001	-2.7038031E+002
3	0	4.919433941164607E+002	2.8170657E-001	-2.7037326E+002
3	0	4.924433941038296E+002	2.8120071E-001	-2.7037326E+002
3	0	4.929433940911986E+002	2.8068697E-001	-2.7036972E+002
3	0	4.934433940785675E+002	2.8020218E-001	-2.7036972E+002
3	0	4.939433940659364E+002	2.7974495E-001	-2.7038385E+002
3	0	4.944433940533054E+002	2.7928799E-001	-2.7040860E+002
3	0	4.949433940406743E+002	2.7882487E-001	-2.7036618E+002
3	0	4.954433940280433E+002	2.7837873E-001	-2.7036972E+002
3	0	4.959433940154122E+002	2.7792162E-001	-2.7036972E+002
3	0	4.964433940027811E+002	2.7744740E-001	-2.7036618E+002
3	0	4.969433939901501E+002	2.7696666E-001	-2.7040506E+002
3	0	4.974433939775190E+002	2.7652040E-001	-2.7036618E+002
3	0	4.979433939648879E+002	2.7609432E-001	-2.7039447E+002
3	0	4.984433939522569E+002	2.7566740E-001	-2.7035205E+002
3	0	4.989433939396258E+002	2.7523825E-001	-2.7039447E+002
3	0	4.994433939269948E+002	2.7482381E-001	-2.7038031E+002
3	0	4.999433939143637E+002	2.7440789E-001	-2.7038385E+002
3	0	5.004433939017326E+002	2.7396894E-001	-2.7037326E+002
3	0	5.009433938891016E+002	2.7352136E-001	-2.7037326E+002
3	0	5.014433938764705E+002	2.7311149E-001	-2.7039093E+002
3	0	5.019433938638394E+002	2.7271628E-001	-2.7039093E+002
3	0	5.024433938512084E+002	2.7233085E-001	-2.7036267E+002
3	0	5.029433938385773E+002	2.7193767E-001	-2.7040155E+002
3	0	5.034433938259463E+002	2.7154654E-001	-2.7035913E+002
3	0	5.039433938133152E+002	2.7114907E-001	-2.7038385E+002
3	0	5.044433938006841E+002	2.7074137E-001	-2.7036972E+002
3	0	5.049433937880531E+002	2.7032602E-001	-2.7037677E+002
3	0	5.054433937754220E+002	2.6993862E-001	-2.7036618E+002
3	0	5.059433937627909E+002	2.6958078E-001	-2.7040506E+002
3	0	5.064433937501599E+002	2.6922232E-001	-2.7040506E+002
3	0	5.069433937375288E+002	2.6885799E-001	-2.7036267E+002
3	0	5.074433937248978E+002	2.6849872E-001	-2.7036618E+002
3	0	5.079433937122667E+002	2.6813892E-001	-2.7036972E+002
3	0	5.084433936996356E+002	2.6776001E-001	-2.7040506E+002
3	0	5.089433936870046E+002	2.6737240E-001	-2.7036972E+002
3	0	5.094433936743735E+002	2.6702237E-001	-2.7036267E+002
3	0	5.099433936617424E+002	2.6669928E-001	-2.7034851E+002
3	0	5.104433936491114E+002	2.6636142E-001	-2.7038031E+002
3	0	5.109433936364803E+002	2.6603112E-001	-2.7036972E+002
3	0	5.114433936238493E+002	2.6570702E-001	-2.7035205E+002
3	0	5.119433936112182E+002	2.6537472E-001	-2.7037677E+002
3	0	5.124433935985871E+002	2.6502338E-001	-2.7034497E+002
3	0	5.129433935859561E+002	2.6467323E-001	-2.7038031E+002
3	0	5.134433935733250E+002	2.6435503E-001	-2.7038031E+002
3	0	5.139433935606939E+002	2.6405519E-001	-2.7036618E+002
3	0	5.144433935480629E+002	2.6375288E-001	-2.7035559E+002
3	0	5.149433935354318E+002	2.6345044E-001	-2.7039093E+002
3	0	5.154433935228008E+002	2.6314923E-001	-2.7039093E+002
3	0	5.159433935101697E+002	2.6283970E-001	-2.7036972E+002
3	0	5.164433934975386E+002	2.6252067E-001	-2.7035559E+002
3	0	5.169433934849076E+002	2.6218581E-001	-2.7036972E+002
3	0	5.174433934722765E+002	2.6189518E-001	-2.7038031E+002
3	0	5.179433934596454E+002	2.6161924E-001	-2.7039093E+002
3	0	5.184433934470144E+002	2.6134154E-001	-2.7039447E+002
3	0	5.189433934343833E+002	2.6106668E-001	-2.7034851E+002
3	0	5.194433934217523E+002	2.6078966E-001	-2.7036618E+002
3	0	5.199433934091212E+002	2.6051286E-001	-2.7039447E+002
3	0	5.204433933964901E+002	2.6021236E-001	-2.7038742E+002
3	0	5.209433933838591E+002	2.5990552E-001	-2.7035913E+002
3	0	5.214433933712280E+002	2.5963613E-001	-2.7037677E+002
3	0	5.219433933585970E+002	2.5938898E-001	-2.7037677E+002
3	0	5.224433933459659E+002	2.5913861E-001	-2.7036618E+002
3	0	5.229433933333348E+002	2.5888529E-001	-2.7040155E+002
3	0	5.234433933207038E+002	2.5863034E-001	-2.7040155E+002
3	0	5.239433933080727E+002	2.5837335E-001	-2.7039801E+002
3	0	5.244433932954416E+002	2.5810301E-001	-2.7036972E+002
3	0	5.249433932828106E+002	2.5781611E-001	-2.7037677E+002
3	0	5.249437932828005E+002	2.5770670E-001	-2.7034497E+002