EC-Lab ASCII FILE
Nb header lines : 48                          

Open Circuit Voltage

Run on channel : 1 (SN 81504)
User : 
CE vs. WE compliance from -10 V to 10 V
Electrode connection : standard
Potential control : Ewe
Ewe ctrl range : min = -2.50 V, max = 2.50 V
Safety Limits :
	Do not start on E overload
Acquisition started on : 05/10/2026 08:28:58.550
Loaded Setting File :  C:\PEM-WE_measurements\2026\372_IV_IV IrOx, 5 min Pt, 30 min C, etched cathode\new station\Loopeis new\1,46 V different time gaps closed cell\Loopeis 1,46V_180s_2_PEIS from 65kHz to 10kHz.mps
Saved on :
	File : L_27_Loopeis 1,46V_180s_2_PEIS from 65kHz to 10kHz_12_OCV_C01.mpr
	Directory : C:\PEM-WE_measurements\2026\372_IV_IV IrOx, 5 min Pt, 30 min C, etched cathode\new station\Loopeis new\1,46 V different time gaps closed cell\
	Host : 192.168.0.2
Device : SP-150e (SN .005491)
Address : 192.168.0.91
EC-LAB for windows v11.71 (software)
Internet server v28.00 (firmware)
Command interpretor v14.01 (firmware)
Electrode material : 
Initial state : 
Electrolyte : 
Comments : 
Current amplifier : SP-150eB-20A
Electrode surface area : 0.001 cm²
Characteristic mass : 0.001 g
Equivalent Weight : 0.000 g/eq.
Density : 0.000 g/cm3
Volume (V) : 0.001 cm³
Record Analogic IN 1
Text export
   Mode : Standard
   Time format : Elapsed
Cycle Definition : Charge/Discharge alternance
tR (h:m:s)          0:03:0.0000         
dER/dt (mV/h)       1.0                 
record              <Ewe>               
dER (mV)            10.00               
dtR (s)             0.5000              
E range min (V)     -2.500              
E range max (V)     2.500               

mode	error	time/s	<Ewe/V>	Analog IN 1/V	
3	0	1.170302556808441E+003	1.1019385E+000	3.8648941E-006
3	0	1.170802556795810E+003	1.2538874E+000	-2.4424717E-004
3	0	1.171302556783179E+003	1.2406424E+000	-1.1064836E-004
3	0	1.171802556770548E+003	1.2126056E+000	-1.4881945E-004
3	0	1.172302556757917E+003	1.1623998E+000	-5.3391734E-005
3	0	1.172802556745286E+003	1.0634838E+000	-3.4306191E-005
3	0	1.173302556732655E+003	7.1998125E-001	8.0207064E-005
3	0	1.173802556720024E+003	4.1563371E-001	-1.5220648E-005
3	0	1.174302556707393E+003	3.3433500E-001	-7.2477276E-005
3	0	1.174802556694762E+003	3.2216248E-001	-5.3391734E-005
3	0	1.175302556682131E+003	3.2248440E-001	-9.1562819E-005
3	0	1.175802556669500E+003	3.2486176E-001	-1.5220648E-005
3	0	1.176302556656869E+003	3.2717809E-001	-1.8699054E-004
3	0	1.176802556644237E+003	3.2892865E-001	-7.2477276E-005
3	0	1.177302556631606E+003	3.3007172E-001	6.1121522E-005
3	0	1.177802556618975E+003	3.3087865E-001	-1.1064836E-004
3	0	1.178302556606344E+003	3.3174393E-001	-2.2516162E-004
3	0	1.178802556593713E+003	3.3238637E-001	-5.3391734E-005
3	0	1.179302556581082E+003	3.3284983E-001	-1.5220648E-005
3	0	1.179802556568451E+003	3.3326441E-001	3.8648941E-006
3	0	1.180302556555820E+003	3.3365700E-001	-5.3391734E-005
3	0	1.180802556543189E+003	3.3397350E-001	-1.1064836E-004
3	0	1.181302556530558E+003	3.3415660E-001	-1.2973390E-004
3	0	1.181802556517927E+003	3.3433461E-001	-5.3391734E-005
3	0	1.182302556505296E+003	3.3485907E-001	-9.1562819E-005
3	0	1.182802556492665E+003	3.3526349E-001	-9.1562819E-005
3	0	1.183302556480034E+003	3.3555722E-001	3.8648941E-006
3	0	1.183802556467403E+003	3.3583751E-001	-1.1064836E-004
3	0	1.184302556454772E+003	3.3609873E-001	3.8648941E-006
3	0	1.184802556442140E+003	3.3635306E-001	-1.1064836E-004
3	0	1.185302556429509E+003	3.3642426E-001	-1.1064836E-004
3	0	1.185802556416878E+003	3.3651307E-001	-3.4306191E-005
3	0	1.186302556404247E+003	3.3694115E-001	9.9292607E-005
3	0	1.186802556391616E+003	3.3728150E-001	-1.1064836E-004
3	0	1.187302556378985E+003	3.3749813E-001	3.8648941E-006
3	0	1.187802556366354E+003	3.3769616E-001	-3.4306191E-005
3	0	1.188302556353723E+003	3.3786502E-001	-1.6790499E-004
3	0	1.188802556341092E+003	3.3801726E-001	-3.4306191E-005
3	0	1.189302556328461E+003	3.3804986E-001	2.2950437E-005
3	0	1.189802556315830E+003	3.3808675E-001	-7.2477276E-005
3	0	1.190302556303199E+003	3.3842435E-001	-2.0607607E-004
3	0	1.190802556290568E+003	3.3870265E-001	-3.4306191E-005
3	0	1.191302556277937E+003	3.3885172E-001	-1.2973390E-004
3	0	1.191802556265306E+003	3.3901423E-001	-9.1562819E-005
3	0	1.192302556252675E+003	3.3918279E-001	-1.5220648E-005
3	0	1.192802556240043E+003	3.3935171E-001	-9.1562819E-005
3	0	1.193302556227412E+003	3.3947757E-001	-1.8699054E-004
3	0	1.193802556214781E+003	3.3966014E-001	-1.5220648E-005
3	0	1.194302556202150E+003	3.4019735E-001	-9.1562819E-005
3	0	1.194802556189519E+003	3.4070438E-001	-3.4306191E-005
3	0	1.195302556176888E+003	3.4114057E-001	-5.3391734E-005
3	0	1.195802556164257E+003	3.4158248E-001	-7.2477276E-005
3	0	1.196302556151626E+003	3.4199673E-001	-5.3391734E-005
3	0	1.196802556138995E+003	3.4231815E-001	4.2035979E-005
3	0	1.197302556126364E+003	3.4247887E-001	-9.1562819E-005
3	0	1.197802556113733E+003	3.4257770E-001	-9.1562819E-005
3	0	1.198302556101102E+003	3.4296736E-001	6.1121522E-005
3	0	1.198802556088471E+003	3.4326008E-001	-1.6790499E-004
3	0	1.199302556075840E+003	3.4345308E-001	-1.5220648E-005
3	0	1.199802556063209E+003	3.4357098E-001	-1.5220648E-005
3	0	1.200302556050578E+003	3.4368527E-001	-1.5220648E-005
3	0	1.200802556037946E+003	3.4372967E-001	-1.4881945E-004
3	0	1.201302556025315E+003	3.4363607E-001	2.2950437E-005
3	0	1.201802556012684E+003	3.4352598E-001	2.2950437E-005
3	0	1.202302556000053E+003	3.4371027E-001	-3.4306191E-005
3	0	1.202802555987422E+003	3.4385335E-001	-1.1064836E-004
3	0	1.203302555974791E+003	3.4387940E-001	-9.1562819E-005
3	0	1.203802555962160E+003	3.4389648E-001	-2.6333271E-004
3	0	1.204302555949529E+003	3.4386981E-001	8.0207064E-005
3	0	1.204802555936898E+003	3.4380382E-001	-5.3391734E-005
3	0	1.205302555924267E+003	3.4364244E-001	-1.5220648E-005
3	0	1.205802555911636E+003	3.4346762E-001	-5.3391734E-005
3	0	1.206302555899005E+003	3.4358087E-001	-1.2973390E-004
3	0	1.206802555886374E+003	3.4363478E-001	6.1121522E-005
3	0	1.207302555873743E+003	3.4360600E-001	3.8648941E-006
3	0	1.207802555861112E+003	3.4356591E-001	-1.5220648E-005
3	0	1.208302555848481E+003	3.4353775E-001	-3.4306191E-005
3	0	1.208802555835849E+003	3.4343982E-001	-7.2477276E-005
3	0	1.209302555823218E+003	3.4322613E-001	-3.4306191E-005
3	0	1.209802555810587E+003	3.4297052E-001	-5.3391734E-005
3	0	1.210302555797956E+003	3.4303647E-001	-1.5220648E-005
3	0	1.210802555785325E+003	3.4305432E-001	-3.4306191E-005
3	0	1.211302555772694E+003	3.4297904E-001	-5.3391734E-005
3	0	1.211802555760063E+003	3.4290525E-001	-1.5220648E-005
3	0	1.212302555747432E+003	3.4285772E-001	-1.1064836E-004
3	0	1.212802555734801E+003	3.4281456E-001	6.1121522E-005
3	0	1.213302555722170E+003	3.4271869E-001	-5.3391734E-005
3	0	1.213802555709539E+003	3.4266436E-001	-1.1064836E-004
3	0	1.214302555696908E+003	3.4295794E-001	-1.1064836E-004
3	0	1.214802555684277E+003	3.4328926E-001	-5.3391734E-005
3	0	1.215302555671646E+003	3.4354943E-001	-1.2973390E-004
3	0	1.215802555659015E+003	3.4379268E-001	-1.4881945E-004
3	0	1.216302555646384E+003	3.4400991E-001	-3.4306191E-005
3	0	1.216802555633752E+003	3.4409225E-001	-1.1064836E-004
3	0	1.217302555621121E+003	3.4403837E-001	-5.3391734E-005
3	0	1.217802555608490E+003	3.4395137E-001	-1.1064836E-004
3	0	1.218302555595859E+003	3.4411874E-001	-5.3391734E-005
3	0	1.218802555583228E+003	3.4423032E-001	1.3746369E-004
3	0	1.219302555570597E+003	3.4420353E-001	-1.5220648E-005
3	0	1.219802555557966E+003	3.4415928E-001	-1.1064836E-004
3	0	1.220302555545335E+003	3.4409371E-001	-1.4881945E-004
3	0	1.220802555532704E+003	3.4400383E-001	-1.6790499E-004
3	0	1.221302555520073E+003	3.4377614E-001	8.0207064E-005
3	0	1.221802555507442E+003	3.4351811E-001	8.0207064E-005
3	0	1.222302555494811E+003	3.4353548E-001	-1.1064836E-004
3	0	1.222802555482180E+003	3.4353182E-001	-1.5220648E-005
3	0	1.223302555469549E+003	3.4343243E-001	-1.1064836E-004
3	0	1.223802555456918E+003	3.4331557E-001	1.1837815E-004
3	0	1.224302555444287E+003	3.4317267E-001	-1.1064836E-004
3	0	1.224802555431655E+003	3.4300399E-001	-1.5220648E-005
3	0	1.225302555419024E+003	3.4270120E-001	-3.4306191E-005
3	0	1.225802555406393E+003	3.4237918E-001	-7.2477276E-005
3	0	1.226302555393762E+003	3.4232533E-001	-9.1562819E-005
3	0	1.226802555381131E+003	3.4227818E-001	-9.1562819E-005
3	0	1.227302555368500E+003	3.4212446E-001	-1.2973390E-004
3	0	1.227802555355869E+003	3.4197137E-001	-5.3391734E-005
3	0	1.228302555343238E+003	3.4180087E-001	-1.5220648E-005
3	0	1.228802555330607E+003	3.4158415E-001	-1.4881945E-004
3	0	1.229302555317976E+003	3.4125385E-001	3.8648941E-006
3	0	1.229802555305345E+003	3.4091154E-001	-1.5220648E-005
3	0	1.230302555292714E+003	3.4087723E-001	-1.1064836E-004
3	0	1.230802555280083E+003	3.4080702E-001	-1.4881945E-004
3	0	1.231302555267452E+003	3.4064978E-001	6.1121522E-005
3	0	1.231802555254821E+003	3.4049901E-001	-1.6790499E-004
3	0	1.232302555242190E+003	3.4036005E-001	3.8648941E-006
3	0	1.232802555229558E+003	3.4021944E-001	-7.2477276E-005
3	0	1.233302555216927E+003	3.4000516E-001	4.2035979E-005
3	0	1.233802555204296E+003	3.3985505E-001	-1.2973390E-004
3	0	1.234302555191665E+003	3.4002972E-001	4.2035979E-005
3	0	1.234802555179034E+003	3.4024274E-001	-3.4306191E-005
3	0	1.235302555166403E+003	3.4040210E-001	-1.2973390E-004
3	0	1.235802555153772E+003	3.4058988E-001	-1.5220648E-005
3	0	1.236302555141141E+003	3.4075075E-001	-3.4306191E-005
3	0	1.236802555128510E+003	3.4084669E-001	-3.4306191E-005
3	0	1.237302555115879E+003	3.4078893E-001	-1.2973390E-004
3	0	1.237802555103248E+003	3.4067509E-001	-3.4306191E-005
3	0	1.238302555090617E+003	3.4081337E-001	2.2950437E-005
3	0	1.238802555077986E+003	3.4091884E-001	-3.4306191E-005
3	0	1.239302555065355E+003	3.4090075E-001	-1.5220648E-005
3	0	1.239802555052724E+003	3.4085765E-001	-3.4306191E-005
3	0	1.240302555040093E+003	3.4077138E-001	3.8648941E-006
3	0	1.240802555027461E+003	3.4062392E-001	4.2035979E-005
3	0	1.241302555014830E+003	3.4033522E-001	8.0207064E-005
3	0	1.241802555002199E+003	3.4001923E-001	-1.2973390E-004
3	0	1.242302554989568E+003	3.3998907E-001	-3.4306191E-005
3	0	1.242802554976937E+003	3.3994514E-001	-3.4306191E-005
3	0	1.243302554964306E+003	3.3980930E-001	3.8648941E-006
3	0	1.243802554951675E+003	3.3966163E-001	3.8648941E-006
3	0	1.244302554939044E+003	3.3951718E-001	-1.5220648E-005
3	0	1.244802554926413E+003	3.3928397E-001	6.1121522E-005
3	0	1.245302554913782E+003	3.3893734E-001	-1.2973390E-004
3	0	1.245802554901151E+003	3.3856925E-001	-7.2477276E-005
3	0	1.246302554888520E+003	3.3847916E-001	9.9292607E-005
3	0	1.246802554875889E+003	3.3838883E-001	3.8648941E-006
3	0	1.247302554863258E+003	3.3823299E-001	-1.5220648E-005
3	0	1.247802554850627E+003	3.3808166E-001	-1.4881945E-004
3	0	1.248302554837996E+003	3.3788246E-001	3.8648941E-006
3	0	1.248802554825365E+003	3.3767462E-001	4.2035979E-005
3	0	1.249302554812733E+003	3.3733088E-001	-7.2477276E-005
3	0	1.249802554800102E+003	3.3697093E-001	-7.2477276E-005
3	0	1.250302554787471E+003	3.3685574E-001	8.0207064E-005
3	0	1.250802554774840E+003	3.3676565E-001	-9.1562819E-005
3	0	1.251302554762209E+003	3.3660424E-001	1.1837815E-004
3	0	1.251802554749578E+003	3.3643633E-001	-5.3391734E-005
3	0	1.252302554736947E+003	3.3627462E-001	2.2950437E-005
3	0	1.252802554724316E+003	3.3608094E-001	-3.4306191E-005
3	0	1.253302554711685E+003	3.3583137E-001	-3.4306191E-005
3	0	1.253802554699054E+003	3.3561596E-001	-9.1562819E-005
3	0	1.254302554686423E+003	3.3572546E-001	-2.2516162E-004
3	0	1.254802554673792E+003	3.3589876E-001	-7.2477276E-005
3	0	1.255302554661161E+003	3.3602723E-001	-5.3391734E-005
3	0	1.255802554648530E+003	3.3616430E-001	-5.3391734E-005
3	0	1.256302554635899E+003	3.3628190E-001	-1.5220648E-005
3	0	1.256802554623268E+003	3.3631390E-001	-7.2477276E-005
3	0	1.257302554610636E+003	3.3619332E-001	-7.2477276E-005
3	0	1.257802554598005E+003	3.3600438E-001	-5.3391734E-005
3	0	1.258302554585374E+003	3.3604842E-001	3.8648941E-006
3	0	1.258802554572743E+003	3.3608669E-001	3.8648941E-006
3	0	1.259302554560112E+003	3.3603171E-001	-5.3391734E-005
3	0	1.259802554547481E+003	3.3596012E-001	-1.8699054E-004
3	0	1.260302554534850E+003	3.3583796E-001	9.9292607E-005
3	0	1.260802554522219E+003	3.3567035E-001	-5.3391734E-005
3	0	1.261302554509588E+003	3.3539519E-001	6.1121522E-005
3	0	1.261802554496957E+003	3.3508688E-001	4.2035979E-005
3	0	1.262302554484326E+003	3.3498180E-001	4.2035979E-005
3	0	1.262802554471695E+003	3.3490545E-001	-3.4306191E-005
3	0	1.263302554459064E+003	3.3472613E-001	-1.2973390E-004
3	0	1.263802554446433E+003	3.3456838E-001	4.2035979E-005
3	0	1.264302554433802E+003	3.3436564E-001	3.8648941E-006
3	0	1.264802554421171E+003	3.3412620E-001	-1.6790499E-004
3	0	1.265302554408539E+003	3.3377743E-001	-1.5220648E-005
3	0	1.265802554395908E+003	3.3341271E-001	-1.5220648E-005
3	0	1.266302554383277E+003	3.3330935E-001	4.2035979E-005
3	0	1.266802554370646E+003	3.3321375E-001	3.8648941E-006
3	0	1.267302554358015E+003	3.3304894E-001	-7.2477276E-005
3	0	1.267802554345384E+003	3.3287340E-001	-1.1064836E-004
3	0	1.268302554332753E+003	3.3269238E-001	3.8648941E-006
3	0	1.268802554320122E+003	3.3246490E-001	-1.1064836E-004
3	0	1.269302554307491E+003	3.3212313E-001	-3.4306191E-005
3	0	1.269802554294860E+003	3.3174917E-001	-1.1064836E-004
3	0	1.270302554282229E+003	3.3163056E-001	-5.3391734E-005
3	0	1.270802554269598E+003	3.3154052E-001	-2.2516162E-004
3	0	1.271302554256967E+003	3.3138397E-001	2.2950437E-005
3	0	1.271802554244336E+003	3.3121055E-001	-9.1562819E-005
3	0	1.272302554231705E+003	3.3102185E-001	-7.2477276E-005
3	0	1.272802554219074E+003	3.3081332E-001	-9.1562819E-005
3	0	1.273302554206442E+003	3.3056730E-001	-1.1064836E-004
3	0	1.273802554193811E+003	3.3033189E-001	-5.3391734E-005
3	0	1.274302554181180E+003	3.3035886E-001	-9.1562819E-005
3	0	1.274802554168549E+003	3.3050385E-001	-1.2973390E-004
3	0	1.275302554155918E+003	3.3062872E-001	-1.5220648E-005
3	0	1.275802554143287E+003	3.3077785E-001	-5.3391734E-005
3	0	1.276302554130656E+003	3.3090028E-001	8.0207064E-005
3	0	1.276802554118025E+003	3.3095503E-001	-1.2973390E-004
3	0	1.277302554105394E+003	3.3087018E-001	-3.4306191E-005
3	0	1.277802554092763E+003	3.3072495E-001	-3.4306191E-005
3	0	1.278302554080132E+003	3.3077607E-001	-7.2477276E-005
3	0	1.278802554067501E+003	3.3081874E-001	-7.2477276E-005
3	0	1.279302554054870E+003	3.3079138E-001	-5.3391734E-005
3	0	1.279802554042239E+003	3.3071956E-001	6.1121522E-005
3	0	1.280302554029608E+003	3.3060968E-001	4.2035979E-005
3	0	1.280802554016977E+003	3.3044589E-001	-2.0607607E-004
3	0	1.281302554004345E+003	3.3014733E-001	6.1121522E-005
3	0	1.281802553991714E+003	3.2981211E-001	-1.5220648E-005
3	0	1.282302553979083E+003	3.2970276E-001	-1.5220648E-005
3	0	1.282802553966452E+003	3.2961011E-001	-1.2973390E-004
3	0	1.283302553953821E+003	3.2945770E-001	9.9292607E-005
3	0	1.283802553941190E+003	3.2927927E-001	-5.3391734E-005
3	0	1.284302553928559E+003	3.2907045E-001	-5.3391734E-005
3	0	1.284802553915928E+003	3.2884344E-001	8.0207064E-005
3	0	1.285302553903297E+003	3.2849351E-001	-7.2477276E-005
3	0	1.285802553890666E+003	3.2812989E-001	3.8648941E-006
3	0	1.286302553878035E+003	3.2798523E-001	-1.1064836E-004
3	0	1.286802553865404E+003	3.2788503E-001	-1.1064836E-004
3	0	1.287302553852773E+003	3.2773098E-001	4.2035979E-005
3	0	1.287802553840142E+003	3.2756993E-001	-1.1064836E-004
3	0	1.288302553827511E+003	3.2736266E-001	-1.2973390E-004
3	0	1.288802553814880E+003	3.2707813E-001	-5.3391734E-005
3	0	1.289302553802248E+003	3.2672900E-001	2.2950437E-005
3	0	1.289802553789617E+003	3.2637954E-001	-3.4306191E-005
3	0	1.290302553776986E+003	3.2625592E-001	4.2035979E-005
3	0	1.290802553764355E+003	3.2616401E-001	-1.4881945E-004
3	0	1.291302553751724E+003	3.2603660E-001	-9.1562819E-005
3	0	1.291802553739093E+003	3.2589051E-001	-2.2516162E-004
3	0	1.292302553726462E+003	3.2569760E-001	-3.4306191E-005
3	0	1.292802553713831E+003	3.2550544E-001	-5.3391734E-005
3	0	1.293302553701200E+003	3.2525143E-001	-9.1562819E-005
3	0	1.293802553688569E+003	3.2500580E-001	-3.4306191E-005
3	0	1.294302553675938E+003	3.2504040E-001	3.8648941E-006
3	0	1.294802553663307E+003	3.2514879E-001	-5.3391734E-005
3	0	1.295302553650676E+003	3.2526204E-001	4.2035979E-005
3	0	1.295802553638045E+003	3.2540375E-001	-1.6790499E-004
3	0	1.296302553625414E+003	3.2552147E-001	-1.2973390E-004
3	0	1.296802553612783E+003	3.2560569E-001	-1.1064836E-004
3	0	1.297302553600151E+003	3.2555220E-001	-5.3391734E-005
3	0	1.297802553587520E+003	3.2542410E-001	-7.2477276E-005
3	0	1.298302553574889E+003	3.2548055E-001	-3.4306191E-005
3	0	1.298802553562258E+003	3.2554391E-001	4.2035979E-005
3	0	1.299302553549627E+003	3.2550919E-001	-1.5220648E-005
3	0	1.299802553536996E+003	3.2544473E-001	-7.2477276E-005
3	0	1.300302553524365E+003	3.2531223E-001	2.2950437E-005
3	0	1.300802553511734E+003	3.2513851E-001	3.8648941E-006
3	0	1.301302553499103E+003	3.2485726E-001	3.8648941E-006
3	0	1.301802553486472E+003	3.2450929E-001	-1.1064836E-004
3	0	1.302302553473841E+003	3.2436574E-001	-3.4306191E-005
3	0	1.302802553461210E+003	3.2425264E-001	-1.1064836E-004
3	0	1.303302553448579E+003	3.2409602E-001	9.9292607E-005
3	0	1.303802553435948E+003	3.2392883E-001	-3.4306191E-005
3	0	1.304302553423317E+003	3.2374170E-001	8.0207064E-005
3	0	1.304802553410686E+003	3.2349688E-001	-3.4306191E-005
3	0	1.305302553398054E+003	3.2317868E-001	-1.1064836E-004
3	0	1.305802553385423E+003	3.2280630E-001	-3.4306191E-005
3	0	1.306302553372792E+003	3.2265007E-001	-1.5220648E-005
3	0	1.306802553360161E+003	3.2253495E-001	-3.4306191E-005
3	0	1.307302553347530E+003	3.2237682E-001	-1.5220648E-005
3	0	1.307802553334899E+003	3.2221800E-001	-9.1562819E-005
3	0	1.308302553322268E+003	3.2200763E-001	4.2035979E-005
3	0	1.308802553309637E+003	3.2176557E-001	-3.4306191E-005
3	0	1.309302553297006E+003	3.2145181E-001	-1.5220648E-005
3	0	1.309802553284375E+003	3.2109699E-001	-7.2477276E-005
3	0	1.310302553271744E+003	3.2094115E-001	-2.0607607E-004
3	0	1.310802553259113E+003	3.2083920E-001	-1.4881945E-004
3	0	1.311302553246482E+003	3.2068530E-001	1.1837815E-004
3	0	1.311802553233851E+003	3.2052201E-001	2.2950437E-005
3	0	1.312302553221220E+003	3.2030934E-001	2.2950437E-005
3	0	1.312802553208589E+003	3.2008481E-001	-3.4306191E-005
3	0	1.313302553195957E+003	3.1979883E-001	-9.1562819E-005
3	0	1.313802553183326E+003	3.1953815E-001	2.2950437E-005
3	0	1.314302553170695E+003	3.1954184E-001	3.8648941E-006
3	0	1.314802553158064E+003	3.1963792E-001	-3.4306191E-005
3	0	1.315302553145433E+003	3.1977028E-001	-1.1064836E-004
3	0	1.315802553132802E+003	3.1991950E-001	4.2035979E-005
3	0	1.316302553120171E+003	3.2004395E-001	4.2035979E-005
3	0	1.316802553107540E+003	3.2012835E-001	9.9292607E-005
3	0	1.317302553094909E+003	3.2008982E-001	-3.4306191E-005
3	0	1.317802553082278E+003	3.1996998E-001	-7.2477276E-005
3	0	1.318302553069647E+003	3.2000634E-001	-3.4306191E-005
3	0	1.318802553057016E+003	3.2005155E-001	3.8648941E-006
3	0	1.319302553044385E+003	3.2004693E-001	-7.2477276E-005
3	0	1.319802553031754E+003	3.2000735E-001	9.9292607E-005
3	0	1.320302553019123E+003	3.1991008E-001	3.8648941E-006
3	0	1.320802553006492E+003	3.1974992E-001	-3.4306191E-005
3	0	1.321302552993860E+003	3.1949896E-001	-1.5220648E-005
3	0	1.321802552981229E+003	3.1919274E-001	-7.2477276E-005
3	0	1.322302552968598E+003	3.1904444E-001	-3.4306191E-005
3	0	1.322802552955967E+003	3.1894585E-001	-1.2973390E-004
3	0	1.323302552943336E+003	3.1880683E-001	-7.2477276E-005
3	0	1.323802552930705E+003	3.1864369E-001	-1.1064836E-004
3	0	1.324302552918074E+003	3.1845164E-001	-5.3391734E-005
3	0	1.324802552905443E+003	3.1821355E-001	1.5654923E-004
3	0	1.325302552892812E+003	3.1790453E-001	-3.4306191E-005
3	0	1.325802552880181E+003	3.1756726E-001	3.8648941E-006
3	0	1.326302552867550E+003	3.1740803E-001	-3.4306191E-005
3	0	1.326802552854919E+003	3.1729445E-001	-3.4306191E-005
3	0	1.327302552842288E+003	3.1713888E-001	-5.3391734E-005
3	0	1.327802552829657E+003	3.1697911E-001	-3.4306191E-005
3	0	1.328302552817026E+003	3.1679305E-001	-7.2477276E-005
3	0	1.328802552804395E+003	3.1657648E-001	-5.3391734E-005
3	0	1.329302552791763E+003	3.1627432E-001	1.3746369E-004
3	0	1.329802552779132E+003	3.1593016E-001	-3.4306191E-005
3	0	1.330302552766501E+003	3.1576082E-001	-1.1064836E-004
3	0	1.330802552753870E+003	3.1563464E-001	3.8648941E-006
3	0	1.331302552741239E+003	3.1548947E-001	4.2035979E-005
3	0	1.331802552728608E+003	3.1532499E-001	-1.2973390E-004
3	0	1.332302552715977E+003	3.1512278E-001	-9.1562819E-005
3	0	1.332802552703346E+003	3.1490085E-001	-7.2477276E-005
3	0	1.333302552690715E+003	3.1463969E-001	-1.1064836E-004
3	0	1.333802552678084E+003	3.1435904E-001	-5.3391734E-005
3	0	1.334302552665453E+003	3.1430164E-001	-5.3391734E-005
3	0	1.334802552652822E+003	3.1435651E-001	-3.4306191E-005
3	0	1.335302552640191E+003	3.1442219E-001	2.2950437E-005
3	0	1.335802552627560E+003	3.1452197E-001	-9.1562819E-005
3	0	1.336302552614929E+003	3.1462643E-001	-1.5220648E-005
3	0	1.336802552602298E+003	3.1458956E-001	4.2035979E-005
3	0	1.337302552589666E+003	3.1463656E-001	-1.4881945E-004
3	0	1.337802552577035E+003	3.1471938E-001	4.2035979E-005
3	0	1.338302552564404E+003	3.1486374E-001	-3.4306191E-005
3	0	1.338802552551773E+003	3.1499794E-001	-1.5220648E-005
3	0	1.339302552539142E+003	3.1500557E-001	-1.1064836E-004
3	0	1.339802552526511E+003	3.1496593E-001	-1.8699054E-004
3	0	1.340302552513880E+003	3.1490690E-001	-5.3391734E-005
3	0	1.340802552501249E+003	3.1476286E-001	-5.3391734E-005
3	0	1.341302552488618E+003	3.1450221E-001	-3.4306191E-005
3	0	1.341802552475987E+003	3.1418020E-001	-5.3391734E-005
3	0	1.342302552463356E+003	3.1405461E-001	-7.2477276E-005
3	0	1.342802552450725E+003	3.1400555E-001	3.8648941E-006
3	0	1.343302552438094E+003	3.1388161E-001	2.2950437E-005
3	0	1.343802552425463E+003	3.1369108E-001	-7.2477276E-005
3	0	1.344302552412832E+003	3.1349999E-001	-9.1562819E-005
3	0	1.344802552400201E+003	3.1324896E-001	-7.2477276E-005
3	0	1.345302552387569E+003	3.1292269E-001	-1.4881945E-004
3	0	1.345802552374938E+003	3.1254238E-001	3.8648941E-006
3	0	1.346302552362307E+003	3.1234384E-001	2.2950437E-005
3	0	1.346802552349676E+003	3.1225502E-001	-3.4306191E-005
3	0	1.347302552337045E+003	3.1210899E-001	-5.3391734E-005
3	0	1.347802552324414E+003	3.1190619E-001	-9.1562819E-005
3	0	1.348302552311783E+003	3.1169510E-001	-1.1064836E-004
3	0	1.348802552299152E+003	3.1144652E-001	-1.2973390E-004
3	0	1.349302552286521E+003	3.1109527E-001	3.8648941E-006
3	0	1.349802552273890E+003	3.1072330E-001	4.2035979E-005
3	0	1.349836552273031E+003	3.1056973E-001	-7.2477276E-005