EC-Lab ASCII FILE
Nb header lines : 55                          

Open Circuit Voltage

Run on channel : 1 (SN 81504)
User : 
CE vs. WE compliance from -10 V to 10 V
Electrode connection : standard
Potential control : Ewe
Ewe ctrl range : min = -2.50 V, max = 2.50 V
Safety Limits :
	Do not start on E overload
Acquisition started on : 05/08/2026 00:05:30.308
Loaded Setting File :  C:\PEM-WE_measurements\2026\372_IV_IV IrOx, 5 min Pt, 30 min C, etched cathode\new station\Loopeis new\1,46 V different time gaps open cell\Loopeis 1,46V_180s_3_PEIS from 6500Hz to 1000Hz.mps
Saved on :
	File : L_28_Loopeis 1,46V_180s_3_PEIS from 6500Hz to 1000Hz_10_OCV_C01.mpr
	Directory : C:\PEM-WE_measurements\2026\372_IV_IV IrOx, 5 min Pt, 30 min C, etched cathode\new station\Loopeis new\1,46 V different time gaps open cell\
	Host : 192.168.0.2
Device : SP-150e (SN .005491)
Address : 192.168.0.91
EC-LAB for windows v11.71 (software)
Internet server v28.00 (firmware)
Command interpretor v14.01 (firmware)
Electrode material : 
Initial state : 
Electrolyte : 
Comments : 
Current amplifier : SP-150eB-20A
Electrode surface area : 0.001 cm²
Characteristic mass : 0.001 g
Equivalent Weight : 0.000 g/eq.
Density : 0.000 g/cm3
Volume (V) : 0.001 cm³
Record Analogic IN 1
Text export
   Mode : Standard
   Time format : Elapsed
Cycle Definition : Charge/Discharge alternance
External device configuration :
   device type : Temperature Probe
   device name : Other
   Analog IN 1 : 
      unit : T/Â°C
      max : 100.000 at 2.000 V
      min : 0.000 at 1.460 V
tR (h:m:s)          0:03:0.0000         
dER/dt (mV/h)       1.0                 
record              <Ewe>               
dER (mV)            10.00               
dtR (s)             0.5000              
E range min (V)     -2.500              
E range max (V)     2.500               

mode	error	time/s	<Ewe/V>	Analog IN 1/V	
3	0	9.454483826603246E+002	1.2176064E+000	-2.7039447E+002
3	0	9.459483826476935E+002	1.1655378E+000	-2.7039093E+002
3	0	9.464483826350624E+002	7.8045201E-001	-2.7036267E+002
3	0	9.469483826224314E+002	4.1387936E-001	-2.7036267E+002
3	0	9.474483826098003E+002	3.4494266E-001	-2.7036267E+002
3	0	9.479483825971693E+002	3.3355725E-001	-2.7038742E+002
3	0	9.484483825845382E+002	3.2596603E-001	-2.7038742E+002
3	0	9.489483825719071E+002	3.1998447E-001	-2.7038742E+002
3	0	9.494483825592761E+002	3.1540191E-001	-2.7037326E+002
3	0	9.499483825466450E+002	3.1185812E-001	-2.7038742E+002
3	0	9.504483825340139E+002	3.0903780E-001	-2.7038742E+002
3	0	9.509483825213829E+002	3.0673718E-001	-2.7037677E+002
3	0	9.514483825087518E+002	3.0479184E-001	-2.7039093E+002
3	0	9.519483824961208E+002	3.0313480E-001	-2.7040155E+002
3	0	9.524483824834897E+002	3.0172762E-001	-2.7038742E+002
3	0	9.529483824708586E+002	3.0047938E-001	-2.7038031E+002
3	0	9.534483824582276E+002	2.9935780E-001	-2.7037326E+002
3	0	9.539483824455965E+002	2.9834193E-001	-2.7038742E+002
3	0	9.544483824329654E+002	2.9740173E-001	-2.7035559E+002
3	0	9.549483824203344E+002	2.9651329E-001	-2.7037677E+002
3	0	9.554483824077033E+002	2.9565549E-001	-2.7038742E+002
3	0	9.559483823950723E+002	2.9484293E-001	-2.7036267E+002
3	0	9.564483823824412E+002	2.9410636E-001	-2.7036618E+002
3	0	9.569483823698101E+002	2.9339856E-001	-2.7036972E+002
3	0	9.574483823571791E+002	2.9271042E-001	-2.7038385E+002
3	0	9.579483823445480E+002	2.9204488E-001	-2.7037677E+002
3	0	9.584483823319169E+002	2.9140043E-001	-2.7038385E+002
3	0	9.589483823192859E+002	2.9076314E-001	-2.7036267E+002
3	0	9.594483823066548E+002	2.9012111E-001	-2.7037677E+002
3	0	9.599483822940238E+002	2.8949669E-001	-2.7038031E+002
3	0	9.604483822813927E+002	2.8891751E-001	-2.7037677E+002
3	0	9.609483822687616E+002	2.8836215E-001	-2.7037326E+002
3	0	9.614483822561306E+002	2.8780556E-001	-2.7037677E+002
3	0	9.619483822434995E+002	2.8725755E-001	-2.7038385E+002
3	0	9.624483822308684E+002	2.8671479E-001	-2.7038031E+002
3	0	9.629483822182374E+002	2.8615797E-001	-2.7036267E+002
3	0	9.634483822056063E+002	2.8559408E-001	-2.7039801E+002
3	0	9.639483821929753E+002	2.8503510E-001	-2.7037677E+002
3	0	9.644483821803442E+002	2.8451979E-001	-2.7039801E+002
3	0	9.649483821677131E+002	2.8401494E-001	-2.7039801E+002
3	0	9.654483821550821E+002	2.8351068E-001	-2.7035205E+002
3	0	9.659483821424510E+002	2.8301066E-001	-2.7036972E+002
3	0	9.664483821298199E+002	2.8251833E-001	-2.7036618E+002
3	0	9.669483821171889E+002	2.8202140E-001	-2.7035913E+002
3	0	9.674483821045578E+002	2.8150192E-001	-2.7036972E+002
3	0	9.679483820919268E+002	2.8098765E-001	-2.7040506E+002
3	0	9.684483820792957E+002	2.8051835E-001	-2.7038742E+002
3	0	9.689483820666646E+002	2.8005841E-001	-2.7037677E+002
3	0	9.694483820540336E+002	2.7960119E-001	-2.7035559E+002
3	0	9.699483820414025E+002	2.7915508E-001	-2.7035559E+002
3	0	9.704483820287714E+002	2.7870309E-001	-2.7040155E+002
3	0	9.709483820161404E+002	2.7824613E-001	-2.7040155E+002
3	0	9.714483820035093E+002	2.7777362E-001	-2.7037326E+002
3	0	9.719483819908783E+002	2.7730373E-001	-2.7036972E+002
3	0	9.724483819782472E+002	2.7687302E-001	-2.7037326E+002
3	0	9.729483819656161E+002	2.7644122E-001	-2.7038385E+002
3	0	9.734483819529851E+002	2.7602148E-001	-2.7038031E+002
3	0	9.739483819403540E+002	2.7559853E-001	-2.7036972E+002
3	0	9.744483819277229E+002	2.7518296E-001	-2.7039447E+002
3	0	9.749483819150919E+002	2.7476698E-001	-2.7038385E+002
3	0	9.754483819024608E+002	2.7433893E-001	-2.7038742E+002
3	0	9.759483818898298E+002	2.7390763E-001	-2.7036618E+002
3	0	9.764483818771987E+002	2.7351522E-001	-2.7038385E+002
3	0	9.769483818645676E+002	2.7312052E-001	-2.7036618E+002
3	0	9.774483818519366E+002	2.7272990E-001	-2.7036618E+002
3	0	9.779483818393055E+002	2.7234402E-001	-2.7036972E+002
3	0	9.784483818266744E+002	2.7196363E-001	-2.7037677E+002
3	0	9.789483818140434E+002	2.7156705E-001	-2.7038742E+002
3	0	9.794483818014123E+002	2.7115735E-001	-2.7037677E+002
3	0	9.799483817887813E+002	2.7075934E-001	-2.7039801E+002
3	0	9.804483817761502E+002	2.7039903E-001	-2.7037677E+002
3	0	9.809483817635191E+002	2.7003470E-001	-2.7035559E+002
3	0	9.814483817508881E+002	2.6967865E-001	-2.7038031E+002
3	0	9.819483817382570E+002	2.6932254E-001	-2.7038742E+002
3	0	9.824483817256260E+002	2.6897103E-001	-2.7036618E+002
3	0	9.829483817129949E+002	2.6860255E-001	-2.7041568E+002
3	0	9.834483817003638E+002	2.6823217E-001	-2.7038031E+002
3	0	9.839483816877328E+002	2.6786217E-001	-2.7039447E+002
3	0	9.844483816751017E+002	2.6752999E-001	-2.7036972E+002
3	0	9.849483816624706E+002	2.6719609E-001	-2.7036972E+002
3	0	9.854483816498396E+002	2.6686797E-001	-2.7036267E+002
3	0	9.859483816372085E+002	2.6653883E-001	-2.7036972E+002
3	0	9.864483816245775E+002	2.6621017E-001	-2.7039447E+002
3	0	9.869483816119464E+002	2.6587439E-001	-2.7036972E+002
3	0	9.874483815993153E+002	2.6552230E-001	-2.7037326E+002
3	0	9.879483815866843E+002	2.6517808E-001	-2.7036618E+002
3	0	9.884483815740532E+002	2.6487780E-001	-2.7038742E+002
3	0	9.889483815614221E+002	2.6457816E-001	-2.7038031E+002
3	0	9.894483815487911E+002	2.6427636E-001	-2.7037677E+002
3	0	9.899483815361600E+002	2.6397726E-001	-2.7039447E+002
3	0	9.904483815235290E+002	2.6367930E-001	-2.7039801E+002
3	0	9.909483815108979E+002	2.6338068E-001	-2.7037677E+002
3	0	9.914483814982668E+002	2.6306117E-001	-2.7036267E+002
3	0	9.919483814856358E+002	2.6274720E-001	-2.7038031E+002
3	0	9.924483814730047E+002	2.6247460E-001	-2.7036618E+002
3	0	9.929483814603736E+002	2.6219776E-001	-2.7039447E+002
3	0	9.934483814477426E+002	2.6192585E-001	-2.7037326E+002
3	0	9.939483814351115E+002	2.6164949E-001	-2.7036972E+002
3	0	9.944483814224805E+002	2.6138502E-001	-2.7035205E+002
3	0	9.949483814098494E+002	2.6110226E-001	-2.7037326E+002
3	0	9.954483813972183E+002	2.6080617E-001	-2.7037677E+002
3	0	9.959483813845873E+002	2.6050967E-001	-2.7037326E+002
3	0	9.964483813719562E+002	2.6025897E-001	-2.7040506E+002
3	0	9.969483813593251E+002	2.6000938E-001	-2.7036618E+002
3	0	9.974483813466941E+002	2.5976044E-001	-2.7037326E+002
3	0	9.979483813340630E+002	2.5951365E-001	-2.7035205E+002
3	0	9.984483813214320E+002	2.5926554E-001	-2.7035913E+002
3	0	9.989483813088009E+002	2.5900894E-001	-2.7038031E+002
3	0	9.994483812961698E+002	2.5872669E-001	-2.7037326E+002
3	0	9.999483812835388E+002	2.5845566E-001	-2.7038031E+002
3	0	1.000448381270908E+003	2.5822645E-001	-2.7036267E+002
3	0	1.000948381258277E+003	2.5799668E-001	-2.7036972E+002
3	0	1.001448381245646E+003	2.5776318E-001	-2.7038742E+002
3	0	1.001948381233015E+003	2.5753561E-001	-2.7039093E+002
3	0	1.002448381220383E+003	2.5730574E-001	-2.7033789E+002
3	0	1.002948381207752E+003	2.5707057E-001	-2.7036972E+002
3	0	1.003448381195121E+003	2.5681454E-001	-2.7037677E+002
3	0	1.003948381182490E+003	2.5656497E-001	-2.7038385E+002
3	0	1.004448381169859E+003	2.5635833E-001	-2.7037326E+002
3	0	1.004948381157228E+003	2.5614139E-001	-2.7037677E+002
3	0	1.005448381144597E+003	2.5592560E-001	-2.7039093E+002
3	0	1.005948381131966E+003	2.5571436E-001	-2.7037326E+002
3	0	1.006448381119335E+003	2.5550410E-001	-2.7038031E+002
3	0	1.006948381106704E+003	2.5528714E-001	-2.7036267E+002
3	0	1.007448381094073E+003	2.5504315E-001	-2.7036972E+002
3	0	1.007948381081442E+003	2.5481412E-001	-2.7036618E+002
3	0	1.008448381068811E+003	2.5462672E-001	-2.7037326E+002
3	0	1.008948381056180E+003	2.5443152E-001	-2.7042273E+002
3	0	1.009448381043549E+003	2.5424379E-001	-2.7039093E+002
3	0	1.009948381030918E+003	2.5405231E-001	-2.7038742E+002
3	0	1.010448381018286E+003	2.5385678E-001	-2.7036972E+002
3	0	1.010948381005655E+003	2.5365746E-001	-2.7036972E+002
3	0	1.011448380993024E+003	2.5343454E-001	-2.7036972E+002
3	0	1.011948380980393E+003	2.5321168E-001	-2.7036972E+002
3	0	1.012448380967762E+003	2.5304401E-001	-2.7038385E+002
3	0	1.012948380955131E+003	2.5286996E-001	-2.7036267E+002
3	0	1.013448380942500E+003	2.5268847E-001	-2.7039093E+002
3	0	1.013948380929869E+003	2.5251347E-001	-2.7038385E+002
3	0	1.014448380917238E+003	2.5234264E-001	-2.7039447E+002
3	0	1.014948380904607E+003	2.5215372E-001	-2.7036972E+002
3	0	1.015448380891976E+003	2.5194696E-001	-2.7038742E+002
3	0	1.015948380879345E+003	2.5174510E-001	-2.7037326E+002
3	0	1.016448380866714E+003	2.5158167E-001	-2.7037677E+002
3	0	1.016948380854083E+003	2.5141764E-001	-2.7036267E+002
3	0	1.017448380841452E+003	2.5125462E-001	-2.7039801E+002
3	0	1.017948380828821E+003	2.5109378E-001	-2.7037326E+002
3	0	1.018448380816189E+003	2.5092968E-001	-2.7036972E+002
3	0	1.018948380803558E+003	2.5075263E-001	-2.7036972E+002
3	0	1.019448380790927E+003	2.5055829E-001	-2.7037677E+002
3	0	1.019948380778296E+003	2.5036949E-001	-2.7038742E+002
3	0	1.020448380765665E+003	2.5022087E-001	-2.7040860E+002
3	0	1.020948380753034E+003	2.5007057E-001	-2.7039447E+002
3	0	1.021448380740403E+003	2.4992102E-001	-2.7037677E+002
3	0	1.021948380727772E+003	2.4977803E-001	-2.7036618E+002
3	0	1.022448380715141E+003	2.4962218E-001	-2.7037326E+002
3	0	1.022948380702510E+003	2.4946102E-001	-2.7036267E+002
3	0	1.023448380689879E+003	2.4927612E-001	-2.7040155E+002
3	0	1.023948380677248E+003	2.4909933E-001	-2.7036972E+002
3	0	1.024448380664617E+003	2.4895829E-001	-2.7041214E+002
3	0	1.024948380651986E+003	2.4881603E-001	-2.7038742E+002
3	0	1.025448380639355E+003	2.4866766E-001	-2.7037326E+002
3	0	1.025948380626724E+003	2.4852753E-001	-2.7036618E+002
3	0	1.026448380614092E+003	2.4838212E-001	-2.7036618E+002
3	0	1.026948380601461E+003	2.4822518E-001	-2.7037326E+002
3	0	1.027448380588830E+003	2.4805035E-001	-2.7037677E+002
3	0	1.027948380576199E+003	2.4787866E-001	-2.7039093E+002
3	0	1.028448380563568E+003	2.4774483E-001	-2.7036972E+002
3	0	1.028948380550937E+003	2.4760990E-001	-2.7038385E+002
3	0	1.029448380538306E+003	2.4747767E-001	-2.7034851E+002
3	0	1.029948380525675E+003	2.4734418E-001	-2.7038742E+002
3	0	1.030448380513044E+003	2.4721333E-001	-2.7035913E+002
3	0	1.030948380500413E+003	2.4706773E-001	-2.7037677E+002
3	0	1.031448380487782E+003	2.4690026E-001	-2.7038385E+002
3	0	1.031948380475151E+003	2.4673910E-001	-2.7037326E+002
3	0	1.032448380462520E+003	2.4662279E-001	-2.7034851E+002
3	0	1.032948380449889E+003	2.4650060E-001	-2.7038385E+002
3	0	1.033448380437258E+003	2.4637233E-001	-2.7036972E+002
3	0	1.033948380424627E+003	2.4625392E-001	-2.7039093E+002
3	0	1.034448380411995E+003	2.4613558E-001	-2.7038385E+002
3	0	1.034948380399364E+003	2.4600202E-001	-2.7039801E+002
3	0	1.035448380386733E+003	2.4585341E-001	-2.7038031E+002
3	0	1.035948380374102E+003	2.4569981E-001	-2.7037677E+002
3	0	1.036448380361471E+003	2.4559417E-001	-2.7036972E+002
3	0	1.036948380348840E+003	2.4548033E-001	-2.7038742E+002
3	0	1.037448380336209E+003	2.4536349E-001	-2.7037326E+002
3	0	1.037948380323578E+003	2.4525343E-001	-2.7038031E+002
3	0	1.038448380310947E+003	2.4513663E-001	-2.7036267E+002
3	0	1.038948380298316E+003	2.4501090E-001	-2.7036972E+002
3	0	1.039448380285685E+003	2.4486457E-001	-2.7038385E+002
3	0	1.039948380273054E+003	2.4471471E-001	-2.7036972E+002
3	0	1.040448380260423E+003	2.4461192E-001	-2.7038031E+002
3	0	1.040948380247792E+003	2.4450587E-001	-2.7039447E+002
3	0	1.041448380235161E+003	2.4440318E-001	-2.7040155E+002
3	0	1.041948380222530E+003	2.4429855E-001	-2.7034497E+002
3	0	1.042448380209898E+003	2.4418595E-001	-2.7036618E+002
3	0	1.042948380197267E+003	2.4405758E-001	-2.7039093E+002
3	0	1.043448380184636E+003	2.4390924E-001	-2.7037677E+002
3	0	1.043948380172005E+003	2.4376540E-001	-2.7038385E+002
3	0	1.044448380159374E+003	2.4366827E-001	-2.7038031E+002
3	0	1.044948380146743E+003	2.4356116E-001	-2.7039093E+002
3	0	1.045448380134112E+003	2.4345492E-001	-2.7035205E+002
3	0	1.045948380121481E+003	2.4334405E-001	-2.7038385E+002
3	0	1.046448380108850E+003	2.4323602E-001	-2.7038742E+002
3	0	1.046948380096219E+003	2.4311177E-001	-2.7040506E+002
3	0	1.047448380083588E+003	2.4296702E-001	-2.7038385E+002
3	0	1.047948380070957E+003	2.4282812E-001	-2.7036972E+002
3	0	1.048448380058326E+003	2.4273151E-001	-2.7037326E+002
3	0	1.048948380045695E+003	2.4262740E-001	-2.7036618E+002
3	0	1.049448380033064E+003	2.4252895E-001	-2.7041214E+002
3	0	1.049948380020433E+003	2.4243014E-001	-2.7035559E+002
3	0	1.050448380007801E+003	2.4232982E-001	-2.7039447E+002
3	0	1.050948379995170E+003	2.4221273E-001	-2.7037326E+002
3	0	1.051448379982539E+003	2.4208328E-001	-2.7036618E+002
3	0	1.051948379969908E+003	2.4195826E-001	-2.7035913E+002
3	0	1.052448379957277E+003	2.4187489E-001	-2.7038385E+002
3	0	1.052948379944646E+003	2.4178006E-001	-2.7038742E+002
3	0	1.053448379932015E+003	2.4169251E-001	-2.7037326E+002
3	0	1.053948379919384E+003	2.4159999E-001	-2.7038742E+002
3	0	1.054448379906753E+003	2.4150534E-001	-2.7036972E+002
3	0	1.054948379894122E+003	2.4139804E-001	-2.7038385E+002
3	0	1.055448379881491E+003	2.4127123E-001	-2.7038385E+002
3	0	1.055948379868860E+003	2.4114858E-001	-2.7037326E+002
3	0	1.056448379856229E+003	2.4106634E-001	-2.7037677E+002
3	0	1.056948379843598E+003	2.4098505E-001	-2.7039801E+002
3	0	1.057448379830967E+003	2.4089901E-001	-2.7040155E+002
3	0	1.057948379818336E+003	2.4081236E-001	-2.7037677E+002
3	0	1.058448379805704E+003	2.4072833E-001	-2.7036267E+002
3	0	1.058948379793073E+003	2.4062970E-001	-2.7038031E+002
3	0	1.059448379780442E+003	2.4050304E-001	-2.7036972E+002
3	0	1.059948379767811E+003	2.4038468E-001	-2.7038031E+002
3	0	1.060448379755180E+003	2.4030873E-001	-2.7040155E+002
3	0	1.060948379742549E+003	2.4022992E-001	-2.7040860E+002
3	0	1.061448379729918E+003	2.4015076E-001	-2.7038742E+002
3	0	1.061948379717287E+003	2.4007398E-001	-2.7039447E+002
3	0	1.062448379704656E+003	2.3998763E-001	-2.7036618E+002
3	0	1.062948379692025E+003	2.3989661E-001	-2.7038385E+002
3	0	1.063448379679394E+003	2.3977415E-001	-2.7039093E+002
3	0	1.063948379666763E+003	2.3966382E-001	-2.7036267E+002
3	0	1.064448379654132E+003	2.3959671E-001	-2.7038031E+002
3	0	1.064948379641501E+003	2.3951954E-001	-2.7038031E+002
3	0	1.065448379628870E+003	2.3944239E-001	-2.7037326E+002
3	0	1.065948379616239E+003	2.3936740E-001	-2.7038031E+002
3	0	1.066448379603607E+003	2.3928216E-001	-2.7037326E+002
3	0	1.066948379590976E+003	2.3918207E-001	-2.7037677E+002
3	0	1.067448379578345E+003	2.3906405E-001	-2.7039093E+002
3	0	1.067948379565714E+003	2.3894444E-001	-2.7040155E+002
3	0	1.068448379553083E+003	2.3887043E-001	-2.7036972E+002
3	0	1.068948379540452E+003	2.3879418E-001	-2.7036618E+002
3	0	1.069448379527821E+003	2.3871739E-001	-2.7039801E+002
3	0	1.069948379515190E+003	2.3864435E-001	-2.7035913E+002
3	0	1.070448379502559E+003	2.3856810E-001	-2.7039447E+002
3	0	1.070948379489928E+003	2.3847611E-001	-2.7036267E+002
3	0	1.071448379477297E+003	2.3836222E-001	-2.7035913E+002
3	0	1.071948379464666E+003	2.3825637E-001	-2.7038742E+002
3	0	1.072448379452035E+003	2.3819545E-001	-2.7038742E+002
3	0	1.072948379439404E+003	2.3812227E-001	-2.7036267E+002
3	0	1.073448379426773E+003	2.3804876E-001	-2.7036267E+002
3	0	1.073948379414142E+003	2.3798624E-001	-2.7037326E+002
3	0	1.074448379401510E+003	2.3791595E-001	-2.7037326E+002
3	0	1.074948379388879E+003	2.3783326E-001	-2.7037677E+002
3	0	1.075448379376248E+003	2.3772548E-001	-2.7038031E+002
3	0	1.075948379363617E+003	2.3761988E-001	-2.7036618E+002
3	0	1.076448379350986E+003	2.3755804E-001	-2.7038385E+002
3	0	1.076948379338355E+003	2.3748687E-001	-2.7035559E+002
3	0	1.077448379325724E+003	2.3742199E-001	-2.7036618E+002
3	0	1.077948379313093E+003	2.3735321E-001	-2.7038031E+002
3	0	1.078448379300462E+003	2.3728414E-001	-2.7036618E+002
3	0	1.078948379287831E+003	2.3720211E-001	-2.7038031E+002
3	0	1.079448379275200E+003	2.3709865E-001	-2.7037326E+002
3	0	1.079948379262569E+003	2.3699617E-001	-2.7035913E+002
3	0	1.080448379249938E+003	2.3693973E-001	-2.7037677E+002
3	0	1.080948379237307E+003	2.3688126E-001	-2.7040155E+002
3	0	1.081448379224676E+003	2.3682109E-001	-2.7037677E+002
3	0	1.081948379212045E+003	2.3675948E-001	-2.7036267E+002
3	0	1.082448379199413E+003	2.3666959E-001	-2.7039093E+002
3	0	1.082948379186782E+003	2.3657916E-001	-2.7035913E+002
3	0	1.083448379174151E+003	2.3649958E-001	-2.7039447E+002
3	0	1.083948379161520E+003	2.3642254E-001	-2.7037677E+002
3	0	1.084448379148889E+003	2.3637481E-001	-2.7039447E+002
3	0	1.084948379136258E+003	2.3632689E-001	-2.7038742E+002
3	0	1.085448379123627E+003	2.3626630E-001	-2.7038742E+002
3	0	1.085948379110996E+003	2.3620141E-001	-2.7038031E+002
3	0	1.086448379098365E+003	2.3613666E-001	-2.7036618E+002
3	0	1.086948379085734E+003	2.3604904E-001	-2.7037677E+002
3	0	1.087448379073103E+003	2.3593561E-001	-2.7038742E+002
3	0	1.087948379060472E+003	2.3583297E-001	-2.7039093E+002
3	0	1.088448379047841E+003	2.3577665E-001	-2.7041214E+002
3	0	1.088948379035210E+003	2.3572448E-001	-2.7036972E+002
3	0	1.089448379022579E+003	2.3566413E-001	-2.7039801E+002
3	0	1.089948379009948E+003	2.3560116E-001	-2.7038031E+002
3	0	1.090448378997316E+003	2.3553546E-001	-2.7036972E+002
3	0	1.090948378984685E+003	2.3545583E-001	-2.7036972E+002
3	0	1.091448378972054E+003	2.3535480E-001	-2.7036267E+002
3	0	1.091948378959423E+003	2.3524994E-001	-2.7037326E+002
3	0	1.092448378946792E+003	2.3519796E-001	-2.7035559E+002
3	0	1.092948378934161E+003	2.3515031E-001	-2.7039447E+002
3	0	1.093448378921530E+003	2.3509517E-001	-2.7037677E+002
3	0	1.093948378908899E+003	2.3503749E-001	-2.7037326E+002
3	0	1.094448378896268E+003	2.3498082E-001	-2.7035205E+002
3	0	1.094948378883637E+003	2.3490551E-001	-2.7038742E+002
3	0	1.095448378871006E+003	2.3480166E-001	-2.7036267E+002
3	0	1.095948378858375E+003	2.3470452E-001	-2.7037326E+002
3	0	1.096448378845744E+003	2.3465665E-001	-2.7039093E+002
3	0	1.096948378833113E+003	2.3461334E-001	-2.7037326E+002
3	0	1.097448378820482E+003	2.3456210E-001	-2.7038742E+002
3	0	1.097948378807851E+003	2.3450795E-001	-2.7037677E+002
3	0	1.098448378795219E+003	2.3445418E-001	-2.7038031E+002
3	0	1.098948378782588E+003	2.3438589E-001	-2.7036267E+002
3	0	1.099448378769957E+003	2.3428768E-001	-2.7037677E+002
3	0	1.099948378757326E+003	2.3419726E-001	-2.7036267E+002
3	0	1.100448378744695E+003	2.3415348E-001	-2.7037677E+002
3	0	1.100948378732064E+003	2.3410936E-001	-2.7035913E+002
3	0	1.101448378719433E+003	2.3406127E-001	-2.7034497E+002
3	0	1.101948378706802E+003	2.3400907E-001	-2.7036267E+002
3	0	1.102448378694171E+003	2.3395248E-001	-2.7035913E+002
3	0	1.102948378681540E+003	2.3387799E-001	-2.7039093E+002
3	0	1.103448378668909E+003	2.3378666E-001	-2.7039447E+002
3	0	1.103948378656278E+003	2.3369271E-001	-2.7036618E+002
3	0	1.104448378643647E+003	2.3364654E-001	-2.7037677E+002
3	0	1.104948378631016E+003	2.3360108E-001	-2.7037677E+002
3	0	1.105448378618385E+003	2.3355174E-001	-2.7038742E+002
3	0	1.105948378605754E+003	2.3349835E-001	-2.7036972E+002
3	0	1.106448378593122E+003	2.3343922E-001	-2.7038031E+002
3	0	1.106948378580491E+003	2.3336715E-001	-2.7038385E+002
3	0	1.107448378567860E+003	2.3327389E-001	-2.7039447E+002
3	0	1.107948378555229E+003	2.3318072E-001	-2.7036618E+002
3	0	1.108448378542598E+003	2.3313320E-001	-2.7038742E+002
3	0	1.108948378529967E+003	2.3309000E-001	-2.7036972E+002
3	0	1.109448378517336E+003	2.3304284E-001	-2.7039093E+002
3	0	1.109948378504705E+003	2.3299243E-001	-2.7038385E+002
3	0	1.110448378492074E+003	2.3294105E-001	-2.7035559E+002
3	0	1.110948378479443E+003	2.3287098E-001	-2.7039801E+002
3	0	1.111448378466812E+003	2.3278420E-001	-2.7036618E+002
3	0	1.111948378454181E+003	2.3269230E-001	-2.7036618E+002
3	0	1.112448378441550E+003	2.3264836E-001	-2.7038031E+002
3	0	1.112948378428919E+003	2.3260787E-001	-2.7038742E+002
3	0	1.113448378416288E+003	2.3256461E-001	-2.7038385E+002
3	0	1.113948378403657E+003	2.3251852E-001	-2.7041568E+002
3	0	1.114448378391025E+003	2.3246343E-001	-2.7038385E+002
3	0	1.114948378378394E+003	2.3240189E-001	-2.7037677E+002
3	0	1.115448378365763E+003	2.3231371E-001	-2.7037326E+002
3	0	1.115948378353132E+003	2.3222896E-001	-2.7036972E+002
3	0	1.116448378340501E+003	2.3218694E-001	-2.7038385E+002
3	0	1.116948378327870E+003	2.3215523E-001	-2.7037326E+002
3	0	1.117448378315239E+003	2.3210922E-001	-2.7036267E+002
3	0	1.117948378302608E+003	2.3206788E-001	-2.7037677E+002
3	0	1.118448378289977E+003	2.3202579E-001	-2.7038742E+002
3	0	1.118948378277346E+003	2.3196556E-001	-2.7038031E+002
3	0	1.119448378264715E+003	2.3187691E-001	-2.7037326E+002
3	0	1.119948378252084E+003	2.3178576E-001	-2.7035559E+002
3	0	1.120448378239453E+003	2.3174810E-001	-2.7035913E+002
3	0	1.120948378226822E+003	2.3171701E-001	-2.7038031E+002
3	0	1.121448378214191E+003	2.3167819E-001	-2.7040155E+002
3	0	1.121948378201560E+003	2.3163365E-001	-2.7039801E+002
3	0	1.122448378188928E+003	2.3159009E-001	-2.7040155E+002
3	0	1.122948378176297E+003	2.3152900E-001	-2.7038742E+002
3	0	1.123448378163666E+003	2.3144472E-001	-2.7036972E+002
3	0	1.123948378151035E+003	2.3135450E-001	-2.7038385E+002
3	0	1.124448378138404E+003	2.3131631E-001	-2.7038031E+002
3	0	1.124948378125773E+003	2.3128681E-001	-2.7041919E+002
3	0	1.124948778125763E+003	2.3132327E-001	-2.7038385E+002