EC-Lab ASCII FILE
Nb header lines : 55                          

Open Circuit Voltage

Run on channel : 1 (SN 81504)
User : 
CE vs. WE compliance from -10 V to 10 V
Electrode connection : standard
Potential control : Ewe
Ewe ctrl range : min = -2.50 V, max = 2.50 V
Safety Limits :
	Do not start on E overload
Acquisition started on : 05/07/2026 19:49:57.838
Loaded Setting File :  C:\PEM-WE_measurements\2026\372_IV_IV IrOx, 5 min Pt, 30 min C, etched cathode\new station\Loopeis new\1,46 V different time gaps open cell\Loopeis 1,46V_90s_5_PEIS from 65Hz to 10Hz.mps
Saved on :
	File : L_20_Loopeis 1,46V_90s_5_PEIS from 65Hz to 10Hz_08_OCV_C01.mpr
	Directory : C:\PEM-WE_measurements\2026\372_IV_IV IrOx, 5 min Pt, 30 min C, etched cathode\new station\Loopeis new\1,46 V different time gaps open cell\
	Host : 192.168.0.2
Device : SP-150e (SN .005491)
Address : 192.168.0.91
EC-LAB for windows v11.71 (software)
Internet server v28.00 (firmware)
Command interpretor v14.01 (firmware)
Electrode material : 
Initial state : 
Electrolyte : 
Comments : 
Current amplifier : SP-150eB-20A
Electrode surface area : 0.001 cm²
Characteristic mass : 0.001 g
Equivalent Weight : 0.000 g/eq.
Density : 0.000 g/cm3
Volume (V) : 0.001 cm³
Record Analogic IN 1
Text export
   Mode : Standard
   Time format : Elapsed
Cycle Definition : Charge/Discharge alternance
External device configuration :
   device type : Temperature Probe
   device name : Other
   Analog IN 1 : 
      unit : T/Â°C
      max : 100.000 at 2.000 V
      min : 0.000 at 1.460 V
tR (h:m:s)          0:01:30.0000        
dER/dt (mV/h)       1.0                 
record              <Ewe>               
dER (mV)            10.00               
dtR (s)             0.5000              
E range min (V)     -2.500              
E range max (V)     2.500               

mode	error	time/s	<Ewe/V>	Analog IN 1/V	
3	0	8.910694160951971E+002	1.2635561E+000	-2.7038742E+002
3	0	8.915694160825660E+002	1.2465850E+000	-2.7038742E+002
3	0	8.920694160699350E+002	1.1687274E+000	-2.7037677E+002
3	0	8.925694160573039E+002	9.4118732E-001	-2.7036267E+002
3	0	8.930694160446728E+002	4.8115075E-001	-2.7038742E+002
3	0	8.935694160320418E+002	3.4130350E-001	-2.7037326E+002
3	0	8.940694160194107E+002	3.2437158E-001	-2.7037326E+002
3	0	8.945694160067796E+002	3.1624010E-001	-2.7038031E+002
3	0	8.950694159941486E+002	3.0956498E-001	-2.7038031E+002
3	0	8.955694159815175E+002	3.0442014E-001	-2.7036972E+002
3	0	8.960694159688865E+002	3.0050412E-001	-2.7037677E+002
3	0	8.965694159562554E+002	2.9746419E-001	-2.7038742E+002
3	0	8.970694159436243E+002	2.9503402E-001	-2.7036267E+002
3	0	8.975694159309933E+002	2.9304817E-001	-2.7036267E+002
3	0	8.980694159183622E+002	2.9140347E-001	-2.7039093E+002
3	0	8.985694159057311E+002	2.9000664E-001	-2.7037677E+002
3	0	8.990694158931001E+002	2.8879514E-001	-2.7038742E+002
3	0	8.995694158804690E+002	2.8771123E-001	-2.7039447E+002
3	0	9.000694158678380E+002	2.8672802E-001	-2.7038742E+002
3	0	9.005694158552069E+002	2.8581664E-001	-2.7037677E+002
3	0	9.010694158425758E+002	2.8493872E-001	-2.7037326E+002
3	0	9.015694158299448E+002	2.8410685E-001	-2.7037677E+002
3	0	9.020694158173137E+002	2.8335270E-001	-2.7037326E+002
3	0	9.025694158046826E+002	2.8264967E-001	-2.7035913E+002
3	0	9.030694157920516E+002	2.8197876E-001	-2.7037326E+002
3	0	9.035694157794205E+002	2.8132030E-001	-2.7039447E+002
3	0	9.040694157667895E+002	2.8069133E-001	-2.7038031E+002
3	0	9.045694157541584E+002	2.8006402E-001	-2.7037677E+002
3	0	9.050694157415273E+002	2.7942905E-001	-2.7038742E+002
3	0	9.055694157288963E+002	2.7879968E-001	-2.7038031E+002
3	0	9.060694157162652E+002	2.7821392E-001	-2.7038031E+002
3	0	9.065694157036341E+002	2.7765259E-001	-2.7037326E+002
3	0	9.070694156910031E+002	2.7709725E-001	-2.7038385E+002
3	0	9.075694156783720E+002	2.7654111E-001	-2.7037677E+002
3	0	9.080694156657410E+002	2.7599895E-001	-2.7035913E+002
3	0	9.085694156531099E+002	2.7544668E-001	-2.7037677E+002
3	0	9.090694156404788E+002	2.7488351E-001	-2.7040155E+002
3	0	9.095694156278478E+002	2.7432042E-001	-2.7037326E+002
3	0	9.100694156152167E+002	2.7379557E-001	-2.7040155E+002
3	0	9.105694156025857E+002	2.7328217E-001	-2.7037677E+002
3	0	9.110694155899546E+002	2.7277458E-001	-2.7040155E+002
3	0	9.115694155773235E+002	2.7227673E-001	-2.7039093E+002
3	0	9.120694155646925E+002	2.7177924E-001	-2.7038385E+002
3	0	9.125694155520614E+002	2.7126935E-001	-2.7038385E+002
3	0	9.130694155394303E+002	2.7074677E-001	-2.7038031E+002
3	0	9.135694155267993E+002	2.7021125E-001	-2.7038031E+002
3	0	9.140694155141682E+002	2.6972657E-001	-2.7037326E+002
3	0	9.145694155015372E+002	2.6925981E-001	-2.7038742E+002
3	0	9.150694154889061E+002	2.6878887E-001	-2.7036267E+002
3	0	9.155694154762750E+002	2.6832122E-001	-2.7036267E+002
3	0	9.160694154636440E+002	2.6784977E-001	-2.7038031E+002
3	0	9.165694154510129E+002	2.6737761E-001	-2.7036618E+002
3	0	9.170694154383818E+002	2.6688927E-001	-2.7039093E+002
3	0	9.175694154257508E+002	2.6639199E-001	-2.7039447E+002
3	0	9.180694154131197E+002	2.6593798E-001	-2.7038031E+002
3	0	9.185694154004887E+002	2.6550001E-001	-2.7038385E+002
3	0	9.190694153878576E+002	2.6505339E-001	-2.7036618E+002
3	0	9.195694153752265E+002	2.6461890E-001	-2.7040506E+002
3	0	9.200694153625955E+002	2.6418251E-001	-2.7037326E+002
3	0	9.205694153499644E+002	2.6374424E-001	-2.7041214E+002
3	0	9.210694153373333E+002	2.6328319E-001	-2.7038385E+002
3	0	9.215694153247023E+002	2.6281208E-001	-2.7037677E+002
3	0	9.220694153120712E+002	2.6238790E-001	-2.7037326E+002
3	0	9.225694152994402E+002	2.6197398E-001	-2.7037677E+002
3	0	9.230694152868091E+002	2.6156166E-001	-2.7040506E+002
3	0	9.235694152741780E+002	2.6115426E-001	-2.7039093E+002
3	0	9.240694152615470E+002	2.6074743E-001	-2.7036267E+002
3	0	9.245694152489159E+002	2.6033497E-001	-2.7038385E+002
3	0	9.250694152362848E+002	2.5990489E-001	-2.7037326E+002
3	0	9.255694152236538E+002	2.5948134E-001	-2.7037677E+002
3	0	9.260694152110227E+002	2.5909400E-001	-2.7036267E+002
3	0	9.265694151983917E+002	2.5872073E-001	-2.7039447E+002
3	0	9.270694151857606E+002	2.5833836E-001	-2.7037326E+002
3	0	9.275694151731295E+002	2.5796455E-001	-2.7038742E+002
3	0	9.280694151604985E+002	2.5758797E-001	-2.7034851E+002
3	0	9.285694151478674E+002	2.5721452E-001	-2.7038031E+002
3	0	9.290694151352363E+002	2.5681579E-001	-2.7035559E+002
3	0	9.295694151226053E+002	2.5641373E-001	-2.7036618E+002
3	0	9.300694151099742E+002	2.5605127E-001	-2.7039447E+002
3	0	9.305694150973432E+002	2.5570831E-001	-2.7037677E+002
3	0	9.310694150847121E+002	2.5536004E-001	-2.7038742E+002
3	0	9.315694150720810E+002	2.5501058E-001	-2.7037677E+002
3	0	9.320694150594500E+002	2.5467047E-001	-2.7040860E+002
3	0	9.325694150468189E+002	2.5432408E-001	-2.7036267E+002
3	0	9.330694150341878E+002	2.5395596E-001	-2.7037326E+002
3	0	9.335694150215568E+002	2.5358510E-001	-2.7039447E+002
3	0	9.340694150089257E+002	2.5325519E-001	-2.7038031E+002
3	0	9.345694149962947E+002	2.5294134E-001	-2.7036972E+002
3	0	9.350694149836636E+002	2.5262177E-001	-2.7040506E+002
3	0	9.355694149710325E+002	2.5230753E-001	-2.7038385E+002
3	0	9.360694149584015E+002	2.5199267E-001	-2.7040506E+002
3	0	9.365694149457704E+002	2.5166720E-001	-2.7038742E+002
3	0	9.370694149331393E+002	2.5132504E-001	-2.7039801E+002
3	0	9.375694149205083E+002	2.5098068E-001	-2.7038742E+002
3	0	9.380694149078772E+002	2.5068015E-001	-2.7037677E+002
3	0	9.385694148952462E+002	2.5039253E-001	-2.7038742E+002
3	0	9.390694148826151E+002	2.5010094E-001	-2.7038031E+002
3	0	9.395694148699840E+002	2.4981415E-001	-2.7035913E+002
3	0	9.400694148573530E+002	2.4952772E-001	-2.7035559E+002
3	0	9.405694148447219E+002	2.4923158E-001	-2.7037326E+002
3	0	9.410694148320908E+002	2.4891515E-001	-2.7036972E+002
3	0	9.415694148194598E+002	2.4859606E-001	-2.7037326E+002
3	0	9.420694148068287E+002	2.4831773E-001	-2.7036267E+002
3	0	9.425694147941977E+002	2.4805568E-001	-2.7034851E+002
3	0	9.430694147815666E+002	2.4778792E-001	-2.7038031E+002
3	0	9.435694147689355E+002	2.4752183E-001	-2.7036972E+002
3	0	9.440694147563045E+002	2.4725941E-001	-2.7037677E+002
3	0	9.445694147436734E+002	2.4698268E-001	-2.7037326E+002
3	0	9.450694147310423E+002	2.4670027E-001	-2.7035913E+002
3	0	9.455694147184113E+002	2.4641298E-001	-2.7036267E+002
3	0	9.460694147057802E+002	2.4616195E-001	-2.7037326E+002
3	0	9.465694146931492E+002	2.4592432E-001	-2.7038385E+002
3	0	9.470694146805181E+002	2.4569015E-001	-2.7036972E+002
3	0	9.475694146678870E+002	2.4545278E-001	-2.7035559E+002
3	0	9.480694146552560E+002	2.4521703E-001	-2.7037326E+002
3	0	9.485694146426249E+002	2.4496172E-001	-2.7036618E+002
3	0	9.490694146299938E+002	2.4468365E-001	-2.7038742E+002
3	0	9.495694146173628E+002	2.4440958E-001	-2.7039093E+002
3	0	9.500694146047317E+002	2.4417962E-001	-2.7040155E+002
3	0	9.505694145921007E+002	2.4396378E-001	-2.7041214E+002
3	0	9.510694145794696E+002	2.4373934E-001	-2.7040155E+002
3	0	9.515694145668385E+002	2.4351893E-001	-2.7039801E+002
3	0	9.520694145542075E+002	2.4330153E-001	-2.7036972E+002
3	0	9.525694145415764E+002	2.4307692E-001	-2.7037326E+002
3	0	9.530694145289453E+002	2.4283062E-001	-2.7038742E+002
3	0	9.535694145163143E+002	2.4257740E-001	-2.7035913E+002
3	0	9.540694145036832E+002	2.4236481E-001	-2.7039093E+002
3	0	9.545694144910522E+002	2.4216883E-001	-2.7040155E+002
3	0	9.550694144784211E+002	2.4197198E-001	-2.7035205E+002
3	0	9.555694144657900E+002	2.4176969E-001	-2.7037326E+002
3	0	9.560694144531590E+002	2.4156983E-001	-2.7039093E+002
3	0	9.565694144405279E+002	2.4135922E-001	-2.7038742E+002
3	0	9.570694144278968E+002	2.4112572E-001	-2.7039447E+002
3	0	9.575694144152658E+002	2.4089974E-001	-2.7035205E+002
3	0	9.580694144026347E+002	2.4071510E-001	-2.7036618E+002
3	0	9.585694143900037E+002	2.4053605E-001	-2.7038031E+002
3	0	9.590694143773726E+002	2.4035528E-001	-2.7040155E+002
3	0	9.595694143647415E+002	2.4017340E-001	-2.7036972E+002
3	0	9.600694143521105E+002	2.3999113E-001	-2.7039801E+002
3	0	9.605694143394794E+002	2.3980045E-001	-2.7038031E+002
3	0	9.610694143268483E+002	2.3958702E-001	-2.7035913E+002
3	0	9.615694143142173E+002	2.3936242E-001	-2.7037326E+002
3	0	9.620694143015862E+002	2.3918188E-001	-2.7038385E+002
3	0	9.625694142889552E+002	2.3902237E-001	-2.7038385E+002
3	0	9.630694142763241E+002	2.3885494E-001	-2.7037677E+002
3	0	9.635694142636930E+002	2.3868148E-001	-2.7039093E+002
3	0	9.640694142510620E+002	2.3851620E-001	-2.7038031E+002
3	0	9.645694142384309E+002	2.3834337E-001	-2.7036972E+002
3	0	9.650694142257998E+002	2.3815030E-001	-2.7037677E+002
3	0	9.655694142131688E+002	2.3794612E-001	-2.7035559E+002
3	0	9.660694142005377E+002	2.3779032E-001	-2.7037326E+002
3	0	9.665694141879067E+002	2.3764847E-001	-2.7037326E+002
3	0	9.670694141752756E+002	2.3749286E-001	-2.7037677E+002
3	0	9.675694141626445E+002	2.3733740E-001	-2.7037677E+002
3	0	9.680694141500135E+002	2.3718849E-001	-2.7036972E+002
3	0	9.685694141373824E+002	2.3702516E-001	-2.7037326E+002
3	0	9.690694141247513E+002	2.3685035E-001	-2.7036267E+002
3	0	9.695694141121203E+002	2.3666553E-001	-2.7038031E+002
3	0	9.700694140994892E+002	2.3652564E-001	-2.7034851E+002
3	0	9.705694140868582E+002	2.3639259E-001	-2.7039447E+002
3	0	9.710694140742271E+002	2.3625626E-001	-2.7039447E+002
3	0	9.715694140615960E+002	2.3611520E-001	-2.7037677E+002
3	0	9.720694140489650E+002	2.3597647E-001	-2.7037326E+002
3	0	9.725694140363339E+002	2.3582625E-001	-2.7039093E+002
3	0	9.730694140237028E+002	2.3566039E-001	-2.7038742E+002
3	0	9.735694140110718E+002	2.3548791E-001	-2.7038742E+002
3	0	9.740694139984407E+002	2.3535618E-001	-2.7037677E+002
3	0	9.745694139858097E+002	2.3523358E-001	-2.7037326E+002
3	0	9.750694139731786E+002	2.3510273E-001	-2.7036972E+002
3	0	9.755694139605475E+002	2.3497073E-001	-2.7039093E+002
3	0	9.760694139479165E+002	2.3484196E-001	-2.7036618E+002
3	0	9.765694139352854E+002	2.3470174E-001	-2.7037677E+002
3	0	9.770694139226543E+002	2.3454119E-001	-2.7038031E+002
3	0	9.775694139100233E+002	2.3437977E-001	-2.7038742E+002
3	0	9.780694138973922E+002	2.3425721E-001	-2.7038742E+002
3	0	9.785694138847612E+002	2.3414515E-001	-2.7039093E+002
3	0	9.790694138721301E+002	2.3403057E-001	-2.7038742E+002
3	0	9.795694138594990E+002	2.3390968E-001	-2.7036618E+002
3	0	9.800694138468680E+002	2.3378399E-001	-2.7036972E+002
3	0	9.805694138342369E+002	2.3364997E-001	-2.7036972E+002
3	0	9.805928138336458E+002	2.3355813E-001	-2.7036618E+002