EC-Lab ASCII FILE
Nb header lines : 48                          

Open Circuit Voltage

Run on channel : 1 (SN 81504)
User : 
CE vs. WE compliance from -10 V to 10 V
Electrode connection : standard
Potential control : Ewe
Ewe ctrl range : min = -2.50 V, max = 2.50 V
Safety Limits :
	Do not start on E overload
Acquisition started on : 05/10/2026 05:54:37.151
Loaded Setting File :  C:\PEM-WE_measurements\2026\372_IV_IV IrOx, 5 min Pt, 30 min C, etched cathode\new station\Loopeis new\1,46 V different time gaps closed cell\Loopeis 1,46V_120s_2_PEIS from 65kHz to 10kHz.mps
Saved on :
	File : L_22_Loopeis 1,46V_120s_2_PEIS from 65kHz to 10kHz_16_OCV_C01.mpr
	Directory : C:\PEM-WE_measurements\2026\372_IV_IV IrOx, 5 min Pt, 30 min C, etched cathode\new station\Loopeis new\1,46 V different time gaps closed cell\
	Host : 192.168.0.2
Device : SP-150e (SN .005491)
Address : 192.168.0.91
EC-LAB for windows v11.71 (software)
Internet server v28.00 (firmware)
Command interpretor v14.01 (firmware)
Electrode material : 
Initial state : 
Electrolyte : 
Comments : 
Current amplifier : SP-150eB-20A
Electrode surface area : 0.001 cm²
Characteristic mass : 0.001 g
Equivalent Weight : 0.000 g/eq.
Density : 0.000 g/cm3
Volume (V) : 0.001 cm³
Record Analogic IN 1
Text export
   Mode : Standard
   Time format : Elapsed
Cycle Definition : Charge/Discharge alternance
tR (h:m:s)          0:02:0.0000         
dER/dt (mV/h)       1.0                 
record              <Ewe>               
dER (mV)            10.00               
dtR (s)             0.5000              
E range min (V)     -2.500              
E range max (V)     2.500               

mode	error	time/s	<Ewe/V>	Analog IN 1/V	
3	0	1.202410382862363E+003	1.1224118E+000	3.8648941E-006
3	0	1.202910382849732E+003	1.2592552E+000	-3.4306191E-005
3	0	1.203410382837101E+003	1.2578286E+000	-1.5220648E-005
3	0	1.203910382824470E+003	1.2515602E+000	-3.4306191E-005
3	0	1.204410382811839E+003	1.2387601E+000	-3.4306191E-005
3	0	1.204910382799208E+003	1.2164018E+000	3.8648941E-006
3	0	1.205410382786577E+003	1.1796319E+000	-1.1064836E-004
3	0	1.205910382773945E+003	1.1164038E+000	-3.4306191E-005
3	0	1.206410382761314E+003	9.6781880E-001	-1.5220648E-005
3	0	1.206910382748683E+003	6.2951660E-001	-2.8241824E-004
3	0	1.207410382736052E+003	4.6636119E-001	-1.4881945E-004
3	0	1.207910382723421E+003	4.1027853E-001	-3.4306191E-005
3	0	1.208410382710790E+003	3.9452454E-001	-7.2477276E-005
3	0	1.208910382698159E+003	3.8910180E-001	-7.2477276E-005
3	0	1.209410382685528E+003	3.8600436E-001	-3.4306191E-005
3	0	1.209910382672897E+003	3.8344720E-001	-1.1064836E-004
3	0	1.210410382660266E+003	3.8119543E-001	6.1121522E-005
3	0	1.210910382647635E+003	3.7908190E-001	-1.2973390E-004
3	0	1.211410382635004E+003	3.7702227E-001	-5.3391734E-005
3	0	1.211910382622373E+003	3.7553599E-001	-3.4306191E-005
3	0	1.212410382609742E+003	3.7497824E-001	6.1121522E-005
3	0	1.212910382597111E+003	3.7424368E-001	-9.1562819E-005
3	0	1.213410382584480E+003	3.7365568E-001	-1.4881945E-004
3	0	1.213910382571848E+003	3.7311539E-001	-5.3391734E-005
3	0	1.214410382559217E+003	3.7263778E-001	4.2035979E-005
3	0	1.214910382546586E+003	3.7207767E-001	3.8648941E-006
3	0	1.215410382533955E+003	3.7151116E-001	-9.1562819E-005
3	0	1.215910382521324E+003	3.7142056E-001	-1.8699054E-004
3	0	1.216410382508693E+003	3.7208435E-001	-1.5220648E-005
3	0	1.216910382496062E+003	3.7258509E-001	-3.4306191E-005
3	0	1.217410382483431E+003	3.7318262E-001	-1.5220648E-005
3	0	1.217910382470800E+003	3.7382013E-001	-3.4306191E-005
3	0	1.218410382458169E+003	3.7450823E-001	3.8648941E-006
3	0	1.218910382445538E+003	3.7503836E-001	4.2035979E-005
3	0	1.219410382432907E+003	3.7530035E-001	-9.1562819E-005
3	0	1.219910382420276E+003	3.7577340E-001	3.8648941E-006
3	0	1.220410382407645E+003	3.7679610E-001	2.2950437E-005
3	0	1.220910382395014E+003	3.7745503E-001	3.8648941E-006
3	0	1.221410382382383E+003	3.7804073E-001	3.8648941E-006
3	0	1.221910382369751E+003	3.7850755E-001	-1.1064836E-004
3	0	1.222410382357120E+003	3.7896356E-001	-7.2477276E-005
3	0	1.222910382344489E+003	3.7913063E-001	-1.5220648E-005
3	0	1.223410382331858E+003	3.7910634E-001	-5.3391734E-005
3	0	1.223910382319227E+003	3.7926140E-001	-9.1562819E-005
3	0	1.224410382306596E+003	3.7995869E-001	-9.1562819E-005
3	0	1.224910382293965E+003	3.8035524E-001	-3.4306191E-005
3	0	1.225410382281334E+003	3.8069901E-001	8.0207064E-005
3	0	1.225910382268703E+003	3.8092822E-001	-1.5220648E-005
3	0	1.226410382256072E+003	3.8105327E-001	-1.6790499E-004
3	0	1.226910382243441E+003	3.8097924E-001	-1.1064836E-004
3	0	1.227410382230810E+003	3.8067511E-001	-7.2477276E-005
3	0	1.227910382218179E+003	3.8057667E-001	-1.2973390E-004
3	0	1.228410382205548E+003	3.8103166E-001	-3.4306191E-005
3	0	1.228910382192917E+003	3.8119301E-001	4.2035979E-005
3	0	1.229410382180286E+003	3.8128510E-001	-1.6790499E-004
3	0	1.229910382167654E+003	3.8126212E-001	-3.4306191E-005
3	0	1.230410382155023E+003	3.8116050E-001	-5.3391734E-005
3	0	1.230910382142392E+003	3.8089618E-001	-7.2477276E-005
3	0	1.231410382129761E+003	3.8040477E-001	-2.0607607E-004
3	0	1.231910382117130E+003	3.8004580E-001	-2.0607607E-004
3	0	1.232410382104499E+003	3.8024238E-001	9.9292607E-005
3	0	1.232910382091868E+003	3.8020870E-001	-7.2477276E-005
3	0	1.233410382079237E+003	3.8013613E-001	-1.1064836E-004
3	0	1.233910382066606E+003	3.7996891E-001	-1.1064836E-004
3	0	1.234410382053975E+003	3.7972245E-001	-3.4306191E-005
3	0	1.234910382041344E+003	3.7937605E-001	6.1121522E-005
3	0	1.235410382028713E+003	3.7894022E-001	-3.4306191E-005
3	0	1.235910382016082E+003	3.7876037E-001	-1.4881945E-004
3	0	1.236410382003451E+003	3.7925789E-001	-2.6333271E-004
3	0	1.236910381990820E+003	3.7967256E-001	-1.5220648E-005
3	0	1.237410381978189E+003	3.8014042E-001	-9.1562819E-005
3	0	1.237910381965557E+003	3.8066015E-001	-3.4306191E-005
3	0	1.238410381952926E+003	3.8118434E-001	3.8648941E-006
3	0	1.238910381940295E+003	3.8144135E-001	-5.3391734E-005
3	0	1.239410381927664E+003	3.8154712E-001	1.5654923E-004
3	0	1.239910381915033E+003	3.8184524E-001	-9.1562819E-005
3	0	1.240410381902402E+003	3.8257527E-001	-3.4306191E-005
3	0	1.240910381889771E+003	3.8297778E-001	-1.5220648E-005
3	0	1.241410381877140E+003	3.8336229E-001	2.2950437E-005
3	0	1.241910381864509E+003	3.8357610E-001	-7.2477276E-005
3	0	1.242410381851878E+003	3.8371435E-001	-1.1064836E-004
3	0	1.242910381839247E+003	3.8366181E-001	2.2950437E-005
3	0	1.243410381826616E+003	3.8336426E-001	-3.4306191E-005
3	0	1.243910381813985E+003	3.8323134E-001	-3.4306191E-005
3	0	1.244410381801354E+003	3.8356957E-001	-1.5220648E-005
3	0	1.244910381788723E+003	3.8361400E-001	-1.5220648E-005
3	0	1.245410381776092E+003	3.8361433E-001	-3.4306191E-005
3	0	1.245910381763460E+003	3.8350332E-001	2.2950437E-005
3	0	1.246410381750829E+003	3.8330904E-001	4.2035979E-005
3	0	1.246910381738198E+003	3.8292369E-001	4.2035979E-005
3	0	1.247410381725567E+003	3.8230550E-001	-1.5220648E-005
3	0	1.247910381712936E+003	3.8183340E-001	-1.2973390E-004
3	0	1.248410381700305E+003	3.8187164E-001	-7.2477276E-005
3	0	1.248910381687674E+003	3.8166073E-001	-3.4306191E-005
3	0	1.249410381675043E+003	3.8142401E-001	-1.5220648E-005
3	0	1.249910381662412E+003	3.8103527E-001	-1.2973390E-004
3	0	1.250410381649781E+003	3.8060188E-001	-1.4881945E-004
3	0	1.250910381637150E+003	3.7998942E-001	-5.3391734E-005
3	0	1.251410381624519E+003	3.7921986E-001	3.8648941E-006
3	0	1.251910381611888E+003	3.7867987E-001	-5.3391734E-005
3	0	1.252410381599257E+003	3.7860793E-001	-9.1562819E-005
3	0	1.252910381586626E+003	3.7830493E-001	-3.4306191E-005
3	0	1.253410381573995E+003	3.7798452E-001	-1.2973390E-004
3	0	1.253910381561363E+003	3.7757260E-001	2.2950437E-005
3	0	1.254410381548732E+003	3.7711143E-001	-5.3391734E-005
3	0	1.254910381536101E+003	3.7655130E-001	-1.5220648E-005
3	0	1.255410381523470E+003	3.7587929E-001	8.0207064E-005
3	0	1.255910381510839E+003	3.7549442E-001	3.8648941E-006
3	0	1.256410381498208E+003	3.7568355E-001	-1.5220648E-005
3	0	1.256910381485577E+003	3.7576368E-001	-1.1064836E-004
3	0	1.257410381472946E+003	3.7593740E-001	-1.8699054E-004
3	0	1.257910381460315E+003	3.7614051E-001	-5.3391734E-005
3	0	1.258410381447684E+003	3.7634280E-001	-5.3391734E-005
3	0	1.258910381435053E+003	3.7643421E-001	-1.5220648E-005
3	0	1.259410381422422E+003	3.7636214E-001	-1.8699054E-004
3	0	1.259910381409791E+003	3.7640417E-001	-1.5220648E-005
3	0	1.260410381397160E+003	3.7684545E-001	-3.4306191E-005
3	0	1.260910381384529E+003	3.7703398E-001	-1.1064836E-004
3	0	1.261410381371898E+003	3.7714559E-001	6.1121522E-005
3	0	1.261910381359266E+003	3.7719509E-001	-1.5220648E-005
3	0	1.262410381346635E+003	3.7710044E-001	-1.5220648E-005
3	0	1.262910381334004E+003	3.7660292E-001	-5.3391734E-005
3	0	1.263410381321373E+003	3.7631369E-001	3.8648941E-006
3	0	1.263910381308742E+003	3.7627384E-001	-1.1064836E-004
3	0	1.264410381296111E+003	3.7644768E-001	3.8648941E-006
3	0	1.264910381283480E+003	3.7638378E-001	-3.4306191E-005
3	0	1.265410381270849E+003	3.7611425E-001	2.2950437E-005
3	0	1.265910381258218E+003	3.7584943E-001	-2.4424717E-004
3	0	1.266410381245587E+003	3.7553698E-001	2.2950437E-005
3	0	1.266910381232956E+003	3.7503600E-001	-7.2477276E-005
3	0	1.267410381220325E+003	3.7433609E-001	4.2035979E-005
3	0	1.267910381207694E+003	3.7387639E-001	3.8648941E-006
3	0	1.268410381195063E+003	3.7391797E-001	-1.1064836E-004
3	0	1.268910381182432E+003	3.7379208E-001	-1.1064836E-004
3	0	1.269410381169801E+003	3.7345615E-001	-1.4881945E-004
3	0	1.269910381157169E+003	3.7306207E-001	4.2035979E-005
3	0	1.270410381144538E+003	3.7267548E-001	-7.2477276E-005
3	0	1.270910381131907E+003	3.7207589E-001	4.2035979E-005
3	0	1.271410381119276E+003	3.7135297E-001	-5.3391734E-005
3	0	1.271910381106645E+003	3.7079659E-001	-5.3391734E-005
3	0	1.272410381094014E+003	3.7070194E-001	-1.2973390E-004
3	0	1.272910381081383E+003	3.7051985E-001	3.8648941E-006
3	0	1.273410381068752E+003	3.7014753E-001	-1.5220648E-005
3	0	1.273910381056121E+003	3.6972243E-001	6.1121522E-005
3	0	1.274410381043490E+003	3.6923227E-001	3.8648941E-006
3	0	1.274910381030859E+003	3.6861956E-001	4.2035979E-005
3	0	1.275410381018228E+003	3.6798900E-001	2.2950437E-005
3	0	1.275910381005597E+003	3.6760688E-001	-1.5220648E-005
3	0	1.276410380992966E+003	3.6775506E-001	-1.5220648E-005
3	0	1.276910380980335E+003	3.6787829E-001	-7.2477276E-005
3	0	1.277410380967704E+003	3.6787680E-001	-3.4306191E-005
3	0	1.277910380955072E+003	3.6798337E-001	-5.3391734E-005
3	0	1.278410380942441E+003	3.6811808E-001	-1.1064836E-004
3	0	1.278910380929810E+003	3.6815852E-001	-9.1562819E-005
3	0	1.279410380917179E+003	3.6797711E-001	-1.1064836E-004
3	0	1.279910380904548E+003	3.6790201E-001	6.1121522E-005
3	0	1.280410380891917E+003	3.6824530E-001	-5.3391734E-005
3	0	1.280910380879286E+003	3.6844248E-001	-5.3391734E-005
3	0	1.281410380866655E+003	3.6843047E-001	4.2035979E-005
3	0	1.281910380854024E+003	3.6831442E-001	-1.1064836E-004
3	0	1.282410380841393E+003	3.6814862E-001	-9.1562819E-005
3	0	1.282910380828762E+003	3.6786702E-001	-3.4306191E-005
3	0	1.283410380816131E+003	3.6741188E-001	-1.1064836E-004
3	0	1.283910380803500E+003	3.6706835E-001	8.0207064E-005
3	0	1.284410380790869E+003	3.6713004E-001	2.2950437E-005
3	0	1.284910380778238E+003	3.6709169E-001	-7.2477276E-005
3	0	1.285410380765607E+003	3.6686411E-001	-1.2973390E-004
3	0	1.285910380752975E+003	3.6656380E-001	-5.3391734E-005
3	0	1.286410380740344E+003	3.6625651E-001	-1.1064836E-004
3	0	1.286910380727713E+003	3.6580604E-001	-7.2477276E-005
3	0	1.287410380715082E+003	3.6519411E-001	4.2035979E-005
3	0	1.287910380702451E+003	3.6474952E-001	-9.1562819E-005
3	0	1.288410380689820E+003	3.6469269E-001	-7.2477276E-005
3	0	1.288910380677189E+003	3.6451608E-001	4.2035979E-005
3	0	1.289410380664558E+003	3.6422041E-001	-5.3391734E-005
3	0	1.289910380651927E+003	3.6388510E-001	-1.6790499E-004
3	0	1.290410380639296E+003	3.6348152E-001	-9.1562819E-005
3	0	1.290910380626665E+003	3.6298349E-001	-7.2477276E-005
3	0	1.291410380614034E+003	3.6235204E-001	6.1121522E-005
3	0	1.291910380601403E+003	3.6184141E-001	-9.1562819E-005
3	0	1.292410380588772E+003	3.6175841E-001	8.0207064E-005
3	0	1.292910380576141E+003	3.6160150E-001	-7.2477276E-005
3	0	1.293410380563510E+003	3.6126620E-001	9.9292607E-005
3	0	1.293910380550878E+003	3.6087930E-001	-7.2477276E-005
3	0	1.294410380538247E+003	3.6047491E-001	-1.4881945E-004
3	0	1.294910380525616E+003	3.5998344E-001	3.8648941E-006
3	0	1.295410380512985E+003	3.5941643E-001	3.8648941E-006
3	0	1.295910380500354E+003	3.5898691E-001	-5.3391734E-005
3	0	1.296410380487723E+003	3.5904208E-001	-1.6790499E-004
3	0	1.296910380475092E+003	3.5910743E-001	2.2950437E-005
3	0	1.297410380462461E+003	3.5912004E-001	-1.1064836E-004
3	0	1.297910380449830E+003	3.5916331E-001	6.1121522E-005
3	0	1.298410380437199E+003	3.5926014E-001	-1.2973390E-004
3	0	1.298910380424568E+003	3.5925665E-001	-1.1064836E-004
3	0	1.299410380411937E+003	3.5911351E-001	-9.1562819E-005
3	0	1.299910380399306E+003	3.5907394E-001	-9.1562819E-005
3	0	1.300410380386675E+003	3.5937795E-001	-3.4306191E-005
3	0	1.300910380374044E+003	3.5959169E-001	-9.1562819E-005
3	0	1.301410380361413E+003	3.5960099E-001	2.2950437E-005
3	0	1.301910380348781E+003	3.5954490E-001	-7.2477276E-005
3	0	1.302410380336150E+003	3.5947433E-001	-1.5220648E-005
3	0	1.302910380323519E+003	3.5925186E-001	-1.2973390E-004
3	0	1.303410380310888E+003	3.5890597E-001	-7.2477276E-005
3	0	1.303910380298257E+003	3.5859859E-001	-3.4306191E-005
3	0	1.304410380285626E+003	3.5866433E-001	4.2035979E-005
3	0	1.304910380272995E+003	3.5864368E-001	-5.3391734E-005
3	0	1.305410380260364E+003	3.5846895E-001	-1.4881945E-004
3	0	1.305910380247733E+003	3.5823062E-001	-1.2973390E-004
3	0	1.306410380235102E+003	3.5800156E-001	-1.5220648E-005
3	0	1.306910380222471E+003	3.5764638E-001	-7.2477276E-005
3	0	1.307410380209840E+003	3.5714620E-001	-1.2973390E-004
3	0	1.307910380197209E+003	3.5670871E-001	-1.4881945E-004
3	0	1.308410380184578E+003	3.5664752E-001	-9.1562819E-005
3	0	1.308910380171947E+003	3.5654518E-001	-5.3391734E-005
3	0	1.309410380159316E+003	3.5630435E-001	-1.5220648E-005
3	0	1.309910380146684E+003	3.5600030E-001	-7.2477276E-005
3	0	1.310410380134053E+003	3.5569015E-001	-1.5220648E-005
3	0	1.310910380121422E+003	3.5531437E-001	4.2035979E-005
3	0	1.311410380108791E+003	3.5475731E-001	2.2950437E-005
3	0	1.311910380096160E+003	3.5429221E-001	-7.2477276E-005
3	0	1.312410380083529E+003	3.5419488E-001	-5.3391734E-005
3	0	1.312910380070898E+003	3.5405961E-001	-7.2477276E-005
3	0	1.313410380058267E+003	3.5378212E-001	-3.4306191E-005
3	0	1.313910380045636E+003	3.5346299E-001	-1.5220648E-005
3	0	1.314410380033005E+003	3.5314175E-001	2.2950437E-005
3	0	1.314910380020374E+003	3.5271692E-001	2.2950437E-005
3	0	1.315410380007743E+003	3.5219353E-001	-1.1064836E-004
3	0	1.315910379995112E+003	3.5180190E-001	-1.4881945E-004
3	0	1.316410379982481E+003	3.5182005E-001	-1.4881945E-004
3	0	1.316910379969850E+003	3.5188803E-001	-5.3391734E-005
3	0	1.317410379957219E+003	3.5189441E-001	2.2950437E-005
3	0	1.317910379944587E+003	3.5191935E-001	-1.1064836E-004
3	0	1.318410379931956E+003	3.5199225E-001	-5.3391734E-005
3	0	1.318910379919325E+003	3.5205582E-001	-3.4306191E-005
3	0	1.319410379906694E+003	3.5196885E-001	-3.4306191E-005
3	0	1.319910379894063E+003	3.5194248E-001	-1.2973390E-004
3	0	1.320410379881432E+003	3.5221756E-001	-5.3391734E-005
3	0	1.320910379868801E+003	3.5243759E-001	-7.2477276E-005
3	0	1.321410379856170E+003	3.5248375E-001	-2.4424717E-004
3	0	1.321910379843539E+003	3.5241234E-001	-1.5220648E-005
3	0	1.321945379842655E+003	3.5235396E-001	-1.5220648E-005