EC-Lab ASCII FILE
Nb header lines : 55                          

Open Circuit Voltage

Run on channel : 1 (SN 81504)
User : 
CE vs. WE compliance from -10 V to 10 V
Electrode connection : standard
Potential control : Ewe
Ewe ctrl range : min = -2.50 V, max = 2.50 V
Safety Limits :
	Do not start on E overload
Acquisition started on : 05/07/2026 16:01:37.735
Loaded Setting File :  C:\PEM-WE_measurements\2026\372_IV_IV IrOx, 5 min Pt, 30 min C, etched cathode\new station\Loopeis new\1,46 V different time gaps open cell\Loopeis 1,46V_45s_4_PEIS from 650Hz to 100Hz.mps
Saved on :
	File : L_09_Loopeis 1,46V_45s_4_PEIS from 650Hz to 100Hz_14_OCV_C01.mpr
	Directory : C:\PEM-WE_measurements\2026\372_IV_IV IrOx, 5 min Pt, 30 min C, etched cathode\new station\Loopeis new\1,46 V different time gaps open cell\
	Host : 192.168.0.2
Device : SP-150e (SN .005491)
Address : 192.168.0.91
EC-LAB for windows v11.71 (software)
Internet server v28.00 (firmware)
Command interpretor v14.01 (firmware)
Electrode material : 
Initial state : 
Electrolyte : 
Comments : 
Current amplifier : SP-150eB-20A
Electrode surface area : 0.001 cm²
Characteristic mass : 0.001 g
Equivalent Weight : 0.000 g/eq.
Density : 0.000 g/cm3
Volume (V) : 0.001 cm³
Record Analogic IN 1
Text export
   Mode : Standard
   Time format : Elapsed
Cycle Definition : Charge/Discharge alternance
External device configuration :
   device type : Temperature Probe
   device name : Other
   Analog IN 1 : 
      unit : T/Â°C
      max : 100.000 at 2.000 V
      min : 0.000 at 1.460 V
tR (h:m:s)          0:00:45.0000        
dER/dt (mV/h)       1.0                 
record              <Ewe>               
dER (mV)            10.00               
dtR (s)             0.5000              
E range min (V)     -2.500              
E range max (V)     2.500               

mode	error	time/s	<Ewe/V>	Analog IN 1/V	
3	0	5.876551951335568E+002	1.2772056E+000	-2.7039801E+002
3	0	5.881551951209258E+002	1.2725450E+000	-2.7039093E+002
3	0	5.886551951082947E+002	1.2369454E+000	-2.7037326E+002
3	0	5.891551950956637E+002	1.1626892E+000	-2.7039801E+002
3	0	5.896551950830326E+002	9.2026174E-001	-2.7039801E+002
3	0	5.901551950704015E+002	4.7448167E-001	-2.7035913E+002
3	0	5.906551950577705E+002	3.5884902E-001	-2.7038742E+002
3	0	5.911551950451394E+002	3.4260845E-001	-2.7039093E+002
3	0	5.916551950325083E+002	3.3351922E-001	-2.7038385E+002
3	0	5.921551950198773E+002	3.2638624E-001	-2.7039447E+002
3	0	5.926551950072462E+002	3.2102126E-001	-2.7037326E+002
3	0	5.931551949946152E+002	3.1693769E-001	-2.7038031E+002
3	0	5.936551949819841E+002	3.1374866E-001	-2.7037326E+002
3	0	5.941551949693530E+002	3.1117621E-001	-2.7034143E+002
3	0	5.946551949567220E+002	3.0904034E-001	-2.7039801E+002
3	0	5.951551949440909E+002	3.0726737E-001	-2.7035559E+002
3	0	5.956551949314598E+002	3.0574763E-001	-2.7037677E+002
3	0	5.961551949188288E+002	3.0441615E-001	-2.7035913E+002
3	0	5.966551949061977E+002	3.0322599E-001	-2.7038031E+002
3	0	5.971551948935667E+002	3.0215091E-001	-2.7036618E+002
3	0	5.976551948809356E+002	3.0115020E-001	-2.7039801E+002
3	0	5.981551948683045E+002	3.0019897E-001	-2.7035559E+002
3	0	5.986551948556735E+002	2.9929367E-001	-2.7038385E+002
3	0	5.991551948430424E+002	2.9848132E-001	-2.7036618E+002
3	0	5.996551948304113E+002	2.9771620E-001	-2.7036972E+002
3	0	6.001551948177803E+002	2.9698500E-001	-2.7036618E+002
3	0	6.006551948051492E+002	2.9627913E-001	-2.7039801E+002
3	0	6.011551947925182E+002	2.9559699E-001	-2.7036972E+002
3	0	6.016551947798871E+002	2.9493248E-001	-2.7041214E+002
3	0	6.021551947672560E+002	2.9425928E-001	-2.7037326E+002
3	0	6.026551947546250E+002	2.9358527E-001	-2.7039447E+002
3	0	6.031551947419939E+002	2.9296350E-001	-2.7039801E+002
3	0	6.036551947293628E+002	2.9236203E-001	-2.7037677E+002
3	0	6.041551947167318E+002	2.9177406E-001	-2.7035559E+002
3	0	6.046551947041007E+002	2.9118887E-001	-2.7037677E+002
3	0	6.051551946914697E+002	2.9061154E-001	-2.7037677E+002
3	0	6.056551946788386E+002	2.9003406E-001	-2.7038031E+002
3	0	6.061551946662075E+002	2.8944683E-001	-2.7036972E+002
3	0	6.066551946535765E+002	2.8885889E-001	-2.7036972E+002
3	0	6.071551946409454E+002	2.8830796E-001	-2.7036972E+002
3	0	6.076551946283143E+002	2.8777450E-001	-2.7038031E+002
3	0	6.081551946156833E+002	2.8724295E-001	-2.7038031E+002
3	0	6.086551946030522E+002	2.8671631E-001	-2.7038385E+002
3	0	6.091551945904212E+002	2.8619623E-001	-2.7037677E+002
3	0	6.096551945777901E+002	2.8567633E-001	-2.7035913E+002
3	0	6.101551945651590E+002	2.8512716E-001	-2.7040155E+002
3	0	6.106551945525280E+002	2.8457990E-001	-2.7038385E+002
3	0	6.111551945398969E+002	2.8407049E-001	-2.7035559E+002
3	0	6.116551945272658E+002	2.8356481E-001	-2.7038031E+002
3	0	6.121551945146348E+002	2.8307369E-001	-2.7036267E+002
3	0	6.126551945020037E+002	2.8257748E-001	-2.7036618E+002
3	0	6.131551944893727E+002	2.8209561E-001	-2.7036972E+002
3	0	6.136551944767416E+002	2.8160509E-001	-2.7039093E+002
3	0	6.141551944641105E+002	2.8110144E-001	-2.7038385E+002
3	0	6.146551944514795E+002	2.8059664E-001	-2.7039447E+002
3	0	6.151551944388484E+002	2.8011933E-001	-2.7037677E+002
3	0	6.156551944262173E+002	2.7966666E-001	-2.7039093E+002
3	0	6.161551944135863E+002	2.7921149E-001	-2.7040506E+002
3	0	6.166551944009552E+002	2.7876243E-001	-2.7037326E+002
3	0	6.171551943883242E+002	2.7830836E-001	-2.7038385E+002
3	0	6.176551943756931E+002	2.7785406E-001	-2.7035559E+002
3	0	6.181551943630620E+002	2.7738497E-001	-2.7037677E+002
3	0	6.186551943504310E+002	2.7691060E-001	-2.7038385E+002
3	0	6.191551943377999E+002	2.7647936E-001	-2.7036618E+002
3	0	6.196551943251689E+002	2.7604777E-001	-2.7039801E+002
3	0	6.201551943125378E+002	2.7562737E-001	-2.7039801E+002
3	0	6.206551942999067E+002	2.7519941E-001	-2.7037677E+002
3	0	6.211551942872757E+002	2.7478471E-001	-2.7036618E+002
3	0	6.216551942746446E+002	2.7437079E-001	-2.7039447E+002
3	0	6.221551942620135E+002	2.7393308E-001	-2.7035913E+002
3	0	6.226551942493825E+002	2.7349424E-001	-2.7039447E+002
3	0	6.231551942367514E+002	2.7308974E-001	-2.7038031E+002
3	0	6.236551942241204E+002	2.7269736E-001	-2.7038385E+002
3	0	6.241551942114893E+002	2.7231571E-001	-2.7038385E+002
3	0	6.246551941988582E+002	2.7193123E-001	-2.7036267E+002
3	0	6.251551941862272E+002	2.7154726E-001	-2.7035559E+002
3	0	6.256551941735961E+002	2.7115512E-001	-2.7038031E+002
3	0	6.261551941609650E+002	2.7075434E-001	-2.7038031E+002
3	0	6.266551941483340E+002	2.7034375E-001	-2.7036972E+002
3	0	6.271551941357029E+002	2.6997054E-001	-2.7037677E+002
3	0	6.276551941230719E+002	2.6961535E-001	-2.7036618E+002
3	0	6.281551941104408E+002	2.6925957E-001	-2.7037677E+002
3	0	6.286551940978097E+002	2.6889893E-001	-2.7039447E+002
3	0	6.291551940851787E+002	2.6854119E-001	-2.7037326E+002
3	0	6.296551940725476E+002	2.6818717E-001	-2.7038385E+002
3	0	6.301551940599165E+002	2.6781410E-001	-2.7039093E+002
3	0	6.306551940472855E+002	2.6743561E-001	-2.7039801E+002
3	0	6.311551940346544E+002	2.6710108E-001	-2.7040155E+002
3	0	6.316551940220234E+002	2.6676700E-001	-2.7038742E+002
3	0	6.321551940093923E+002	2.6643434E-001	-2.7035913E+002
3	0	6.321555940093822E+002	2.6624674E-001	-2.7036618E+002