EC-Lab ASCII FILE
Nb header lines : 55                          

Open Circuit Voltage

Run on channel : 1 (SN 81504)
User : 
CE vs. WE compliance from -10 V to 10 V
Electrode connection : standard
Potential control : Ewe
Ewe ctrl range : min = -2.50 V, max = 2.50 V
Safety Limits :
	Do not start on E overload
Acquisition started on : 05/07/2026 19:27:13.907
Loaded Setting File :  C:\PEM-WE_measurements\2026\372_IV_IV IrOx, 5 min Pt, 30 min C, etched cathode\new station\Loopeis new\1,46 V different time gaps open cell\Loopeis 1,46V_90s_4_PEIS from 650Hz to 100Hz.mps
Saved on :
	File : L_19_Loopeis 1,46V_90s_4_PEIS from 650Hz to 100Hz_04_OCV_C01.mpr
	Directory : C:\PEM-WE_measurements\2026\372_IV_IV IrOx, 5 min Pt, 30 min C, etched cathode\new station\Loopeis new\1,46 V different time gaps open cell\
	Host : 192.168.0.2
Device : SP-150e (SN .005491)
Address : 192.168.0.91
EC-LAB for windows v11.71 (software)
Internet server v28.00 (firmware)
Command interpretor v14.01 (firmware)
Electrode material : 
Initial state : 
Electrolyte : 
Comments : 
Current amplifier : SP-150eB-20A
Electrode surface area : 0.001 cm²
Characteristic mass : 0.001 g
Equivalent Weight : 0.000 g/eq.
Density : 0.000 g/cm3
Volume (V) : 0.001 cm³
Record Analogic IN 1
Text export
   Mode : Standard
   Time format : Elapsed
Cycle Definition : Charge/Discharge alternance
External device configuration :
   device type : Temperature Probe
   device name : Other
   Analog IN 1 : 
      unit : T/Â°C
      max : 100.000 at 2.000 V
      min : 0.000 at 1.460 V
tR (h:m:s)          0:01:30.0000        
dER/dt (mV/h)       1.0                 
record              <Ewe>               
dER (mV)            10.00               
dtR (s)             0.5000              
E range min (V)     -2.500              
E range max (V)     2.500               

mode	error	time/s	<Ewe/V>	Analog IN 1/V	
3	0	1.804495987136033E+002	1.0370246E+000	-2.7039447E+002
3	0	1.809495987009723E+002	1.2029730E+000	-2.7035205E+002
3	0	1.814495986883412E+002	1.1339687E+000	-2.7037326E+002
3	0	1.819495986757101E+002	9.6516275E-001	-2.7035559E+002
3	0	1.824495986630791E+002	5.2162588E-001	-2.7039801E+002
3	0	1.829495986504480E+002	3.2070038E-001	-2.7035559E+002
3	0	1.834495986378170E+002	2.9656267E-001	-2.7037677E+002
3	0	1.839495986251859E+002	2.8953129E-001	-2.7038031E+002
3	0	1.844495986125548E+002	2.8334564E-001	-2.7038031E+002
3	0	1.849495985999238E+002	2.7828506E-001	-2.7037677E+002
3	0	1.854495985872927E+002	2.7432543E-001	-2.7038385E+002
3	0	1.859495985746617E+002	2.7122971E-001	-2.7034143E+002
3	0	1.864495985620306E+002	2.6879609E-001	-2.7038742E+002
3	0	1.869495985493995E+002	2.6683095E-001	-2.7038031E+002
3	0	1.874495985367685E+002	2.6519760E-001	-2.7040860E+002
3	0	1.879495985241374E+002	2.6382023E-001	-2.7039447E+002
3	0	1.884495985115063E+002	2.6262680E-001	-2.7036618E+002
3	0	1.889495984988753E+002	2.6156136E-001	-2.7039093E+002
3	0	1.894495984862442E+002	2.6058593E-001	-2.7036267E+002
3	0	1.899495984736132E+002	2.5969067E-001	-2.7040155E+002
3	0	1.904495984609821E+002	2.5889233E-001	-2.7039093E+002
3	0	1.909495984483510E+002	2.5815517E-001	-2.7034143E+002
3	0	1.914495984357200E+002	2.5745800E-001	-2.7038742E+002
3	0	1.919495984230889E+002	2.5679389E-001	-2.7037677E+002
3	0	1.924495984104578E+002	2.5615478E-001	-2.7039447E+002
3	0	1.929495983978268E+002	2.5553796E-001	-2.7039093E+002
3	0	1.934495983851957E+002	2.5491098E-001	-2.7039093E+002
3	0	1.939495983725647E+002	2.5430036E-001	-2.7035913E+002
3	0	1.944495983599336E+002	2.5372404E-001	-2.7038742E+002
3	0	1.949495983473025E+002	2.5317904E-001	-2.7036972E+002
3	0	1.954495983346715E+002	2.5263608E-001	-2.7036972E+002
3	0	1.959495983220404E+002	2.5209856E-001	-2.7038742E+002
3	0	1.964495983094093E+002	2.5157067E-001	-2.7037677E+002
3	0	1.969495982967783E+002	2.5103837E-001	-2.7035913E+002
3	0	1.974495982841472E+002	2.5049728E-001	-2.7038385E+002
3	0	1.979495982715162E+002	2.4995260E-001	-2.7036267E+002
3	0	1.984495982588851E+002	2.4944440E-001	-2.7038742E+002
3	0	1.989495982462540E+002	2.4895798E-001	-2.7038385E+002
3	0	1.994495982336230E+002	2.4846618E-001	-2.7038031E+002
3	0	1.999495982209919E+002	2.4797843E-001	-2.7037326E+002
3	0	2.004495982083608E+002	2.4749723E-001	-2.7038385E+002
3	0	2.009495981957298E+002	2.4700619E-001	-2.7037677E+002
3	0	2.014495981830987E+002	2.4650037E-001	-2.7038031E+002
3	0	2.019495981704677E+002	2.4598749E-001	-2.7040155E+002
3	0	2.024495981578366E+002	2.4551578E-001	-2.7037677E+002
3	0	2.029495981452055E+002	2.4504815E-001	-2.7036267E+002
3	0	2.034495981325745E+002	2.4458262E-001	-2.7036972E+002
3	0	2.039495981199434E+002	2.4412580E-001	-2.7039447E+002
3	0	2.044495981073123E+002	2.4366181E-001	-2.7039447E+002
3	0	2.049495980946813E+002	2.4320431E-001	-2.7036267E+002
3	0	2.054495980820502E+002	2.4273179E-001	-2.7039093E+002
3	0	2.059495980694192E+002	2.4224254E-001	-2.7040155E+002
3	0	2.064495980567881E+002	2.4180031E-001	-2.7038031E+002
3	0	2.069495980441570E+002	2.4136981E-001	-2.7040155E+002
3	0	2.074495980315260E+002	2.4093394E-001	-2.7035559E+002
3	0	2.079495980188949E+002	2.4050172E-001	-2.7039093E+002
3	0	2.084495980062638E+002	2.4007528E-001	-2.7036972E+002
3	0	2.089495979936328E+002	2.3964603E-001	-2.7035559E+002
3	0	2.094495979810017E+002	2.3919325E-001	-2.7039801E+002
3	0	2.099495979683707E+002	2.3873751E-001	-2.7038742E+002
3	0	2.104495979557396E+002	2.3832262E-001	-2.7038385E+002
3	0	2.109495979431085E+002	2.3791827E-001	-2.7037677E+002
3	0	2.114495979304775E+002	2.3750970E-001	-2.7035913E+002
3	0	2.119495979178464E+002	2.3710096E-001	-2.7036618E+002
3	0	2.124495979052153E+002	2.3669752E-001	-2.7038742E+002
3	0	2.129495978925843E+002	2.3628719E-001	-2.7037677E+002
3	0	2.134495978799532E+002	2.3586009E-001	-2.7039447E+002
3	0	2.139495978673222E+002	2.3543946E-001	-2.7036972E+002
3	0	2.144495978546911E+002	2.3505230E-001	-2.7038031E+002
3	0	2.149495978420600E+002	2.3467717E-001	-2.7039093E+002
3	0	2.154495978294290E+002	2.3430167E-001	-2.7034851E+002
3	0	2.159495978167979E+002	2.3392728E-001	-2.7037326E+002
3	0	2.164495978041668E+002	2.3355445E-001	-2.7038031E+002
3	0	2.169495977915358E+002	2.3317638E-001	-2.7037677E+002
3	0	2.174495977789047E+002	2.3278251E-001	-2.7036972E+002
3	0	2.179495977662737E+002	2.3237921E-001	-2.7037326E+002
3	0	2.184495977536426E+002	2.3202303E-001	-2.7038031E+002
3	0	2.189495977410115E+002	2.3167357E-001	-2.7036972E+002
3	0	2.194495977283805E+002	2.3132165E-001	-2.7039093E+002
3	0	2.199495977157494E+002	2.3097110E-001	-2.7039093E+002
3	0	2.204495977031183E+002	2.3062479E-001	-2.7038742E+002
3	0	2.209495976904873E+002	2.3027718E-001	-2.7038031E+002
3	0	2.214495976778562E+002	2.2991019E-001	-2.7037677E+002
3	0	2.219495976652252E+002	2.2953604E-001	-2.7037326E+002
3	0	2.224495976525941E+002	2.2921009E-001	-2.7039447E+002
3	0	2.229495976399630E+002	2.2889566E-001	-2.7034143E+002
3	0	2.234495976273320E+002	2.2857985E-001	-2.7035913E+002
3	0	2.239495976147009E+002	2.2825782E-001	-2.7038742E+002
3	0	2.244495976020698E+002	2.2794816E-001	-2.7039093E+002
3	0	2.249495975894388E+002	2.2762206E-001	-2.7039093E+002
3	0	2.254495975768077E+002	2.2727846E-001	-2.7039093E+002
3	0	2.259495975641767E+002	2.2693370E-001	-2.7037326E+002
3	0	2.264495975515456E+002	2.2662899E-001	-2.7037326E+002
3	0	2.269495975389145E+002	2.2634006E-001	-2.7038385E+002
3	0	2.274495975262835E+002	2.2604628E-001	-2.7040155E+002
3	0	2.279495975136524E+002	2.2575094E-001	-2.7038031E+002
3	0	2.284495975010213E+002	2.2546817E-001	-2.7038031E+002
3	0	2.289495974883903E+002	2.2517630E-001	-2.7036618E+002
3	0	2.294495974757592E+002	2.2486103E-001	-2.7037326E+002
3	0	2.299495974631282E+002	2.2453761E-001	-2.7038031E+002
3	0	2.304495974504971E+002	2.2425638E-001	-2.7037326E+002
3	0	2.309495974378660E+002	2.2398724E-001	-2.7036618E+002
3	0	2.314495974252350E+002	2.2371820E-001	-2.7035559E+002
3	0	2.319495974126039E+002	2.2345102E-001	-2.7036972E+002
3	0	2.324495973999728E+002	2.2318053E-001	-2.7037677E+002
3	0	2.329495973873418E+002	2.2290595E-001	-2.7038385E+002
3	0	2.334495973747107E+002	2.2260778E-001	-2.7039093E+002
3	0	2.339495973620797E+002	2.2231197E-001	-2.7038385E+002
3	0	2.344495973494486E+002	2.2205636E-001	-2.7036972E+002
3	0	2.349495973368175E+002	2.2181490E-001	-2.7038742E+002
3	0	2.354495973241865E+002	2.2156581E-001	-2.7039093E+002
3	0	2.359495973115554E+002	2.2132348E-001	-2.7038385E+002
3	0	2.364495972989243E+002	2.2108382E-001	-2.7036618E+002
3	0	2.369495972862933E+002	2.2083378E-001	-2.7036972E+002
3	0	2.374495972736622E+002	2.2056039E-001	-2.7036618E+002
3	0	2.379495972610312E+002	2.2028928E-001	-2.7038742E+002
3	0	2.384495972484001E+002	2.2005512E-001	-2.7039093E+002
3	0	2.389495972357690E+002	2.1984285E-001	-2.7036267E+002
3	0	2.394495972231380E+002	2.1961769E-001	-2.7038742E+002
3	0	2.399495972105069E+002	2.1939373E-001	-2.7035559E+002
3	0	2.404495971978758E+002	2.1916775E-001	-2.7039447E+002
3	0	2.409495971852448E+002	2.1894400E-001	-2.7038742E+002
3	0	2.414495971726137E+002	2.1869798E-001	-2.7038031E+002
3	0	2.419495971599827E+002	2.1844837E-001	-2.7040860E+002
3	0	2.424495971473516E+002	2.1823260E-001	-2.7036267E+002
3	0	2.429495971347205E+002	2.1802931E-001	-2.7039447E+002
3	0	2.434495971220895E+002	2.1782894E-001	-2.7037677E+002
3	0	2.439495971094584E+002	2.1762516E-001	-2.7037326E+002
3	0	2.444495970968273E+002	2.1741718E-001	-2.7038385E+002
3	0	2.449495970841963E+002	2.1721396E-001	-2.7038031E+002
3	0	2.454495970715652E+002	2.1698332E-001	-2.7038742E+002
3	0	2.459495970589342E+002	2.1674748E-001	-2.7037326E+002
3	0	2.464495970463031E+002	2.1655089E-001	-2.7036267E+002
3	0	2.469495970336720E+002	2.1636644E-001	-2.7040506E+002
3	0	2.474495970210410E+002	2.1618026E-001	-2.7039447E+002
3	0	2.479495970084099E+002	2.1599583E-001	-2.7036618E+002
3	0	2.484495969957788E+002	2.1581942E-001	-2.7037326E+002
3	0	2.489495969831478E+002	2.1563251E-001	-2.7039801E+002
3	0	2.494495969705167E+002	2.1542212E-001	-2.7038385E+002
3	0	2.499495969578857E+002	2.1520206E-001	-2.7037677E+002
3	0	2.504495969452546E+002	2.1502818E-001	-2.7038385E+002
3	0	2.509495969326235E+002	2.1485235E-001	-2.7037677E+002
3	0	2.514495969199925E+002	2.1467841E-001	-2.7037677E+002
3	0	2.519495969073614E+002	2.1451056E-001	-2.7035913E+002
3	0	2.524495968947303E+002	2.1433759E-001	-2.7037326E+002
3	0	2.529495968820993E+002	2.1415219E-001	-2.7040155E+002
3	0	2.534495968694682E+002	2.1396224E-001	-2.7038742E+002
3	0	2.539495968568372E+002	2.1375719E-001	-2.7037677E+002
3	0	2.544495968442061E+002	2.1359614E-001	-2.7038385E+002
3	0	2.549495968315750E+002	2.1343996E-001	-2.7039447E+002
3	0	2.554495968189440E+002	2.1328346E-001	-2.7038742E+002
3	0	2.559495968063129E+002	2.1312714E-001	-2.7036972E+002
3	0	2.564495967936818E+002	2.1296281E-001	-2.7037677E+002
3	0	2.569495967810508E+002	2.1280192E-001	-2.7038031E+002
3	0	2.574495967684197E+002	2.1261840E-001	-2.7037677E+002
3	0	2.579495967557887E+002	2.1243231E-001	-2.7038742E+002
3	0	2.584495967431576E+002	2.1228985E-001	-2.7037677E+002
3	0	2.589495967305265E+002	2.1215165E-001	-2.7039093E+002
3	0	2.594495967178955E+002	2.1201207E-001	-2.7038031E+002
3	0	2.599495967052644E+002	2.1186349E-001	-2.7039447E+002
3	0	2.604495966926333E+002	2.1172619E-001	-2.7040155E+002
3	0	2.609495966800023E+002	2.1157980E-001	-2.7038031E+002
3	0	2.614495966673712E+002	2.1140866E-001	-2.7037326E+002
3	0	2.619495966547402E+002	2.1123035E-001	-2.7036267E+002
3	0	2.624495966421091E+002	2.1109726E-001	-2.7036618E+002
3	0	2.629495966294780E+002	2.1096773E-001	-2.7036972E+002
3	0	2.634495966168470E+002	2.1084088E-001	-2.7036267E+002
3	0	2.639495966042159E+002	2.1071227E-001	-2.7037677E+002
3	0	2.644495965915849E+002	2.1058163E-001	-2.7037677E+002
3	0	2.649495965789538E+002	2.1044657E-001	-2.7038385E+002
3	0	2.654495965663227E+002	2.1028966E-001	-2.7039093E+002
3	0	2.659495965536917E+002	2.1011852E-001	-2.7036972E+002
3	0	2.664495965410606E+002	2.0999411E-001	-2.7036267E+002
3	0	2.669495965284295E+002	2.0987633E-001	-2.7039093E+002
3	0	2.674495965157985E+002	2.0975631E-001	-2.7035559E+002
3	0	2.679495965031674E+002	2.0963456E-001	-2.7037677E+002
3	0	2.684495964905364E+002	2.0952117E-001	-2.7037326E+002
3	0	2.689495964779053E+002	2.0939484E-001	-2.7037326E+002
3	0	2.694495964652742E+002	2.0924464E-001	-2.7040506E+002
3	0	2.699495964526432E+002	2.0908649E-001	-2.7038031E+002
3	0	2.699729964520520E+002	2.0902675E-001	-2.7039447E+002