EC-Lab ASCII FILE
Nb header lines : 48                          

Open Circuit Voltage

Run on channel : 1 (SN 81504)
User : 
CE vs. WE compliance from -10 V to 10 V
Electrode connection : standard
Potential control : Ewe
Ewe ctrl range : min = -2.50 V, max = 2.50 V
Safety Limits :
	Do not start on E overload
Acquisition started on : 05/10/2026 03:53:31.165
Loaded Setting File :  C:\PEM-WE_measurements\2026\372_IV_IV IrOx, 5 min Pt, 30 min C, etched cathode\new station\Loopeis new\1,46 V different time gaps closed cell\Loopeis 1,46V_90s_2_PEIS from 65kHz to 10kHz.mps
Saved on :
	File : L_17_Loopeis 1,46V_90s_2_PEIS from 65kHz to 10kHz_02_OCV_C01.mpr
	Directory : C:\PEM-WE_measurements\2026\372_IV_IV IrOx, 5 min Pt, 30 min C, etched cathode\new station\Loopeis new\1,46 V different time gaps closed cell\
	Host : 192.168.0.2
Device : SP-150e (SN .005491)
Address : 192.168.0.91
EC-LAB for windows v11.71 (software)
Internet server v28.00 (firmware)
Command interpretor v14.01 (firmware)
Electrode material : 
Initial state : 
Electrolyte : 
Comments : 
Current amplifier : SP-150eB-20A
Electrode surface area : 0.001 cm²
Characteristic mass : 0.001 g
Equivalent Weight : 0.000 g/eq.
Density : 0.000 g/cm3
Volume (V) : 0.001 cm³
Record Analogic IN 1
Text export
   Mode : Standard
   Time format : Elapsed
Cycle Definition : Charge/Discharge alternance
tR (h:m:s)          0:01:30.0000        
dER/dt (mV/h)       1.0                 
record              <Ewe>               
dER (mV)            10.00               
dtR (s)             0.5000              
E range min (V)     -2.500              
E range max (V)     2.500               

mode	error	time/s	<Ewe/V>	Analog IN 1/V	
3	0	4.549979885057837E+001	1.2762222E+000	-7.2477276E-005
3	0	4.599979883794731E+001	1.2839742E+000	-9.1562819E-005
3	0	4.649979882531625E+001	1.2860173E+000	4.2035979E-005
3	0	4.699979881268519E+001	1.2866508E+000	-3.4306191E-005
3	0	4.749979880005412E+001	1.2866749E+000	4.2035979E-005
3	0	4.799979878742306E+001	1.2863475E+000	-7.2477276E-005
3	0	4.849979877479200E+001	1.2857162E+000	4.2035979E-005
3	0	4.899979876216094E+001	1.2848561E+000	8.0207064E-005
3	0	4.949979874952987E+001	1.2838067E+000	-2.0607607E-004
3	0	4.999979873689881E+001	1.2826173E+000	2.2950437E-005
3	0	5.049979872426775E+001	1.2812867E+000	2.2950437E-005
3	0	5.099979871163669E+001	1.2798622E+000	3.8648941E-006
3	0	5.149979869900562E+001	1.2785267E+000	8.0207064E-005
3	0	5.199979868637456E+001	1.2772996E+000	-9.1562819E-005
3	0	5.249979867374350E+001	1.2760845E+000	-5.3391734E-005
3	0	5.299979866111244E+001	1.2748696E+000	6.1121522E-005
3	0	5.349979864848137E+001	1.2737100E+000	6.1121522E-005
3	0	5.399979863585031E+001	1.2725964E+000	2.2950437E-005
3	0	5.449979862321925E+001	1.2715315E+000	-5.3391734E-005
3	0	5.499979861058819E+001	1.2706009E+000	2.2950437E-005
3	0	5.549979859795712E+001	1.2699852E+000	3.8648941E-006
3	0	5.599979858532606E+001	1.2696009E+000	-5.3391734E-005
3	0	5.649979857269500E+001	1.2692313E+000	2.2950437E-005
3	0	5.699979856006394E+001	1.2688502E+000	-5.3391734E-005
3	0	5.749979854743287E+001	1.2684816E+000	2.2950437E-005
3	0	5.799979853480181E+001	1.2681077E+000	4.2035979E-005
3	0	5.849979852217075E+001	1.2677412E+000	-9.1562819E-005
3	0	5.899979850953969E+001	1.2674898E+000	-3.4306191E-005
3	0	5.949979849690862E+001	1.2675207E+000	-7.2477276E-005
3	0	5.999979848427756E+001	1.2676791E+000	9.9292607E-005
3	0	6.049979847164650E+001	1.2677691E+000	-3.4306191E-005
3	0	6.099979845901544E+001	1.2677629E+000	-1.5220648E-005
3	0	6.149979844638438E+001	1.2677050E+000	9.9292607E-005
3	0	6.199979843375331E+001	1.2675567E+000	-3.4306191E-005
3	0	6.249979842112225E+001	1.2673224E+000	-1.5220648E-005
3	0	6.299979840849119E+001	1.2671312E+000	3.8648941E-006
3	0	6.349979839586013E+001	1.2671604E+000	-3.4306191E-005
3	0	6.399979838322906E+001	1.2672863E+000	-1.5220648E-005
3	0	6.449979837059800E+001	1.2673090E+000	2.2950437E-005
3	0	6.499979835796694E+001	1.2671977E+000	-1.8699054E-004
3	0	6.549979834533588E+001	1.2670015E+000	2.2950437E-005
3	0	6.599979833270481E+001	1.2667166E+000	-7.2477276E-005
3	0	6.649979832007375E+001	1.2663623E+000	6.1121522E-005
3	0	6.699979830744269E+001	1.2660650E+000	-7.2477276E-005
3	0	6.749979829481163E+001	1.2659858E+000	-1.1064836E-004
3	0	6.799979828218056E+001	1.2660220E+000	-7.2477276E-005
3	0	6.849979826954950E+001	1.2659883E+000	-5.3391734E-005
3	0	6.899979825691844E+001	1.2659150E+000	-9.1562819E-005
3	0	6.949979824428738E+001	1.2658908E+000	-1.5220648E-005
3	0	6.999979823165631E+001	1.2659569E+000	-1.5220648E-005
3	0	7.049979821902525E+001	1.2661508E+000	-3.4306191E-005
3	0	7.099979820639419E+001	1.2665682E+000	-1.2973390E-004
3	0	7.149979819376313E+001	1.2672889E+000	-1.5220648E-005
3	0	7.199979818113206E+001	1.2680795E+000	4.2035979E-005
3	0	7.249979816850100E+001	1.2687644E+000	-7.2477276E-005
3	0	7.299979815586994E+001	1.2693485E+000	-1.2973390E-004
3	0	7.349979814323888E+001	1.2698588E+000	-1.1064836E-004
3	0	7.399979813060781E+001	1.2703090E+000	-7.2477276E-005
3	0	7.449979811797675E+001	1.2706355E+000	-5.3391734E-005
3	0	7.499979810534569E+001	1.2708805E+000	-1.5220648E-005
3	0	7.549979809271463E+001	1.2711709E+000	-5.3391734E-005
3	0	7.599979808008356E+001	1.2714720E+000	-2.6333271E-004
3	0	7.649979806745250E+001	1.2716931E+000	3.8648941E-006
3	0	7.699979805482144E+001	1.2718457E+000	-1.2973390E-004
3	0	7.749979804219038E+001	1.2719531E+000	-1.2973390E-004
3	0	7.799979802955932E+001	1.2720138E+000	4.2035979E-005
3	0	7.849979801692825E+001	1.2719890E+000	3.8648941E-006
3	0	7.899979800429719E+001	1.2719132E+000	-1.4881945E-004
3	0	7.949979799166613E+001	1.2718980E+000	2.2950437E-005
3	0	7.999979797903507E+001	1.2719204E+000	4.2035979E-005
3	0	8.049979796640400E+001	1.2718863E+000	3.8648941E-006
3	0	8.099979795377294E+001	1.2717947E+000	-3.4306191E-005
3	0	8.149979794114188E+001	1.2716542E+000	-1.6790499E-004
3	0	8.199979792851082E+001	1.2714620E+000	2.1380586E-004
3	0	8.249979791587975E+001	1.2711818E+000	4.2035979E-005
3	0	8.299979790324869E+001	1.2708662E+000	6.1121522E-005
3	0	8.349979789061763E+001	1.2706523E+000	-1.6790499E-004
3	0	8.399979787798657E+001	1.2704852E+000	1.1837815E-004
3	0	8.449979786535550E+001	1.2702744E+000	-1.5220648E-005
3	0	8.499979785272444E+001	1.2700114E+000	-9.1562819E-005
3	0	8.549979784009338E+001	1.2697061E+000	-1.5220648E-005
3	0	8.599979782746232E+001	1.2693552E+000	-1.5220648E-005
3	0	8.649979781483125E+001	1.2689282E+000	-5.3391734E-005
3	0	8.699979780220019E+001	1.2684778E+000	-3.4306191E-005
3	0	8.749979778956913E+001	1.2681369E+000	-1.4881945E-004
3	0	8.799979777693807E+001	1.2678548E+000	-1.1064836E-004
3	0	8.849979776430700E+001	1.2675302E+000	6.1121522E-005
3	0	8.899979775167594E+001	1.2671798E+000	4.2035979E-005
3	0	8.949979773904488E+001	1.2668574E+000	-7.2477276E-005
3	0	8.999979772641382E+001	1.2665668E+000	1.5654923E-004
3	0	9.049979771378275E+001	1.2663318E+000	-7.2477276E-005
3	0	9.099979770115169E+001	1.2661852E+000	-5.3391734E-005
3	0	9.149979768852063E+001	1.2662561E+000	-1.2973390E-004
3	0	9.199979767588957E+001	1.2664545E+000	6.1121522E-005
3	0	9.249979766325851E+001	1.2666413E+000	-1.6790499E-004
3	0	9.299979765062744E+001	1.2667956E+000	-1.2973390E-004
3	0	9.349979763799638E+001	1.2669206E+000	-7.2477276E-005
3	0	9.399979762536532E+001	1.2669950E+000	-1.1064836E-004
3	0	9.449979761273426E+001	1.2669998E+000	-9.1562819E-005
3	0	9.499979760010319E+001	1.2669489E+000	3.8648941E-006
3	0	9.549979758747213E+001	1.2669798E+000	3.8648941E-006
3	0	9.599979757484107E+001	1.2670507E+000	3.8648941E-006
3	0	9.649979756221001E+001	1.2670733E+000	-9.1562819E-005
3	0	9.699979754957894E+001	1.2670366E+000	-1.8699054E-004
3	0	9.749979753694788E+001	1.2669626E+000	-3.4306191E-005
3	0	9.799979752431682E+001	1.2668409E+000	-1.6790499E-004
3	0	9.849979751168576E+001	1.2666397E+000	4.2035979E-005
3	0	9.899979749905469E+001	1.2663873E+000	-5.3391734E-005
3	0	9.949979748642363E+001	1.2662051E+000	3.8648941E-006
3	0	9.999979747379257E+001	1.2660799E+000	-1.8699054E-004
3	0	1.004997974611615E+002	1.2659062E+000	-1.2973390E-004
3	0	1.009997974485304E+002	1.2656671E+000	-2.6333271E-004
3	0	1.014997974358994E+002	1.2653809E+000	3.8648941E-006
3	0	1.019997974232683E+002	1.2650402E+000	-7.2477276E-005
3	0	1.024997974106373E+002	1.2646207E+000	4.2035979E-005
3	0	1.029997973980062E+002	1.2641815E+000	-1.5220648E-005
3	0	1.034997973853751E+002	1.2638408E+000	3.8648941E-006
3	0	1.039997973727441E+002	1.2635494E+000	-1.2973390E-004
3	0	1.044997973601130E+002	1.2632005E+000	-3.4306191E-005
3	0	1.049997973474819E+002	1.2627711E+000	-1.5220648E-005
3	0	1.054997973348509E+002	1.2622716E+000	-1.5220648E-005
3	0	1.059997973222198E+002	1.2617003E+000	-9.1562819E-005
3	0	1.064997973095888E+002	1.2610412E+000	-1.5220648E-005
3	0	1.069997972969577E+002	1.2603832E+000	2.2950437E-005
3	0	1.074997972843266E+002	1.2598758E+000	-1.4881945E-004
3	0	1.079997972716956E+002	1.2594301E+000	-1.1064836E-004
3	0	1.084997972590645E+002	1.2588894E+000	-1.5220648E-005
3	0	1.089997972464334E+002	1.2583104E+000	3.8648941E-006
3	0	1.094997972338024E+002	1.2577420E+000	-9.1562819E-005
3	0	1.099997972211713E+002	1.2572262E+000	-3.4306191E-005
3	0	1.104997972085403E+002	1.2567949E+000	-3.4306191E-005
3	0	1.109997971959092E+002	1.2565837E+000	-1.4881945E-004
3	0	1.114997971832781E+002	1.2567647E+000	-1.2973390E-004
3	0	1.119997971706471E+002	1.2571609E+000	-1.2973390E-004
3	0	1.124997971580160E+002	1.2575389E+000	-1.5220648E-005
3	0	1.129997971453849E+002	1.2578518E+000	8.0207064E-005
3	0	1.134997971327539E+002	1.2581315E+000	-5.3391734E-005
3	0	1.139997971201228E+002	1.2583351E+000	2.2950437E-005
3	0	1.144997971074918E+002	1.2584696E+000	-1.1064836E-004
3	0	1.149997970948607E+002	1.2585539E+000	3.8648941E-006
3	0	1.154997970822296E+002	1.2587100E+000	-1.5220648E-005
3	0	1.159997970695986E+002	1.2588886E+000	4.2035979E-005
3	0	1.164997970569675E+002	1.2589827E+000	-1.5220648E-005
3	0	1.169997970443364E+002	1.2589995E+000	-3.4306191E-005
3	0	1.174997970317054E+002	1.2589588E+000	3.8648941E-006
3	0	1.179997970190743E+002	1.2588460E+000	8.0207064E-005
3	0	1.184997970064433E+002	1.2586511E+000	-3.4306191E-005
3	0	1.189997969938122E+002	1.2584049E+000	3.8648941E-006
3	0	1.194997969811811E+002	1.2582456E+000	3.8648941E-006
3	0	1.199997969685501E+002	1.2581198E+000	-3.4306191E-005
3	0	1.204997969559190E+002	1.2579222E+000	-7.2477276E-005
3	0	1.209997969432879E+002	1.2576606E+000	6.1121522E-005
3	0	1.214997969306569E+002	1.2573414E+000	3.8648941E-006
3	0	1.219997969180258E+002	1.2569457E+000	-5.3391734E-005
3	0	1.224997969053948E+002	1.2564495E+000	-1.5220648E-005
3	0	1.229997968927637E+002	1.2559359E+000	3.8648941E-006
3	0	1.234997968801326E+002	1.2555177E+000	-1.1064836E-004
3	0	1.239997968675016E+002	1.2551478E+000	-1.5220648E-005
3	0	1.244997968548705E+002	1.2546875E+000	-7.2477276E-005
3	0	1.249997968422394E+002	1.2541273E+000	-1.6790499E-004
3	0	1.254997968296084E+002	1.2534853E+000	-3.4306191E-005
3	0	1.259997968169773E+002	1.2527241E+000	-5.3391734E-005
3	0	1.264997968043463E+002	1.2518371E+000	-2.0607607E-004
3	0	1.269997967917152E+002	1.2509290E+000	-5.3391734E-005
3	0	1.274997967790841E+002	1.2501689E+000	-7.2477276E-005
3	0	1.279997967664531E+002	1.2494712E+000	4.2035979E-005
3	0	1.284997967538220E+002	1.2486250E+000	-5.3391734E-005
3	0	1.289997967411909E+002	1.2476478E+000	-1.5220648E-005
3	0	1.294997967285599E+002	1.2466153E+000	-9.1562819E-005
3	0	1.299997967159288E+002	1.2455692E+000	-1.5220648E-005
3	0	1.304997967032978E+002	1.2445827E+000	-1.5220648E-005
3	0	1.309997966906667E+002	1.2438909E+000	4.2035979E-005
3	0	1.314997966780356E+002	1.2437807E+000	8.0207064E-005
3	0	1.319997966654046E+002	1.2440933E+000	-1.2973390E-004
3	0	1.324997966527735E+002	1.2445270E+000	-3.4306191E-005
3	0	1.329997966401424E+002	1.2449772E+000	-1.5220648E-005
3	0	1.334997966275114E+002	1.2454230E+000	-1.8699054E-004
3	0	1.339997966148803E+002	1.2457904E+000	-1.1064836E-004
3	0	1.344997966022493E+002	1.2460694E+000	-1.2973390E-004
3	0	1.349997965896182E+002	1.2463399E+000	-1.1064836E-004
3	0	1.350001965896081E+002	1.2464852E+000	-1.2973390E-004