EC-Lab ASCII FILE
Nb header lines : 55                          

Open Circuit Voltage

Run on channel : 1 (SN 81504)
User : 
CE vs. WE compliance from -10 V to 10 V
Electrode connection : standard
Potential control : Ewe
Ewe ctrl range : min = -2.50 V, max = 2.50 V
Safety Limits :
	Do not start on E overload
Acquisition started on : 05/10/2026 09:44:17.042
Loaded Setting File :  C:\PEM-WE_measurements\2026\372_IV_IV IrOx, 5 min Pt, 30 min C, etched cathode\new station\Loopeis new\1,46 V different time gaps closed cell\Loopeis 1,46V_180s_4_PEIS from 650Hz to 100Hz.mps
Saved on :
	File : L_29_Loopeis 1,46V_180s_4_PEIS from 650Hz to 100Hz_10_OCV_C01.mpr
	Directory : C:\PEM-WE_measurements\2026\372_IV_IV IrOx, 5 min Pt, 30 min C, etched cathode\new station\Loopeis new\1,46 V different time gaps closed cell\
	Host : 192.168.0.2
Device : SP-150e (SN .005491)
Address : 192.168.0.91
EC-LAB for windows v11.71 (software)
Internet server v28.00 (firmware)
Command interpretor v14.01 (firmware)
Electrode material : 
Initial state : 
Electrolyte : 
Comments : 
Current amplifier : SP-150eB-20A
Electrode surface area : 0.001 cm²
Characteristic mass : 0.001 g
Equivalent Weight : 0.000 g/eq.
Density : 0.000 g/cm3
Volume (V) : 0.001 cm³
Record Analogic IN 1
Text export
   Mode : Standard
   Time format : Elapsed
Cycle Definition : Charge/Discharge alternance
External device configuration :
   device type : Temperature Probe
   device name : Other
   Analog IN 1 : 
      unit : T/Â°C
      max : 100.000 at 2.000 V
      min : 0.000 at 1.460 V
tR (h:m:s)          0:03:0.0000         
dER/dt (mV/h)       1.0                 
record              <Ewe>               
dER (mV)            10.00               
dtR (s)             0.5000              
E range min (V)     -2.500              
E range max (V)     2.500               

mode	error	time/s	<Ewe/V>	Analog IN 1/V	
3	0	9.451913826481177E+002	1.2912784E+000	-2.7039801E+002
3	0	9.456913826354867E+002	1.2974864E+000	-2.7036618E+002
3	0	9.461913826228556E+002	1.2854371E+000	-2.7036972E+002
3	0	9.466913826102245E+002	1.2623256E+000	-2.7038742E+002
3	0	9.471913825975935E+002	1.2235097E+000	-2.7036972E+002
3	0	9.476913825849624E+002	1.1549498E+000	-2.7035913E+002
3	0	9.481913825723313E+002	9.3401361E-001	-2.7039801E+002
3	0	9.486913825597003E+002	5.1847190E-001	-2.7038742E+002
3	0	9.491913825470692E+002	3.9146429E-001	-2.7034497E+002
3	0	9.496913825344382E+002	3.6757979E-001	-2.7037677E+002
3	0	9.501913825218071E+002	3.6390844E-001	-2.7036618E+002
3	0	9.506913825091760E+002	3.6381853E-001	-2.7036618E+002
3	0	9.511913824965450E+002	3.6444461E-001	-2.7035559E+002
3	0	9.516913824839139E+002	3.6509767E-001	-2.7037326E+002
3	0	9.521913824712829E+002	3.6538434E-001	-2.7037677E+002
3	0	9.526913824586518E+002	3.6558658E-001	-2.7038742E+002
3	0	9.531913824460207E+002	3.6569315E-001	-2.7038031E+002
3	0	9.536913824333897E+002	3.6578402E-001	-2.7035913E+002
3	0	9.541913824207586E+002	3.6576608E-001	-2.7035205E+002
3	0	9.546913824081275E+002	3.6570418E-001	-2.7035559E+002
3	0	9.551913823954965E+002	3.6581996E-001	-2.7036267E+002
3	0	9.556913823828654E+002	3.6615512E-001	-2.7037677E+002
3	0	9.561913823702344E+002	3.6631235E-001	-2.7037677E+002
3	0	9.566913823576033E+002	3.6648121E-001	-2.7038385E+002
3	0	9.571913823449722E+002	3.6659247E-001	-2.7038742E+002
3	0	9.576913823323412E+002	3.6652437E-001	-2.7035913E+002
3	0	9.581913823197101E+002	3.6667347E-001	-2.7039093E+002
3	0	9.586913823070790E+002	3.6679828E-001	-2.7037326E+002
3	0	9.591913822944480E+002	3.6699131E-001	-2.7038385E+002
3	0	9.596913822818169E+002	3.6735192E-001	-2.7035559E+002
3	0	9.601913822691859E+002	3.6753500E-001	-2.7038385E+002
3	0	9.606913822565548E+002	3.6769652E-001	-2.7037326E+002
3	0	9.611913822439237E+002	3.6791775E-001	-2.7039093E+002
3	0	9.616913822312927E+002	3.6819169E-001	-2.7037677E+002
3	0	9.621913822186616E+002	3.6835381E-001	-2.7040155E+002
3	0	9.626913822060305E+002	3.6854216E-001	-2.7035205E+002
3	0	9.631913821933995E+002	3.6894262E-001	-2.7034497E+002
3	0	9.636913821807684E+002	3.6959144E-001	-2.7038385E+002
3	0	9.641913821681374E+002	3.7009767E-001	-2.7038031E+002
3	0	9.646913821555063E+002	3.7045953E-001	-2.7037326E+002
3	0	9.651913821428752E+002	3.7077853E-001	-2.7037677E+002
3	0	9.656913821302442E+002	3.7107936E-001	-2.7037326E+002
3	0	9.661913821176131E+002	3.7121564E-001	-2.7038385E+002
3	0	9.666913821049820E+002	3.7127504E-001	-2.7036972E+002
3	0	9.671913820923510E+002	3.7146202E-001	-2.7037326E+002
3	0	9.676913820797199E+002	3.7185675E-001	-2.7038385E+002
3	0	9.681913820670889E+002	3.7211502E-001	-2.7039093E+002
3	0	9.686913820544578E+002	3.7224954E-001	-2.7037677E+002
3	0	9.691913820418267E+002	3.7234652E-001	-2.7035559E+002
3	0	9.696913820291957E+002	3.7238514E-001	-2.7036972E+002
3	0	9.701913820165646E+002	3.7232092E-001	-2.7036267E+002
3	0	9.706913820039335E+002	3.7220919E-001	-2.7038385E+002
3	0	9.711913819913025E+002	3.7226373E-001	-2.7037677E+002
3	0	9.716913819786714E+002	3.7253806E-001	-2.7038385E+002
3	0	9.721913819660404E+002	3.7267253E-001	-2.7037326E+002
3	0	9.726913819534093E+002	3.7268898E-001	-2.7037677E+002
3	0	9.731913819407782E+002	3.7270448E-001	-2.7037326E+002
3	0	9.736913819281472E+002	3.7268099E-001	-2.7039093E+002
3	0	9.741913819155161E+002	3.7257585E-001	-2.7038385E+002
3	0	9.746913819028850E+002	3.7236851E-001	-2.7038385E+002
3	0	9.751913818902540E+002	3.7234294E-001	-2.7038385E+002
3	0	9.756913818776229E+002	3.7253150E-001	-2.7036618E+002
3	0	9.761913818649919E+002	3.7261194E-001	-2.7038031E+002
3	0	9.766913818523608E+002	3.7256628E-001	-2.7039093E+002
3	0	9.771913818397297E+002	3.7250066E-001	-2.7039447E+002
3	0	9.776913818270987E+002	3.7240982E-001	-2.7037677E+002
3	0	9.781913818144676E+002	3.7224153E-001	-2.7036618E+002
3	0	9.786913818018365E+002	3.7200785E-001	-2.7038031E+002
3	0	9.791913817892055E+002	3.7190726E-001	-2.7036267E+002
3	0	9.796913817765744E+002	3.7205094E-001	-2.7038031E+002
3	0	9.801913817639434E+002	3.7212750E-001	-2.7037326E+002
3	0	9.806913817513123E+002	3.7211740E-001	-2.7038031E+002
3	0	9.811913817386812E+002	3.7212077E-001	-2.7039093E+002
3	0	9.816913817260502E+002	3.7214383E-001	-2.7037326E+002
3	0	9.821913817134191E+002	3.7213972E-001	-2.7036972E+002
3	0	9.826913817007880E+002	3.7213340E-001	-2.7040506E+002
3	0	9.831913816881570E+002	3.7231755E-001	-2.7039801E+002
3	0	9.836913816755259E+002	3.7276185E-001	-2.7037326E+002
3	0	9.841913816628949E+002	3.7313321E-001	-2.7038385E+002
3	0	9.846913816502638E+002	3.7336829E-001	-2.7038742E+002
3	0	9.851913816376327E+002	3.7354818E-001	-2.7038742E+002
3	0	9.856913816250017E+002	3.7366614E-001	-2.7040155E+002
3	0	9.861913816123706E+002	3.7366030E-001	-2.7038742E+002
3	0	9.866913815997395E+002	3.7352359E-001	-2.7035913E+002
3	0	9.871913815871085E+002	3.7351817E-001	-2.7038742E+002
3	0	9.876913815744774E+002	3.7371528E-001	-2.7038385E+002
3	0	9.881913815618464E+002	3.7378991E-001	-2.7037326E+002
3	0	9.886913815492153E+002	3.7375173E-001	-2.7038742E+002
3	0	9.891913815365842E+002	3.7368208E-001	-2.7037326E+002
3	0	9.896913815239532E+002	3.7358230E-001	-2.7039093E+002
3	0	9.901913815113221E+002	3.7339437E-001	-2.7036267E+002
3	0	9.906913814986910E+002	3.7313592E-001	-2.7037677E+002
3	0	9.911913814860600E+002	3.7298802E-001	-2.7038031E+002
3	0	9.916913814734289E+002	3.7307021E-001	-2.7036618E+002
3	0	9.921913814607979E+002	3.7305778E-001	-2.7037326E+002
3	0	9.926913814481668E+002	3.7292597E-001	-2.7038385E+002
3	0	9.931913814355357E+002	3.7278551E-001	-2.7038385E+002
3	0	9.936913814229047E+002	3.7260789E-001	-2.7038031E+002
3	0	9.941913814102736E+002	3.7233654E-001	-2.7038385E+002
3	0	9.946913813976425E+002	3.7195748E-001	-2.7039801E+002
3	0	9.951913813850115E+002	3.7179667E-001	-2.7036972E+002
3	0	9.956913813723804E+002	3.7182775E-001	-2.7035205E+002
3	0	9.961913813597494E+002	3.7174588E-001	-2.7035205E+002
3	0	9.966913813471183E+002	3.7157899E-001	-2.7039093E+002
3	0	9.971913813344872E+002	3.7140277E-001	-2.7041568E+002
3	0	9.976913813218562E+002	3.7121212E-001	-2.7037677E+002
3	0	9.981913813092251E+002	3.7096283E-001	-2.7036972E+002
3	0	9.986913812965940E+002	3.7059817E-001	-2.7038742E+002
3	0	9.991913812839630E+002	3.7042093E-001	-2.7038742E+002
3	0	9.996913812713319E+002	3.7044781E-001	-2.7038031E+002
3	0	1.000191381258701E+003	3.7039152E-001	-2.7039447E+002
3	0	1.000691381246070E+003	3.7023079E-001	-2.7038385E+002
3	0	1.001191381233439E+003	3.7009758E-001	-2.7038742E+002
3	0	1.001691381220808E+003	3.6997944E-001	-2.7038742E+002
3	0	1.002191381208177E+003	3.6986819E-001	-2.7036618E+002
3	0	1.002691381195546E+003	3.6975577E-001	-2.7038031E+002
3	0	1.003191381182914E+003	3.6984265E-001	-2.7037677E+002
3	0	1.003691381170283E+003	3.7020609E-001	-2.7039093E+002
3	0	1.004191381157652E+003	3.7048173E-001	-2.7038031E+002
3	0	1.004691381145021E+003	3.7063816E-001	-2.7035913E+002
3	0	1.005191381132390E+003	3.7074396E-001	-2.7035913E+002
3	0	1.005691381119759E+003	3.7079540E-001	-2.7037326E+002
3	0	1.006191381107128E+003	3.7069640E-001	-2.7038742E+002
3	0	1.006691381094497E+003	3.7050918E-001	-2.7038385E+002
3	0	1.007191381081866E+003	3.7045935E-001	-2.7038385E+002
3	0	1.007691381069235E+003	3.7057841E-001	-2.7037677E+002
3	0	1.008191381056604E+003	3.7057579E-001	-2.7036972E+002
3	0	1.008691381043973E+003	3.7048590E-001	-2.7039447E+002
3	0	1.009191381031342E+003	3.7035161E-001	-2.7038742E+002
3	0	1.009691381018711E+003	3.7022990E-001	-2.7036267E+002
3	0	1.010191381006080E+003	3.6997062E-001	-2.7037326E+002
3	0	1.010691380993449E+003	3.6961684E-001	-2.7036972E+002
3	0	1.011191380980817E+003	3.6944586E-001	-2.7038742E+002
3	0	1.011691380968186E+003	3.6947486E-001	-2.7037677E+002
3	0	1.012191380955555E+003	3.6939096E-001	-2.7040506E+002
3	0	1.012691380942924E+003	3.6922368E-001	-2.7036972E+002
3	0	1.013191380930293E+003	3.6902606E-001	-2.7040155E+002
3	0	1.013691380917662E+003	3.6881539E-001	-2.7036267E+002
3	0	1.014191380905031E+003	3.6849463E-001	-2.7038385E+002
3	0	1.014691380892400E+003	3.6809957E-001	-2.7034851E+002
3	0	1.015191380879769E+003	3.6785513E-001	-2.7039093E+002
3	0	1.015691380867138E+003	3.6783701E-001	-2.7036618E+002
3	0	1.016191380854507E+003	3.6774549E-001	-2.7037677E+002
3	0	1.016691380841876E+003	3.6753228E-001	-2.7036972E+002
3	0	1.017191380829245E+003	3.6730692E-001	-2.7036972E+002
3	0	1.017691380816614E+003	3.6709845E-001	-2.7036267E+002
3	0	1.018191380803983E+003	3.6678791E-001	-2.7037677E+002
3	0	1.018691380791352E+003	3.6638749E-001	-2.7034851E+002
3	0	1.019191380778720E+003	3.6616135E-001	-2.7038031E+002
3	0	1.019691380766089E+003	3.6615783E-001	-2.7036618E+002
3	0	1.020191380753458E+003	3.6607808E-001	-2.7035559E+002
3	0	1.020691380740827E+003	3.6588418E-001	-2.7037677E+002
3	0	1.021191380728196E+003	3.6569723E-001	-2.7035913E+002
3	0	1.021691380715565E+003	3.6558184E-001	-2.7038031E+002
3	0	1.022191380702934E+003	3.6544889E-001	-2.7038031E+002
3	0	1.022691380690303E+003	3.6529496E-001	-2.7035205E+002
3	0	1.023191380677672E+003	3.6531925E-001	-2.7039801E+002
3	0	1.023691380665041E+003	3.6558729E-001	-2.7038385E+002
3	0	1.024191380652410E+003	3.6580792E-001	-2.7036618E+002
3	0	1.024691380639779E+003	3.6592427E-001	-2.7037326E+002
3	0	1.025191380627148E+003	3.6600170E-001	-2.7038385E+002
3	0	1.025691380614517E+003	3.6600971E-001	-2.7037677E+002
3	0	1.026191380601886E+003	3.6593920E-001	-2.7036618E+002
3	0	1.026691380589255E+003	3.6573291E-001	-2.7035913E+002
3	0	1.027191380576623E+003	3.6563373E-001	-2.7037326E+002
3	0	1.027691380563992E+003	3.6571845E-001	-2.7039447E+002
3	0	1.028191380551361E+003	3.6572245E-001	-2.7038031E+002
3	0	1.028691380538730E+003	3.6560053E-001	-2.7039447E+002
3	0	1.029191380526099E+003	3.6544591E-001	-2.7038031E+002
3	0	1.029691380513468E+003	3.6526775E-001	-2.7038385E+002
3	0	1.030191380500837E+003	3.6498639E-001	-2.7035913E+002
3	0	1.030691380488206E+003	3.6460707E-001	-2.7039093E+002
3	0	1.031191380475575E+003	3.6436602E-001	-2.7039093E+002
3	0	1.031691380462944E+003	3.6434570E-001	-2.7038385E+002
3	0	1.032191380450313E+003	3.6425382E-001	-2.7037677E+002
3	0	1.032691380437682E+003	3.6404198E-001	-2.7038031E+002
3	0	1.033191380425051E+003	3.6381358E-001	-2.7038742E+002
3	0	1.033691380412420E+003	3.6356071E-001	-2.7038031E+002
3	0	1.034191380399789E+003	3.6326590E-001	-2.7038385E+002
3	0	1.034691380387158E+003	3.6288285E-001	-2.7037677E+002
3	0	1.035191380374526E+003	3.6261144E-001	-2.7036972E+002
3	0	1.035691380361895E+003	3.6257523E-001	-2.7038742E+002
3	0	1.036191380349264E+003	3.6247593E-001	-2.7039093E+002
3	0	1.036691380336633E+003	3.6226633E-001	-2.7040860E+002
3	0	1.037191380324002E+003	3.6201915E-001	-2.7037677E+002
3	0	1.037691380311371E+003	3.6176446E-001	-2.7036972E+002
3	0	1.038191380298740E+003	3.6145365E-001	-2.7038742E+002
3	0	1.038691380286109E+003	3.6106709E-001	-2.7037326E+002
3	0	1.039191380273478E+003	3.6076996E-001	-2.7038031E+002
3	0	1.039691380260847E+003	3.6069798E-001	-2.7039447E+002
3	0	1.040191380248216E+003	3.6057779E-001	-2.7038385E+002
3	0	1.040691380235585E+003	3.6038435E-001	-2.7036972E+002
3	0	1.041191380222954E+003	3.6018097E-001	-2.7036972E+002
3	0	1.041691380210323E+003	3.6001351E-001	-2.7040506E+002
3	0	1.042191380197692E+003	3.5985106E-001	-2.7039447E+002
3	0	1.042691380185061E+003	3.5962906E-001	-2.7037326E+002
3	0	1.043191380172429E+003	3.5959533E-001	-2.7038742E+002
3	0	1.043691380159798E+003	3.5982797E-001	-2.7038031E+002
3	0	1.044191380147167E+003	3.6004701E-001	-2.7037677E+002
3	0	1.044691380134536E+003	3.6020255E-001	-2.7039093E+002
3	0	1.045191380121905E+003	3.6029544E-001	-2.7037677E+002
3	0	1.045691380109274E+003	3.6034557E-001	-2.7037677E+002
3	0	1.046191380096643E+003	3.6026397E-001	-2.7036972E+002
3	0	1.046691380084012E+003	3.6005515E-001	-2.7036972E+002
3	0	1.047191380071381E+003	3.5991848E-001	-2.7038742E+002
3	0	1.047691380058750E+003	3.5998997E-001	-2.7037326E+002
3	0	1.048191380046119E+003	3.5999945E-001	-2.7038031E+002
3	0	1.048691380033488E+003	3.5989249E-001	-2.7039093E+002
3	0	1.049191380020857E+003	3.5973069E-001	-2.7036618E+002
3	0	1.049691380008226E+003	3.5954431E-001	-2.7041214E+002
3	0	1.050191379995595E+003	3.5928047E-001	-2.7038031E+002
3	0	1.050691379982964E+003	3.5894525E-001	-2.7037326E+002
3	0	1.051191379970332E+003	3.5868412E-001	-2.7037326E+002
3	0	1.051691379957701E+003	3.5865551E-001	-2.7035559E+002
3	0	1.052191379945070E+003	3.5857341E-001	-2.7039093E+002
3	0	1.052691379932439E+003	3.5838461E-001	-2.7036267E+002
3	0	1.053191379919808E+003	3.5815701E-001	-2.7038031E+002
3	0	1.053691379907177E+003	3.5792252E-001	-2.7035559E+002
3	0	1.054191379894546E+003	3.5760859E-001	-2.7036267E+002
3	0	1.054691379881915E+003	3.5720363E-001	-2.7036972E+002
3	0	1.055191379869284E+003	3.5690567E-001	-2.7039447E+002
3	0	1.055691379856653E+003	3.5682973E-001	-2.7036972E+002
3	0	1.056191379844022E+003	3.5670659E-001	-2.7035559E+002
3	0	1.056691379831391E+003	3.5650331E-001	-2.7035913E+002
3	0	1.057191379818760E+003	3.5627884E-001	-2.7037326E+002
3	0	1.057691379806129E+003	3.5607675E-001	-2.7038031E+002
3	0	1.058191379793498E+003	3.5578385E-001	-2.7040860E+002
3	0	1.058691379780867E+003	3.5541561E-001	-2.7037326E+002
3	0	1.059191379768235E+003	3.5514295E-001	-2.7037677E+002
3	0	1.059691379755604E+003	3.5509586E-001	-2.7035913E+002
3	0	1.060191379742973E+003	3.5500821E-001	-2.7035559E+002
3	0	1.060691379730342E+003	3.5482901E-001	-2.7037677E+002
3	0	1.061191379717711E+003	3.5463086E-001	-2.7036972E+002
3	0	1.061691379705080E+003	3.5447347E-001	-2.7040860E+002
3	0	1.062191379692449E+003	3.5429052E-001	-2.7038742E+002
3	0	1.062691379679818E+003	3.5408160E-001	-2.7039801E+002
3	0	1.063191379667187E+003	3.5402125E-001	-2.7039447E+002
3	0	1.063691379654556E+003	3.5423121E-001	-2.7036618E+002
3	0	1.064191379641925E+003	3.5445148E-001	-2.7036267E+002
3	0	1.064691379629294E+003	3.5459074E-001	-2.7037677E+002
3	0	1.065191379616663E+003	3.5468504E-001	-2.7038031E+002
3	0	1.065691379604032E+003	3.5472444E-001	-2.7036618E+002
3	0	1.066191379591401E+003	3.5465214E-001	-2.7037677E+002
3	0	1.066691379578770E+003	3.5444444E-001	-2.7037326E+002
3	0	1.067191379566138E+003	3.5430169E-001	-2.7038742E+002
3	0	1.067691379553507E+003	3.5435966E-001	-2.7035913E+002
3	0	1.068191379540876E+003	3.5436720E-001	-2.7036972E+002
3	0	1.068691379528245E+003	3.5427600E-001	-2.7037677E+002
3	0	1.069191379515614E+003	3.5413563E-001	-2.7036267E+002
3	0	1.069691379502983E+003	3.5395473E-001	-2.7036972E+002
3	0	1.070191379490352E+003	3.5363358E-001	-2.7037326E+002
3	0	1.070691379477721E+003	3.5327959E-001	-2.7041568E+002
3	0	1.071191379465090E+003	3.5301548E-001	-2.7035205E+002
3	0	1.071691379452459E+003	3.5293669E-001	-2.7040155E+002
3	0	1.072191379439828E+003	3.5282555E-001	-2.7040155E+002
3	0	1.072691379427197E+003	3.5263699E-001	-2.7038031E+002
3	0	1.073191379414566E+003	3.5240108E-001	-2.7037677E+002
3	0	1.073691379401935E+003	3.5215819E-001	-2.7039801E+002
3	0	1.074191379389304E+003	3.5188213E-001	-2.7038385E+002
3	0	1.074691379376673E+003	3.5154161E-001	-2.7036267E+002
3	0	1.075191379364042E+003	3.5129538E-001	-2.7036972E+002
3	0	1.075691379351410E+003	3.5122457E-001	-2.7037326E+002
3	0	1.076191379338779E+003	3.5112846E-001	-2.7036618E+002
3	0	1.076691379326148E+003	3.5096002E-001	-2.7039093E+002
3	0	1.077191379313517E+003	3.5076052E-001	-2.7039093E+002
3	0	1.077691379300886E+003	3.5053959E-001	-2.7037326E+002
3	0	1.078191379288255E+003	3.5025600E-001	-2.7038031E+002
3	0	1.078691379275624E+003	3.4992498E-001	-2.7038385E+002
3	0	1.079191379262993E+003	3.4965795E-001	-2.7035205E+002
3	0	1.079691379250362E+003	3.4957933E-001	-2.7036972E+002
3	0	1.080191379237731E+003	3.4948561E-001	-2.7038385E+002
3	0	1.080691379225100E+003	3.4929609E-001	-2.7038031E+002
3	0	1.081191379212469E+003	3.4909025E-001	-2.7036972E+002
3	0	1.081691379199838E+003	3.4892258E-001	-2.7040506E+002
3	0	1.082191379187207E+003	3.4874225E-001	-2.7035913E+002
3	0	1.082691379174576E+003	3.4852973E-001	-2.7039447E+002
3	0	1.083191379161945E+003	3.4846231E-001	-2.7036972E+002
3	0	1.083691379149313E+003	3.4863254E-001	-2.7038742E+002
3	0	1.084191379136682E+003	3.4882411E-001	-2.7037326E+002
3	0	1.084691379124051E+003	3.4895250E-001	-2.7037677E+002
3	0	1.085191379111420E+003	3.4905067E-001	-2.7037677E+002
3	0	1.085691379098789E+003	3.4910768E-001	-2.7039447E+002
3	0	1.086191379086158E+003	3.4906629E-001	-2.7037326E+002
3	0	1.086691379073527E+003	3.4892455E-001	-2.7037326E+002
3	0	1.087191379060896E+003	3.4882990E-001	-2.7038742E+002
3	0	1.087691379048265E+003	3.4887651E-001	-2.7037326E+002
3	0	1.088191379035634E+003	3.4887704E-001	-2.7036267E+002
3	0	1.088691379023003E+003	3.4878683E-001	-2.7036267E+002
3	0	1.089191379010372E+003	3.4864128E-001	-2.7036267E+002
3	0	1.089691378997741E+003	3.4847102E-001	-2.7038031E+002
3	0	1.090191378985110E+003	3.4823996E-001	-2.7036618E+002
3	0	1.090691378972479E+003	3.4790528E-001	-2.7037677E+002
3	0	1.091191378959848E+003	3.4763294E-001	-2.7036618E+002
3	0	1.091691378947216E+003	3.4753036E-001	-2.7038385E+002
3	0	1.092191378934585E+003	3.4742847E-001	-2.7037326E+002
3	0	1.092691378921954E+003	3.4725687E-001	-2.7037677E+002
3	0	1.093191378909323E+003	3.4704885E-001	-2.7038031E+002
3	0	1.093691378896692E+003	3.4682310E-001	-2.7039447E+002
3	0	1.094191378884061E+003	3.4656137E-001	-2.7037326E+002
3	0	1.094691378871430E+003	3.4620562E-001	-2.7037677E+002
3	0	1.095191378858799E+003	3.4592614E-001	-2.7038031E+002
3	0	1.095691378846168E+003	3.4583777E-001	-2.7038742E+002
3	0	1.096191378833537E+003	3.4573942E-001	-2.7038385E+002
3	0	1.096691378820906E+003	3.4555426E-001	-2.7038742E+002
3	0	1.097191378808275E+003	3.4533286E-001	-2.7040506E+002
3	0	1.097691378795644E+003	3.4507799E-001	-2.7037326E+002
3	0	1.098191378783013E+003	3.4477946E-001	-2.7041919E+002
3	0	1.098691378770382E+003	3.4441552E-001	-2.7036972E+002
3	0	1.099191378757751E+003	3.4411997E-001	-2.7036618E+002
3	0	1.099691378745119E+003	3.4401488E-001	-2.7039093E+002
3	0	1.100191378732488E+003	3.4391084E-001	-2.7035559E+002
3	0	1.100691378719857E+003	3.4374589E-001	-2.7038742E+002
3	0	1.101191378707226E+003	3.4356427E-001	-2.7036618E+002
3	0	1.101691378694595E+003	3.4339574E-001	-2.7037677E+002
3	0	1.102191378681964E+003	3.4320009E-001	-2.7038385E+002
3	0	1.102691378669333E+003	3.4297931E-001	-2.7037326E+002
3	0	1.103191378656702E+003	3.4289840E-001	-2.7037326E+002
3	0	1.103691378644071E+003	3.4304008E-001	-2.7036618E+002
3	0	1.104191378631440E+003	3.4320697E-001	-2.7040155E+002
3	0	1.104691378618809E+003	3.4334603E-001	-2.7037677E+002
3	0	1.105191378606178E+003	3.4345394E-001	-2.7037677E+002
3	0	1.105691378593547E+003	3.4354937E-001	-2.7035913E+002
3	0	1.106191378580916E+003	3.4355119E-001	-2.7039447E+002
3	0	1.106691378568285E+003	3.4343165E-001	-2.7039801E+002
3	0	1.107191378555654E+003	3.4334281E-001	-2.7038385E+002
3	0	1.107691378543022E+003	3.4339994E-001	-2.7035559E+002
3	0	1.108191378530391E+003	3.4341505E-001	-2.7036972E+002
3	0	1.108691378517760E+003	3.4334105E-001	-2.7038385E+002
3	0	1.109191378505129E+003	3.4320527E-001	-2.7038742E+002
3	0	1.109691378492498E+003	3.4305596E-001	-2.7038742E+002
3	0	1.110191378479867E+003	3.4282559E-001	-2.7039093E+002
3	0	1.110691378467236E+003	3.4251446E-001	-2.7036267E+002
3	0	1.111191378454605E+003	3.4225497E-001	-2.7037677E+002
3	0	1.111691378441974E+003	3.4217289E-001	-2.7038385E+002
3	0	1.112191378429343E+003	3.4208909E-001	-2.7039093E+002
3	0	1.112691378416712E+003	3.4192115E-001	-2.7038742E+002
3	0	1.113191378404081E+003	3.4170941E-001	-2.7036267E+002
3	0	1.113691378391450E+003	3.4150094E-001	-2.7038031E+002
3	0	1.114191378378819E+003	3.4120589E-001	-2.7038385E+002
3	0	1.114691378366188E+003	3.4083509E-001	-2.7039801E+002
3	0	1.115191378353557E+003	3.4051749E-001	-2.7036972E+002
3	0	1.115691378340925E+003	3.4038568E-001	-2.7035559E+002
3	0	1.116191378328294E+003	3.4025893E-001	-2.7039801E+002
3	0	1.116691378315663E+003	3.4005597E-001	-2.7037326E+002
3	0	1.117191378303032E+003	3.3984694E-001	-2.7038031E+002
3	0	1.117691378290401E+003	3.3962959E-001	-2.7039093E+002
3	0	1.118191378277770E+003	3.3936301E-001	-2.7037677E+002
3	0	1.118691378265139E+003	3.3901015E-001	-2.7037677E+002
3	0	1.119191378252508E+003	3.3871442E-001	-2.7036618E+002
3	0	1.119691378239877E+003	3.3860666E-001	-2.7038385E+002
3	0	1.120191378227246E+003	3.3850077E-001	-2.7038742E+002
3	0	1.120691378214615E+003	3.3833167E-001	-2.7036618E+002
3	0	1.121191378201984E+003	3.3813956E-001	-2.7037326E+002
3	0	1.121691378189353E+003	3.3794987E-001	-2.7038742E+002
3	0	1.122191378176722E+003	3.3773980E-001	-2.7034851E+002
3	0	1.122691378164091E+003	3.3751640E-001	-2.7036618E+002
3	0	1.123191378151460E+003	3.3739442E-001	-2.7036972E+002
3	0	1.123691378138828E+003	3.3749864E-001	-2.7039447E+002
3	0	1.124191378126197E+003	3.3765385E-001	-2.7037326E+002
3	0	1.124691378113566E+003	3.3776832E-001	-2.7036972E+002
3	0	1.124691778113556E+003	3.3783978E-001	-2.7038031E+002