EC-Lab ASCII FILE
Nb header lines : 48                          

Open Circuit Voltage

Run on channel : 1 (SN 81504)
User : 
CE vs. WE compliance from -10 V to 10 V
Electrode connection : standard
Potential control : Ewe
Ewe ctrl range : min = -2.50 V, max = 2.50 V
Safety Limits :
	Do not start on E overload
Acquisition started on : 05/07/2026 15:31:18.757
Loaded Setting File :  C:\PEM-WE_measurements\2026\372_IV_IV IrOx, 5 min Pt, 30 min C, etched cathode\new station\Loopeis new\1,46 V different time gaps open cell\Loopeis 1,46V_45s_2_PEIS from 65kHz to 10kHz.mps
Saved on :
	File : L_07_Loopeis 1,46V_45s_2_PEIS from 65kHz to 10kHz_20_OCV_C01.mpr
	Directory : C:\PEM-WE_measurements\2026\372_IV_IV IrOx, 5 min Pt, 30 min C, etched cathode\new station\Loopeis new\1,46 V different time gaps open cell\
	Host : 192.168.0.2
Device : SP-150e (SN .005491)
Address : 192.168.0.91
EC-LAB for windows v11.71 (software)
Internet server v28.00 (firmware)
Command interpretor v14.01 (firmware)
Electrode material : 
Initial state : 
Electrolyte : 
Comments : 
Current amplifier : SP-150eB-20A
Electrode surface area : 0.001 cm²
Characteristic mass : 0.001 g
Equivalent Weight : 0.000 g/eq.
Density : 0.000 g/cm3
Volume (V) : 0.001 cm³
Record Analogic IN 1
Text export
   Mode : Standard
   Time format : Elapsed
Cycle Definition : Charge/Discharge alternance
tR (h:m:s)          0:00:45.0000        
dER/dt (mV/h)       1.0                 
record              <Ewe>               
dER (mV)            10.00               
dtR (s)             0.5000              
E range min (V)     -2.500              
E range max (V)     2.500               

mode	error	time/s	<Ewe/V>	Analog IN 1/V	
3	0	8.587471949152678E+002	1.0662951E+000	6.1121522E-005
3	0	8.592471949026367E+002	1.2246611E+000	-3.4306191E-005
3	0	8.597471948900056E+002	1.1881126E+000	-1.5220648E-005
3	0	8.602471948773746E+002	1.1084881E+000	-1.5220648E-005
3	0	8.607471948647435E+002	8.4608978E-001	-1.4881945E-004
3	0	8.612471948521124E+002	4.3184879E-001	-9.1562819E-005
3	0	8.617471948394814E+002	3.2521132E-001	-5.3391734E-005
3	0	8.622471948268503E+002	3.1230146E-001	2.2950437E-005
3	0	8.627471948142193E+002	3.0471349E-001	-1.4881945E-004
3	0	8.632471948015882E+002	2.9841134E-001	6.1121522E-005
3	0	8.637471947889571E+002	2.9352161E-001	4.2035979E-005
3	0	8.642471947763261E+002	2.8974453E-001	-5.3391734E-005
3	0	8.647471947636950E+002	2.8676921E-001	3.8648941E-006
3	0	8.652471947510639E+002	2.8436291E-001	-1.1064836E-004
3	0	8.657471947384329E+002	2.8240904E-001	4.2035979E-005
3	0	8.662471947258018E+002	2.8079027E-001	4.2035979E-005
3	0	8.667471947131708E+002	2.7939972E-001	6.1121522E-005
3	0	8.672471947005397E+002	2.7818522E-001	8.0207064E-005
3	0	8.677471946879086E+002	2.7710122E-001	1.5654923E-004
3	0	8.682471946752776E+002	2.7611396E-001	-1.8699054E-004
3	0	8.687471946626465E+002	2.7519396E-001	-3.4306191E-005
3	0	8.692471946500154E+002	2.7433112E-001	-9.1562819E-005
3	0	8.697471946373844E+002	2.7354813E-001	-1.8699054E-004
3	0	8.702471946247533E+002	2.7281696E-001	-1.4881945E-004
3	0	8.707471946121223E+002	2.7214009E-001	-1.2973390E-004
3	0	8.712471945994912E+002	2.7147588E-001	-1.6790499E-004
3	0	8.717471945868601E+002	2.7083811E-001	-1.6790499E-004
3	0	8.722471945742291E+002	2.7021268E-001	2.2950437E-005
3	0	8.727471945615980E+002	2.6959085E-001	-1.1064836E-004
3	0	8.732471945489669E+002	2.6896650E-001	6.1121522E-005
3	0	8.737471945363359E+002	2.6838017E-001	-1.4881945E-004
3	0	8.742471945237048E+002	2.6782328E-001	-1.6790499E-004
3	0	8.747471945110738E+002	2.6727059E-001	-5.3391734E-005
3	0	8.752471944984427E+002	2.6673084E-001	-5.3391734E-005
3	0	8.757471944858116E+002	2.6619375E-001	-3.4306191E-005
3	0	8.762471944731806E+002	2.6566288E-001	-1.5220648E-005
3	0	8.767471944605495E+002	2.6511630E-001	3.8648941E-006
3	0	8.772471944479184E+002	2.6456335E-001	-1.5220648E-005
3	0	8.777471944352874E+002	2.6404127E-001	-1.5220648E-005
3	0	8.782471944226563E+002	2.6354301E-001	4.2035979E-005
3	0	8.787471944100253E+002	2.6304427E-001	-2.2516162E-004
3	0	8.792471943973942E+002	2.6255226E-001	-1.5220648E-005
3	0	8.797471943847631E+002	2.6205587E-001	-2.0607607E-004
3	0	8.802471943721321E+002	2.6155940E-001	-1.1064836E-004
3	0	8.807471943595010E+002	2.6104531E-001	-7.2477276E-005
3	0	8.812471943468699E+002	2.6051962E-001	-7.2477276E-005
3	0	8.817471943342389E+002	2.6003039E-001	-2.0607607E-004
3	0	8.822471943216078E+002	2.5956777E-001	3.8648941E-006
3	0	8.827471943089768E+002	2.5909802E-001	-7.2477276E-005
3	0	8.832471942963457E+002	2.5863755E-001	3.8648941E-006
3	0	8.837471942837146E+002	2.5818062E-001	6.1121522E-005
3	0	8.842471942710836E+002	2.5771835E-001	-3.4306191E-005
3	0	8.847471942584525E+002	2.5724179E-001	-1.1064836E-004
3	0	8.852471942458214E+002	2.5675431E-001	-5.3391734E-005
3	0	8.857471942331904E+002	2.5629830E-001	-3.4306191E-005
3	0	8.862471942205593E+002	2.5586495E-001	-5.3391734E-005
3	0	8.867471942079283E+002	2.5543422E-001	2.2950437E-005
3	0	8.872471941952972E+002	2.5500202E-001	6.1121522E-005
3	0	8.877471941826661E+002	2.5457659E-001	-5.3391734E-005
3	0	8.882471941700351E+002	2.5415239E-001	-2.2516162E-004
3	0	8.887471941574040E+002	2.5370550E-001	6.1121522E-005
3	0	8.892471941447729E+002	2.5324667E-001	-1.8699054E-004
3	0	8.897471941321419E+002	2.5282511E-001	-5.3391734E-005
3	0	8.902471941195108E+002	2.5241855E-001	-9.1562819E-005
3	0	8.907471941068798E+002	2.5201666E-001	-5.3391734E-005
3	0	8.912471940942487E+002	2.5161678E-001	2.2950437E-005
3	0	8.917471940816176E+002	2.5122261E-001	-7.2477276E-005
3	0	8.922471940689866E+002	2.5082225E-001	-9.1562819E-005
3	0	8.927471940563555E+002	2.5040257E-001	6.1121522E-005
3	0	8.932471940437244E+002	2.4997333E-001	3.8648941E-006
3	0	8.937471940310934E+002	2.4958414E-001	-1.1064836E-004
3	0	8.942471940184623E+002	2.4921185E-001	8.0207064E-005
3	0	8.947471940058313E+002	2.4883795E-001	3.8648941E-006
3	0	8.952471939932002E+002	2.4846715E-001	-9.1562819E-005
3	0	8.957471939805691E+002	2.4809733E-001	-7.2477276E-005
3	0	8.962471939679381E+002	2.4772775E-001	4.2035979E-005
3	0	8.967471939553070E+002	2.4733849E-001	-1.2973390E-004
3	0	8.972471939426759E+002	2.4693458E-001	-1.4881945E-004
3	0	8.977471939300449E+002	2.4657288E-001	-1.4881945E-004
3	0	8.982471939174138E+002	2.4622816E-001	-1.2973390E-004
3	0	8.987471939047828E+002	2.4588121E-001	-5.3391734E-005
3	0	8.992471938921517E+002	2.4554136E-001	6.1121522E-005
3	0	8.997471938795206E+002	2.4519897E-001	-1.5220648E-005
3	0	9.002471938668896E+002	2.4484615E-001	-3.4306191E-005
3	0	9.007471938542585E+002	2.4448434E-001	-7.2477276E-005
3	0	9.012471938416275E+002	2.4410670E-001	2.2950437E-005
3	0	9.017471938289964E+002	2.4376874E-001	-1.5220648E-005
3	0	9.022471938163653E+002	2.4344915E-001	-3.4306191E-005
3	0	9.027471938037343E+002	2.4313927E-001	-1.1064836E-004
3	0	9.032471937911032E+002	2.4282400E-001	-5.3391734E-005
3	0	9.032811937902443E+002	2.4265932E-001	-1.5220648E-005