EC-Lab ASCII FILE
Nb header lines : 55                          

Open Circuit Voltage

Run on channel : 1 (SN 81504)
User : 
CE vs. WE compliance from -10 V to 10 V
Electrode connection : standard
Potential control : Ewe
Ewe ctrl range : min = -2.50 V, max = 2.50 V
Safety Limits :
	Do not start on E overload
Acquisition started on : 05/07/2026 17:16:31.252
Loaded Setting File :  C:\PEM-WE_measurements\2026\372_IV_IV IrOx, 5 min Pt, 30 min C, etched cathode\new station\Loopeis new\1,46 V different time gaps open cell\Loopeis 1,46V_60s_3_PEIS from 6500Hz to 1000Hz.mps
Saved on :
	File : L_13_Loopeis 1,46V_60s_3_PEIS from 6500Hz to 1000Hz_20_OCV_C01.mpr
	Directory : C:\PEM-WE_measurements\2026\372_IV_IV IrOx, 5 min Pt, 30 min C, etched cathode\new station\Loopeis new\1,46 V different time gaps open cell\
	Host : 192.168.0.2
Device : SP-150e (SN .005491)
Address : 192.168.0.91
EC-LAB for windows v11.71 (software)
Internet server v28.00 (firmware)
Command interpretor v14.01 (firmware)
Electrode material : 
Initial state : 
Electrolyte : 
Comments : 
Current amplifier : SP-150eB-20A
Electrode surface area : 0.001 cm²
Characteristic mass : 0.001 g
Equivalent Weight : 0.000 g/eq.
Density : 0.000 g/cm3
Volume (V) : 0.001 cm³
Record Analogic IN 1
Text export
   Mode : Standard
   Time format : Elapsed
Cycle Definition : Charge/Discharge alternance
External device configuration :
   device type : Temperature Probe
   device name : Other
   Analog IN 1 : 
      unit : T/Â°C
      max : 100.000 at 2.000 V
      min : 0.000 at 1.460 V
tR (h:m:s)          0:01:0.0000         
dER/dt (mV/h)       1.0                 
record              <Ewe>               
dER (mV)            10.00               
dtR (s)             0.5000              
E range min (V)     -2.500              
E range max (V)     2.500               

mode	error	time/s	<Ewe/V>	Analog IN 1/V	
3	0	9.970335916602926E+002	1.0710450E+000	-2.7042273E+002
3	0	9.975335916476615E+002	1.2255409E+000	-2.7037677E+002
3	0	9.980335916350305E+002	1.1915590E+000	-2.7038385E+002
3	0	9.985335916223994E+002	1.1189954E+000	-2.7038385E+002
3	0	9.990335916097683E+002	8.9601129E-001	-2.7037677E+002
3	0	9.995335915971373E+002	4.6279192E-001	-2.7035913E+002
3	0	1.000033591584506E+003	3.3009577E-001	-2.7039093E+002
3	0	1.000533591571875E+003	3.1342357E-001	-2.7040506E+002
3	0	1.001033591559244E+003	3.0551699E-001	-2.7037677E+002
3	0	1.001533591546613E+003	2.9893908E-001	-2.7039447E+002
3	0	1.002033591533982E+003	2.9381445E-001	-2.7036972E+002
3	0	1.002533591521351E+003	2.8986859E-001	-2.7038385E+002
3	0	1.003033591508720E+003	2.8677979E-001	-2.7037677E+002
3	0	1.003533591496089E+003	2.8429267E-001	-2.7036618E+002
3	0	1.004033591483458E+003	2.8223947E-001	-2.7039801E+002
3	0	1.004533591470827E+003	2.8050306E-001	-2.7041568E+002
3	0	1.005033591458196E+003	2.7903199E-001	-2.7037677E+002
3	0	1.005533591445565E+003	2.7776930E-001	-2.7036618E+002
3	0	1.006033591432933E+003	2.7664828E-001	-2.7036618E+002
3	0	1.006533591420302E+003	2.7563903E-001	-2.7039093E+002
3	0	1.007033591407671E+003	2.7471507E-001	-2.7037677E+002
3	0	1.007533591395040E+003	2.7386406E-001	-2.7039801E+002
3	0	1.008033591382409E+003	2.7305225E-001	-2.7036972E+002
3	0	1.008533591369778E+003	2.7227685E-001	-2.7038742E+002
3	0	1.009033591357147E+003	2.7154088E-001	-2.7036267E+002
3	0	1.009533591344516E+003	2.7085844E-001	-2.7039801E+002
3	0	1.010033591331885E+003	2.7020258E-001	-2.7039801E+002
3	0	1.010533591319254E+003	2.6957726E-001	-2.7037677E+002
3	0	1.011033591306623E+003	2.6896253E-001	-2.7037677E+002
3	0	1.011533591293992E+003	2.6836014E-001	-2.7039801E+002
3	0	1.012033591281361E+003	2.6775008E-001	-2.7034851E+002
3	0	1.012533591268730E+003	2.6713428E-001	-2.7038031E+002
3	0	1.013033591256099E+003	2.6654831E-001	-2.7038031E+002
3	0	1.013533591243468E+003	2.6599723E-001	-2.7038385E+002
3	0	1.014033591230836E+003	2.6544988E-001	-2.7036972E+002
3	0	1.014533591218205E+003	2.6491103E-001	-2.7034851E+002
3	0	1.015033591205574E+003	2.6438838E-001	-2.7038031E+002
3	0	1.015533591192943E+003	2.6385957E-001	-2.7037677E+002
3	0	1.016033591180312E+003	2.6332587E-001	-2.7036618E+002
3	0	1.016533591167681E+003	2.6277292E-001	-2.7040506E+002
3	0	1.017033591155050E+003	2.6224968E-001	-2.7039447E+002
3	0	1.017533591142419E+003	2.6174709E-001	-2.7035559E+002
3	0	1.018033591129788E+003	2.6124704E-001	-2.7035913E+002
3	0	1.018533591117157E+003	2.6075366E-001	-2.7039801E+002
3	0	1.019033591104526E+003	2.6025790E-001	-2.7038031E+002
3	0	1.019533591091895E+003	2.5977162E-001	-2.7038385E+002
3	0	1.020033591079264E+003	2.5927365E-001	-2.7037677E+002
3	0	1.020533591066633E+003	2.5876188E-001	-2.7037326E+002
3	0	1.021033591054002E+003	2.5826266E-001	-2.7038031E+002
3	0	1.021533591041371E+003	2.5780380E-001	-2.7037677E+002
3	0	1.022033591028739E+003	2.5733685E-001	-2.7036972E+002
3	0	1.022533591016108E+003	2.5687382E-001	-2.7039093E+002
3	0	1.023033591003477E+003	2.5641754E-001	-2.7038385E+002
3	0	1.023533590990846E+003	2.5595534E-001	-2.7038742E+002
3	0	1.024033590978215E+003	2.5548461E-001	-2.7038742E+002
3	0	1.024533590965584E+003	2.5500137E-001	-2.7037326E+002
3	0	1.025033590952953E+003	2.5455245E-001	-2.7038385E+002
3	0	1.025533590940322E+003	2.5412461E-001	-2.7038742E+002
3	0	1.026033590927691E+003	2.5369325E-001	-2.7035913E+002
3	0	1.026533590915060E+003	2.5326318E-001	-2.7038742E+002
3	0	1.027033590902429E+003	2.5283918E-001	-2.7039093E+002
3	0	1.027533590889798E+003	2.5241110E-001	-2.7039447E+002
3	0	1.028033590877167E+003	2.5196657E-001	-2.7038385E+002
3	0	1.028533590864536E+003	2.5151071E-001	-2.7038742E+002
3	0	1.029033590851905E+003	2.5107709E-001	-2.7035559E+002
3	0	1.029533590839274E+003	2.5066689E-001	-2.7039093E+002
3	0	1.030033590826642E+003	2.5026438E-001	-2.7037326E+002
3	0	1.030533590814011E+003	2.4986388E-001	-2.7037326E+002
3	0	1.031033590801380E+003	2.4946485E-001	-2.7039093E+002
3	0	1.031533590788749E+003	2.4906415E-001	-2.7039093E+002
3	0	1.032033590776118E+003	2.4864677E-001	-2.7038742E+002
3	0	1.032533590763487E+003	2.4821520E-001	-2.7037326E+002
3	0	1.033033590750856E+003	2.4781747E-001	-2.7036618E+002
3	0	1.033533590738225E+003	2.4744904E-001	-2.7037326E+002
3	0	1.034033590725594E+003	2.4707136E-001	-2.7037326E+002
3	0	1.034533590712963E+003	2.4670431E-001	-2.7039801E+002
3	0	1.035033590700332E+003	2.4633974E-001	-2.7035913E+002
3	0	1.035533590687701E+003	2.4596508E-001	-2.7038031E+002
3	0	1.036033590675070E+003	2.4558009E-001	-2.7037326E+002
3	0	1.036533590662439E+003	2.4518493E-001	-2.7038385E+002
3	0	1.037033590649808E+003	2.4481000E-001	-2.7037326E+002
3	0	1.037533590637177E+003	2.4446161E-001	-2.7038385E+002
3	0	1.038033590624545E+003	2.4411587E-001	-2.7038742E+002
3	0	1.038533590611914E+003	2.4377187E-001	-2.7038385E+002
3	0	1.039033590599283E+003	2.4343118E-001	-2.7038031E+002
3	0	1.039533590586652E+003	2.4309137E-001	-2.7040155E+002
3	0	1.040033590574021E+003	2.4273683E-001	-2.7038031E+002
3	0	1.040533590561390E+003	2.4236512E-001	-2.7038742E+002
3	0	1.041033590548759E+003	2.4202301E-001	-2.7036618E+002
3	0	1.041533590536128E+003	2.4171251E-001	-2.7038031E+002
3	0	1.042033590523497E+003	2.4139996E-001	-2.7037326E+002
3	0	1.042533590510866E+003	2.4108140E-001	-2.7036972E+002
3	0	1.043033590498235E+003	2.4077079E-001	-2.7039093E+002
3	0	1.043533590485604E+003	2.4044974E-001	-2.7039447E+002
3	0	1.044033590472973E+003	2.4012664E-001	-2.7034851E+002
3	0	1.044533590460342E+003	2.3978795E-001	-2.7038385E+002
3	0	1.045033590447711E+003	2.3946603E-001	-2.7038742E+002
3	0	1.045533590435080E+003	2.3917592E-001	-2.7036972E+002
3	0	1.046033590422448E+003	2.3888783E-001	-2.7038385E+002
3	0	1.046533590409817E+003	2.3860294E-001	-2.7037677E+002
3	0	1.047033590397186E+003	2.3831442E-001	-2.7035559E+002
3	0	1.047533590384555E+003	2.3800956E-001	-2.7037677E+002
3	0	1.048033590371924E+003	2.3769638E-001	-2.7039093E+002
3	0	1.048533590359293E+003	2.3739076E-001	-2.7037326E+002
3	0	1.049033590346662E+003	2.3710382E-001	-2.7037677E+002
3	0	1.049533590334031E+003	2.3684701E-001	-2.7040155E+002
3	0	1.050033590321400E+003	2.3657894E-001	-2.7037677E+002
3	0	1.050533590308769E+003	2.3630562E-001	-2.7035913E+002
3	0	1.051033590296138E+003	2.3604459E-001	-2.7037677E+002
3	0	1.051533590283507E+003	2.3578916E-001	-2.7039447E+002
3	0	1.052033590270876E+003	2.3551492E-001	-2.7035205E+002
3	0	1.052533590258245E+003	2.3523124E-001	-2.7035913E+002
3	0	1.053033590245614E+003	2.3496166E-001	-2.7040155E+002
3	0	1.053533590232983E+003	2.3472077E-001	-2.7037326E+002
3	0	1.054033590220351E+003	2.3447882E-001	-2.7038385E+002
3	0	1.054533590207720E+003	2.3424163E-001	-2.7040155E+002
3	0	1.055033590195089E+003	2.3401207E-001	-2.7038031E+002
3	0	1.055533590182458E+003	2.3376869E-001	-2.7039447E+002
3	0	1.056033590169827E+003	2.3350832E-001	-2.7035205E+002
3	0	1.056533590157196E+003	2.3324779E-001	-2.7038742E+002
3	0	1.056558190156575E+003	2.3310822E-001	-2.7038742E+002