EC-Lab ASCII FILE
Nb header lines : 48                          

Open Circuit Voltage

Run on channel : 1 (SN 81504)
User : 
CE vs. WE compliance from -10 V to 10 V
Electrode connection : standard
Potential control : Ewe
Ewe ctrl range : min = -2.50 V, max = 2.50 V
Safety Limits :
	Do not start on E overload
Acquisition started on : 05/07/2026 16:58:53.259
Loaded Setting File :  C:\PEM-WE_measurements\2026\372_IV_IV IrOx, 5 min Pt, 30 min C, etched cathode\new station\Loopeis new\1,46 V different time gaps open cell\Loopeis 1,46V_60s_2_PEIS from 65kHz to 10kHz.mps
Saved on :
	File : L_12_Loopeis 1,46V_60s_2_PEIS from 65kHz to 10kHz_20_OCV_C01.mpr
	Directory : C:\PEM-WE_measurements\2026\372_IV_IV IrOx, 5 min Pt, 30 min C, etched cathode\new station\Loopeis new\1,46 V different time gaps open cell\
	Host : 192.168.0.2
Device : SP-150e (SN .005491)
Address : 192.168.0.91
EC-LAB for windows v11.71 (software)
Internet server v28.00 (firmware)
Command interpretor v14.01 (firmware)
Electrode material : 
Initial state : 
Electrolyte : 
Comments : 
Current amplifier : SP-150eB-20A
Electrode surface area : 0.001 cm²
Characteristic mass : 0.001 g
Equivalent Weight : 0.000 g/eq.
Density : 0.000 g/cm3
Volume (V) : 0.001 cm³
Record Analogic IN 1
Text export
   Mode : Standard
   Time format : Elapsed
Cycle Definition : Charge/Discharge alternance
tR (h:m:s)          0:01:0.0000         
dER/dt (mV/h)       1.0                 
record              <Ewe>               
dER (mV)            10.00               
dtR (s)             0.5000              
E range min (V)     -2.500              
E range max (V)     2.500               

mode	error	time/s	<Ewe/V>	Analog IN 1/V	
3	0	9.937781915064261E+002	1.0689322E+000	-1.4881945E-004
3	0	9.942781914937950E+002	1.2295791E+000	-3.4306191E-005
3	0	9.947781914811640E+002	1.2003151E+000	-3.4306191E-005
3	0	9.952781914685329E+002	1.1348094E+000	-1.2973390E-004
3	0	9.957781914559018E+002	9.3546575E-001	-9.1562819E-005
3	0	9.962781914432708E+002	4.8752150E-001	-1.2973390E-004
3	0	9.967781914306397E+002	3.4202641E-001	-1.1064836E-004
3	0	9.972781914180086E+002	3.2273778E-001	-1.5220648E-005
3	0	9.977781914053776E+002	3.1433561E-001	-1.1064836E-004
3	0	9.982781913927465E+002	3.0746409E-001	6.1121522E-005
3	0	9.987781913801155E+002	3.0215615E-001	-1.2973390E-004
3	0	9.992781913674844E+002	2.9809147E-001	-1.1064836E-004
3	0	9.997781913548533E+002	2.9490441E-001	-9.1562819E-005
3	0	1.000278191342222E+003	2.9236183E-001	-9.1562819E-005
3	0	1.000778191329591E+003	2.9027572E-001	-5.3391734E-005
3	0	1.001278191316960E+003	2.8852302E-001	-5.3391734E-005
3	0	1.001778191304329E+003	2.8699827E-001	-1.6790499E-004
3	0	1.002278191291698E+003	2.8565452E-001	-5.3391734E-005
3	0	1.002778191279067E+003	2.8448233E-001	9.9292607E-005
3	0	1.003278191266436E+003	2.8343439E-001	-9.1562819E-005
3	0	1.003778191253805E+003	2.8247923E-001	-3.4306191E-005
3	0	1.004278191241174E+003	2.8159848E-001	-5.3391734E-005
3	0	1.004778191228543E+003	2.8077653E-001	-1.4881945E-004
3	0	1.005278191215912E+003	2.8000414E-001	-3.4306191E-005
3	0	1.005778191203281E+003	2.7925605E-001	-1.1064836E-004
3	0	1.006278191190650E+003	2.7851456E-001	-5.3391734E-005
3	0	1.006778191178018E+003	2.7782065E-001	-3.4306191E-005
3	0	1.007278191165387E+003	2.7716973E-001	-5.3391734E-005
3	0	1.007778191152756E+003	2.7652568E-001	4.2035979E-005
3	0	1.008278191140125E+003	2.7590710E-001	9.9292607E-005
3	0	1.008778191127494E+003	2.7530453E-001	3.8648941E-006
3	0	1.009278191114863E+003	2.7471310E-001	-1.5220648E-005
3	0	1.009778191102232E+003	2.7411538E-001	-1.8699054E-004
3	0	1.010278191089601E+003	2.7351308E-001	-3.4306191E-005
3	0	1.010778191076970E+003	2.7293473E-001	-1.1064836E-004
3	0	1.011278191064339E+003	2.7238795E-001	-9.1562819E-005
3	0	1.011778191051708E+003	2.7184424E-001	3.8648941E-006
3	0	1.012278191039077E+003	2.7130187E-001	4.2035979E-005
3	0	1.012778191026446E+003	2.7077514E-001	-1.5220648E-005
3	0	1.013278191013815E+003	2.7024284E-001	-5.3391734E-005
3	0	1.013778191001184E+003	2.6970351E-001	8.0207064E-005
3	0	1.014278190988553E+003	2.6915902E-001	8.0207064E-005
3	0	1.014778190975921E+003	2.6863337E-001	-3.4306191E-005
3	0	1.015278190963290E+003	2.6813251E-001	-1.5220648E-005
3	0	1.015778190950659E+003	2.6762354E-001	1.1837815E-004
3	0	1.016278190938028E+003	2.6712707E-001	-7.2477276E-005
3	0	1.016778190925397E+003	2.6663041E-001	-7.2477276E-005
3	0	1.017278190912766E+003	2.6614189E-001	3.8648941E-006
3	0	1.017778190900135E+003	2.6563787E-001	-1.8699054E-004
3	0	1.018278190887504E+003	2.6511747E-001	-1.1064836E-004
3	0	1.018778190874873E+003	2.6463518E-001	-5.3391734E-005
3	0	1.019278190862242E+003	2.6417074E-001	-1.4881945E-004
3	0	1.019778190849611E+003	2.6370084E-001	3.8648941E-006
3	0	1.020278190836980E+003	2.6324081E-001	6.1121522E-005
3	0	1.020778190824349E+003	2.6277906E-001	3.8648941E-006
3	0	1.021278190811718E+003	2.6231512E-001	-1.5220648E-005
3	0	1.021778190799087E+003	2.6184049E-001	-1.5220648E-005
3	0	1.022278190786456E+003	2.6135817E-001	-9.1562819E-005
3	0	1.022778190773824E+003	2.6090536E-001	-7.2477276E-005
3	0	1.023278190761193E+003	2.6046899E-001	4.2035979E-005
3	0	1.023778190748562E+003	2.6002863E-001	-9.1562819E-005
3	0	1.024278190735931E+003	2.5960165E-001	-7.2477276E-005
3	0	1.024778190723300E+003	2.5917387E-001	-1.6790499E-004
3	0	1.025278190710669E+003	2.5874376E-001	-1.1064836E-004
3	0	1.025778190698038E+003	2.5830239E-001	8.0207064E-005
3	0	1.026278190685407E+003	2.5784552E-001	-1.5220648E-005
3	0	1.026778190672776E+003	2.5742522E-001	4.2035979E-005
3	0	1.027278190660145E+003	2.5701821E-001	8.0207064E-005
3	0	1.027778190647514E+003	2.5661707E-001	-1.5220648E-005
3	0	1.028278190634883E+003	2.5621876E-001	3.8648941E-006
3	0	1.028778190622252E+003	2.5582245E-001	3.8648941E-006
3	0	1.029278190609621E+003	2.5542226E-001	3.8648941E-006
3	0	1.029778190596990E+003	2.5500944E-001	2.2950437E-005
3	0	1.030278190584359E+003	2.5458974E-001	-3.4306191E-005
3	0	1.030778190571727E+003	2.5420225E-001	-1.2973390E-004
3	0	1.031278190559096E+003	2.5383213E-001	-1.5220648E-005
3	0	1.031778190546465E+003	2.5344899E-001	4.2035979E-005
3	0	1.032278190533834E+003	2.5307870E-001	-3.4306191E-005
3	0	1.032778190521203E+003	2.5270900E-001	-9.1562819E-005
3	0	1.033278190508572E+003	2.5233939E-001	-3.4306191E-005
3	0	1.033778190495941E+003	2.5194931E-001	2.2950437E-005
3	0	1.034278190483310E+003	2.5156015E-001	2.2950437E-005
3	0	1.034778190470679E+003	2.5119555E-001	-5.3391734E-005
3	0	1.035278190458048E+003	2.5085750E-001	-1.1064836E-004
3	0	1.035778190445417E+003	2.5051418E-001	-1.1064836E-004
3	0	1.036278190432786E+003	2.5017047E-001	-1.1064836E-004
3	0	1.036778190420155E+003	2.4983150E-001	2.2950437E-005
3	0	1.037278190407524E+003	2.4949400E-001	-2.4424717E-004
3	0	1.037778190394893E+003	2.4914365E-001	-5.3391734E-005
3	0	1.038278190382262E+003	2.4877672E-001	-3.4306191E-005
3	0	1.038778190369630E+003	2.4844176E-001	-1.1064836E-004
3	0	1.039278190356999E+003	2.4812335E-001	-7.2477276E-005
3	0	1.039778190344368E+003	2.4780872E-001	-2.4424717E-004
3	0	1.040278190331737E+003	2.4749066E-001	-9.1562819E-005
3	0	1.040778190319106E+003	2.4717587E-001	3.8648941E-006
3	0	1.041278190306475E+003	2.4685211E-001	9.9292607E-005
3	0	1.041778190293844E+003	2.4652022E-001	-9.1562819E-005
3	0	1.042278190281213E+003	2.4617860E-001	-9.1562819E-005
3	0	1.042778190268582E+003	2.4587001E-001	-9.1562819E-005
3	0	1.043278190255951E+003	2.4558496E-001	-9.1562819E-005
3	0	1.043778190243320E+003	2.4529447E-001	-7.2477276E-005
3	0	1.044278190230689E+003	2.4500355E-001	-5.3391734E-005
3	0	1.044778190218058E+003	2.4471596E-001	-1.6790499E-004
3	0	1.045278190205427E+003	2.4442926E-001	-5.3391734E-005
3	0	1.045778190192796E+003	2.4413078E-001	-1.4881945E-004
3	0	1.046278190180165E+003	2.4381326E-001	-9.1562819E-005
3	0	1.046778190167533E+003	2.4353206E-001	-1.8699054E-004
3	0	1.047278190154902E+003	2.4327460E-001	-3.4306191E-005
3	0	1.047778190142271E+003	2.4300748E-001	8.0207064E-005
3	0	1.048278190129640E+003	2.4274530E-001	-5.3391734E-005
3	0	1.048778190117009E+003	2.4247970E-001	-9.1562819E-005
3	0	1.049278190104378E+003	2.4218652E-001	-1.6790499E-004
3	0	1.049778190091747E+003	2.4192591E-001	6.1121522E-005
3	0	1.050278190079116E+003	2.4165572E-001	4.2035979E-005
3	0	1.050778190066485E+003	2.4141385E-001	-7.2477276E-005
3	0	1.051278190053854E+003	2.4118611E-001	-1.4881945E-004
3	0	1.051778190041223E+003	2.4094623E-001	-5.3391734E-005
3	0	1.052278190028592E+003	2.4071249E-001	-1.1064836E-004
3	0	1.052778190015961E+003	2.4047606E-001	3.8648941E-006
3	0	1.053278190003330E+003	2.4023856E-001	9.9292607E-005
3	0	1.053313190002445E+003	2.4010429E-001	-7.2477276E-005