EC-Lab ASCII FILE
Nb header lines : 48                          

Open Circuit Voltage

Run on channel : 1 (SN 81504)
User : 
CE vs. WE compliance from -10 V to 10 V
Electrode connection : standard
Potential control : Ewe
Ewe ctrl range : min = -2.50 V, max = 2.50 V
Safety Limits :
	Do not start on E overload
Acquisition started on : 05/07/2026 14:16:32.051
Loaded Setting File :  C:\PEM-WE_measurements\2026\372_IV_IV IrOx, 5 min Pt, 30 min C, etched cathode\new station\Loopeis new\1,46 V different time gaps open cell\Loopeis 1,46V_30s_2_PEIS from 65kHz to 10kHz.mps
Saved on :
	File : L_02_Loopeis 1,46V_30s_2_PEIS from 65kHz to 10kHz_10_OCV_C01.mpr
	Directory : C:\PEM-WE_measurements\2026\372_IV_IV IrOx, 5 min Pt, 30 min C, etched cathode\new station\Loopeis new\1,46 V different time gaps open cell\
	Host : 192.168.0.2
Device : SP-150e (SN .005491)
Address : 192.168.0.91
EC-LAB for windows v11.71 (software)
Internet server v28.00 (firmware)
Command interpretor v14.01 (firmware)
Electrode material : 
Initial state : 
Electrolyte : 
Comments : 
Current amplifier : SP-150eB-20A
Electrode surface area : 0.001 cm²
Characteristic mass : 0.001 g
Equivalent Weight : 0.000 g/eq.
Density : 0.000 g/cm3
Volume (V) : 0.001 cm³
Record Analogic IN 1
Text export
   Mode : Standard
   Time format : Elapsed
Cycle Definition : Charge/Discharge alternance
tR (h:m:s)          0:00:30.0000        
dER/dt (mV/h)       1.0                 
record              <Ewe>               
dER (mV)            10.00               
dtR (s)             0.5000              
E range min (V)     -2.500              
E range max (V)     2.500               

mode	error	time/s	<Ewe/V>	Analog IN 1/V	
3	0	3.462733978567849E+002	1.2498335E+000	-7.2477276E-005
3	0	3.467733978441538E+002	1.2186284E+000	2.2950437E-005
3	0	3.472733978315227E+002	1.0801001E+000	-1.1064836E-004
3	0	3.477733978188917E+002	6.1957353E-001	-1.5220648E-005
3	0	3.482733978062606E+002	3.6749262E-001	-7.2477276E-005
3	0	3.487733977936296E+002	3.3128089E-001	-1.6790499E-004
3	0	3.492733977809985E+002	3.2257074E-001	-7.2477276E-005
3	0	3.497733977683674E+002	3.1584945E-001	-1.4881945E-004
3	0	3.502733977557364E+002	3.1064591E-001	-1.8699054E-004
3	0	3.507733977431053E+002	3.0672002E-001	-9.1562819E-005
3	0	3.512733977304742E+002	3.0372804E-001	-5.3391734E-005
3	0	3.517733977178432E+002	3.0137536E-001	-5.3391734E-005
3	0	3.522733977052121E+002	2.9946718E-001	-5.3391734E-005
3	0	3.527733976925811E+002	2.9786777E-001	-5.3391734E-005
3	0	3.532733976799500E+002	2.9652238E-001	-1.4881945E-004
3	0	3.537733976673189E+002	2.9537991E-001	4.2035979E-005
3	0	3.542733976546879E+002	2.9436660E-001	2.2950437E-005
3	0	3.547733976420568E+002	2.9345196E-001	-5.3391734E-005
3	0	3.552733976294257E+002	2.9261184E-001	2.2950437E-005
3	0	3.557733976167947E+002	2.9182500E-001	-1.5220648E-005
3	0	3.562733976041636E+002	2.9106700E-001	-5.3391734E-005
3	0	3.567733975915326E+002	2.9032338E-001	-5.3391734E-005
3	0	3.572733975789015E+002	2.8962910E-001	-9.1562819E-005
3	0	3.577733975662704E+002	2.8899866E-001	8.0207064E-005
3	0	3.582733975536394E+002	2.8839213E-001	-1.2973390E-004
3	0	3.587733975410083E+002	2.8779471E-001	-9.1562819E-005
3	0	3.592733975283772E+002	2.8721163E-001	-3.4306191E-005
3	0	3.597733975157462E+002	2.8663552E-001	4.2035979E-005
3	0	3.602733975031151E+002	2.8605294E-001	2.2950437E-005
3	0	3.607733974904841E+002	2.8546301E-001	6.1121522E-005
3	0	3.612733974778530E+002	2.8488618E-001	-5.3391734E-005
3	0	3.617733974652219E+002	2.8436136E-001	-1.2973390E-004
3	0	3.622733974525909E+002	2.8383812E-001	3.8648941E-006
3	0	3.627733974399598E+002	2.8331625E-001	9.9292607E-005
3	0	3.632733974273287E+002	2.8280336E-001	3.8648941E-006
3	0	3.637733974146977E+002	2.8229922E-001	3.8648941E-006
3	0	3.642733974020666E+002	2.8177440E-001	-7.2477276E-005
3	0	3.647733973894356E+002	2.8122076E-001	-1.5220648E-005
3	0	3.652733973768045E+002	2.8069067E-001	-1.1064836E-004
3	0	3.657733973641734E+002	2.8019527E-001	8.0207064E-005
3	0	3.662733973515424E+002	2.7971727E-001	-7.2477276E-005
3	0	3.667733973389113E+002	2.7923185E-001	2.2950437E-005
3	0	3.672733973262802E+002	2.7875149E-001	-1.5220648E-005
3	0	3.677733973136492E+002	2.7826813E-001	-1.2973390E-004
3	0	3.682733973010181E+002	2.7777800E-001	-9.1562819E-005
3	0	3.687733972883871E+002	2.7726480E-001	-5.3391734E-005
3	0	3.692733972757560E+002	2.7676299E-001	-3.4306191E-005
3	0	3.697733972631249E+002	2.7629811E-001	-7.2477276E-005
3	0	3.702733972504939E+002	2.7584246E-001	-1.5220648E-005
3	0	3.707733972378628E+002	2.7538466E-001	4.2035979E-005
3	0	3.712733972252317E+002	2.7493158E-001	-9.1562819E-005
3	0	3.717733972126007E+002	2.7448258E-001	-7.2477276E-005
3	0	3.722733971999696E+002	2.7401602E-001	-7.2477276E-005
3	0	3.727733971873386E+002	2.7353320E-001	4.2035979E-005
3	0	3.732733971747075E+002	2.7306026E-001	-1.5220648E-005
3	0	3.737733971620764E+002	2.7262598E-001	-1.1064836E-004
3	0	3.742733971494454E+002	2.7221116E-001	-1.5220648E-005
3	0	3.747733971368143E+002	2.7178743E-001	-1.5220648E-005
3	0	3.752733971241832E+002	2.7136013E-001	3.8648941E-006
3	0	3.757733971115522E+002	2.7093741E-001	-7.2477276E-005
3	0	3.757737971115421E+002	2.7069327E-001	4.2035979E-005