EC-Lab ASCII FILE
Nb header lines : 56                          

Open Circuit Voltage

Run on channel : 1 (SN 81504)
User : 
CE vs. WE compliance from -10 V to 10 V
Electrode connection : standard
Potential control : Ewe
Ewe ctrl range : min = -2.50 V, max = 2.50 V
Safety Limits :
	Do not start on E overload
Acquisition started on : 05/09/2026 23:20:31.262
Loaded Setting File :  C:\PEM-WE_measurements\2026\372_IV_IV IrOx, 5 min Pt, 30 min C, etched cathode\new station\Loopeis new\1,46 V different time gaps closed cell\Loopeis 1,46V_30s_1_initial_loops.mps
Saved on :
	File : L_01_Loopeis 1,46V_30s_1_initial_loops_02_OCV_C01.mpr
	Directory : C:\PEM-WE_measurements\2026\372_IV_IV IrOx, 5 min Pt, 30 min C, etched cathode\new station\Loopeis new\1,46 V different time gaps closed cell\
	Host : 192.168.0.2
Device : SP-150e (SN .005491)
Address : 192.168.0.91
EC-LAB for windows v11.71 (software)
Internet server v28.00 (firmware)
Command interpretor v14.01 (firmware)
Electrode material : 
Initial state : 
Electrolyte : 
Comments : 
Current amplifier : SP-150eB-20A
Electrode surface area : 0.000 cm²
Characteristic mass : 0.001 g
Equivalent Weight : 0.000 g/eq.
Density : 0.000 g/cm3
Volume (V) : 0.001 cm³
Record Analogic IN 1
Record energy
Text export
   Mode : Standard
   Time format : Elapsed
Cycle Definition : Charge/Discharge alternance
External device configuration :
   device type : Temperature Probe
   device name : Other
   Analog IN 1 : 
      unit : T/Â°C
      max : 100.000 at 2.000 V
      min : 0.000 at 1.460 V
tR (h:m:s)          0:00:30.0000        
dER/dt (mV/h)       1.0                 
record              <Ewe>               
dER (mV)            10.00               
dtR (s)             0.5000              
E range min (V)     -2.500              
E range max (V)     2.500               

mode	error	time/s	<Ewe/V>	Analog IN 1/V	
3	0	4.549979885057837E+001	1.4217473E+000	-2.7036972E+002
3	0	4.599979883794731E+001	1.4139326E+000	-2.7037326E+002
3	0	4.649979882531625E+001	1.4085200E+000	-2.7037677E+002
3	0	4.699979881268519E+001	1.4045572E+000	-2.7037677E+002
3	0	4.749979880005412E+001	1.4014417E+000	-2.7038385E+002
3	0	4.799979878742306E+001	1.3988986E+000	-2.7037326E+002
3	0	4.849979877479200E+001	1.3967253E+000	-2.7039447E+002
3	0	4.899979876216094E+001	1.3947637E+000	-2.7036267E+002
3	0	4.949979874952987E+001	1.3929666E+000	-2.7038385E+002
3	0	4.999979873689881E+001	1.3913891E+000	-2.7036972E+002
3	0	5.049979872426775E+001	1.3899876E+000	-2.7040860E+002
3	0	5.099979871163669E+001	1.3887122E+000	-2.7040155E+002
3	0	5.149979869900562E+001	1.3875182E+000	-2.7035913E+002
3	0	5.199979868637456E+001	1.3864063E+000	-2.7037677E+002
3	0	5.249979867374350E+001	1.3853468E+000	-2.7040506E+002
3	0	5.299979866111244E+001	1.3842933E+000	-2.7040506E+002
3	0	5.349979864848137E+001	1.3832365E+000	-2.7036267E+002
3	0	5.399979863585031E+001	1.3822827E+000	-2.7039447E+002
3	0	5.449979862321925E+001	1.3814046E+000	-2.7035559E+002
3	0	5.499979861058819E+001	1.3805530E+000	-2.7041919E+002
3	0	5.549979859795712E+001	1.3797351E+000	-2.7038031E+002
3	0	5.599979858532606E+001	1.3789495E+000	-2.7038742E+002
3	0	5.649979857269500E+001	1.3781677E+000	-2.7036972E+002
3	0	5.699979856006394E+001	1.3773539E+000	-2.7038385E+002
3	0	5.749979854743287E+001	1.3764999E+000	-2.7036618E+002
3	0	5.799979853480181E+001	1.3757300E+000	-2.7038742E+002
3	0	5.849979852217075E+001	1.3750130E+000	-2.7036972E+002
3	0	5.899979850953969E+001	1.3743100E+000	-2.7038742E+002
3	0	5.949979849690862E+001	1.3736073E+000	-2.7037326E+002
3	0	5.999979848427756E+001	1.3729290E+000	-2.7039447E+002
3	0	6.049979847164650E+001	1.3722321E+000	-2.7036972E+002
3	0	6.099979845901544E+001	1.3714954E+000	-2.7039801E+002
3	0	6.149979844638438E+001	1.3707124E+000	-2.7037677E+002
3	0	6.199979843375331E+001	1.3700004E+000	-2.7039801E+002
3	0	6.249979842112225E+001	1.3693218E+000	-2.7037677E+002
3	0	6.299979840849119E+001	1.3686367E+000	-2.7036618E+002
3	0	6.349979839586013E+001	1.3679565E+000	-2.7035913E+002
3	0	6.399979838322906E+001	1.3672768E+000	-2.7038031E+002
3	0	6.449979837059800E+001	1.3665855E+000	-2.7036618E+002
3	0	6.499979835796694E+001	1.3658396E+000	-2.7038742E+002
3	0	6.549979834533588E+001	1.3650563E+000	-2.7038031E+002
3	0	6.599979833270481E+001	1.3643302E+000	-2.7038031E+002
3	0	6.649979832007375E+001	1.3636386E+000	-2.7038742E+002
3	0	6.699979830744269E+001	1.3629537E+000	-2.7037326E+002
3	0	6.749979829481163E+001	1.3622718E+000	-2.7039093E+002
3	0	6.799979828218056E+001	1.3615983E+000	-2.7035913E+002
3	0	6.849979826954950E+001	1.3609078E+000	-2.7036972E+002
3	0	6.899979825691844E+001	1.3601618E+000	-2.7039447E+002
3	0	6.949979824428738E+001	1.3593725E+000	-2.7037326E+002
3	0	6.999979823165631E+001	1.3586415E+000	-2.7039447E+002
3	0	7.049979821902525E+001	1.3579463E+000	-2.7038031E+002
3	0	7.099979820639419E+001	1.3572466E+000	-2.7040860E+002
3	0	7.149979819376313E+001	1.3565377E+000	-2.7038031E+002
3	0	7.199979818113206E+001	1.3558450E+000	-2.7040506E+002
3	0	7.249979816850100E+001	1.3551418E+000	-2.7039447E+002
3	0	7.299979815586994E+001	1.3543724E+000	-2.7035913E+002
3	0	7.349979814323888E+001	1.3535550E+000	-2.7036972E+002
3	0	7.399979813060781E+001	1.3528005E+000	-2.7037326E+002
3	0	7.449979811797675E+001	1.3520815E+000	-2.7036267E+002
3	0	7.499979810534569E+001	1.3513595E+000	-2.7037677E+002
3	0	7.500019810533558E+001	1.3509312E+000	-2.7036267E+002
3	0	1.205007969558937E+002	1.4219569E+000	-2.7037677E+002
3	0	1.210007969432627E+002	1.4142489E+000	-2.7038031E+002
3	0	1.215007969306316E+002	1.4087570E+000	-2.7035559E+002
3	0	1.220007969180006E+002	1.4047834E+000	-2.7038385E+002
3	0	1.225007969053695E+002	1.4016998E+000	-2.7038385E+002
3	0	1.230007968927384E+002	1.3991667E+000	-2.7038742E+002
3	0	1.235007968801074E+002	1.3970134E+000	-2.7036618E+002
3	0	1.240007968674763E+002	1.3951412E+000	-2.7040155E+002
3	0	1.245007968548452E+002	1.3934604E+000	-2.7036972E+002
3	0	1.250007968422142E+002	1.3918844E+000	-2.7035559E+002
3	0	1.255007968295831E+002	1.3903852E+000	-2.7035559E+002
3	0	1.260007968169521E+002	1.3890545E+000	-2.7040155E+002
3	0	1.265007968043210E+002	1.3878533E+000	-2.7036267E+002
3	0	1.270007967916899E+002	1.3867328E+000	-2.7036618E+002
3	0	1.275007967790589E+002	1.3856933E+000	-2.7039801E+002
3	0	1.280007967664278E+002	1.3847206E+000	-2.7039093E+002
3	0	1.285007967537967E+002	1.3837689E+000	-2.7035559E+002
3	0	1.290007967411657E+002	1.3828038E+000	-2.7037677E+002
3	0	1.295007967285346E+002	1.3818259E+000	-2.7037677E+002
3	0	1.300007967159036E+002	1.3809437E+000	-2.7038031E+002
3	0	1.305007967032725E+002	1.3801253E+000	-2.7037677E+002
3	0	1.310007966906414E+002	1.3793390E+000	-2.7038385E+002
3	0	1.315007966780104E+002	1.3785721E+000	-2.7036972E+002
3	0	1.320007966653793E+002	1.3778414E+000	-2.7036972E+002
3	0	1.325007966527482E+002	1.3771098E+000	-2.7038031E+002
3	0	1.330007966401172E+002	1.3763381E+000	-2.7040506E+002
3	0	1.335007966274861E+002	1.3755307E+000	-2.7038742E+002
3	0	1.340007966148551E+002	1.3748081E+000	-2.7036972E+002
3	0	1.345007966022240E+002	1.3741273E+000	-2.7036972E+002
3	0	1.350007965895929E+002	1.3734546E+000	-2.7038742E+002
3	0	1.355007965769619E+002	1.3727798E+000	-2.7038385E+002
3	0	1.360007965643308E+002	1.3721279E+000	-2.7038385E+002
3	0	1.365007965516998E+002	1.3714560E+000	-2.7037677E+002
3	0	1.370007965390687E+002	1.3707365E+000	-2.7036972E+002
3	0	1.375007965264376E+002	1.3699783E+000	-2.7038742E+002
3	0	1.380007965138066E+002	1.3692811E+000	-2.7036972E+002
3	0	1.385007965011755E+002	1.3686143E+000	-2.7039447E+002
3	0	1.390007964885444E+002	1.3679612E+000	-2.7037326E+002
3	0	1.395007964759134E+002	1.3673061E+000	-2.7035913E+002
3	0	1.400007964632823E+002	1.3666562E+000	-2.7039093E+002
3	0	1.405007964506513E+002	1.3659818E+000	-2.7038742E+002
3	0	1.410007964380202E+002	1.3652598E+000	-2.7039801E+002
3	0	1.415007964253891E+002	1.3644912E+000	-2.7038031E+002
3	0	1.420007964127581E+002	1.3637753E+000	-2.7037326E+002
3	0	1.425007964001270E+002	1.3630875E+000	-2.7036267E+002
3	0	1.430007963874959E+002	1.3623915E+000	-2.7039093E+002
3	0	1.435007963748649E+002	1.3616946E+000	-2.7036267E+002
3	0	1.440007963622338E+002	1.3610022E+000	-2.7039093E+002
3	0	1.445007963496028E+002	1.3602912E+000	-2.7039093E+002
3	0	1.450007963369717E+002	1.3595195E+000	-2.7036972E+002
3	0	1.455007963243406E+002	1.3586880E+000	-2.7037677E+002
3	0	1.460007963117096E+002	1.3579204E+000	-2.7037677E+002
3	0	1.465007962990785E+002	1.3571860E+000	-2.7037326E+002
3	0	1.470007962864474E+002	1.3564397E+000	-2.7039801E+002
3	0	1.475007962738164E+002	1.3556957E+000	-2.7037326E+002
3	0	1.480007962611853E+002	1.3549614E+000	-2.7039801E+002
3	0	1.485007962485543E+002	1.3542080E+000	-2.7037677E+002
3	0	1.490007962359232E+002	1.3533975E+000	-2.7036972E+002
3	0	1.495007962232921E+002	1.3525267E+000	-2.7039093E+002
3	0	1.500007962106611E+002	1.3517324E+000	-2.7039801E+002
3	0	1.500011962106510E+002	1.3513892E+000	-2.7038742E+002
3	0	1.955017950612091E+002	1.4218277E+000	-2.7036618E+002
3	0	1.960017950485781E+002	1.4141972E+000	-2.7038742E+002
3	0	1.965017950359470E+002	1.4088643E+000	-2.7036618E+002
3	0	1.970017950233159E+002	1.4049067E+000	-2.7037677E+002
3	0	1.975017950106849E+002	1.4017090E+000	-2.7039801E+002
3	0	1.980017949980538E+002	1.3991145E+000	-2.7037326E+002
3	0	1.985017949854227E+002	1.3969389E+000	-2.7038385E+002
3	0	1.990017949727917E+002	1.3950598E+000	-2.7038742E+002
3	0	1.995017949601606E+002	1.3934025E+000	-2.7037677E+002
3	0	2.000017949475296E+002	1.3919178E+000	-2.7040155E+002
3	0	2.005017949348985E+002	1.3905454E+000	-2.7038031E+002
3	0	2.010017949222674E+002	1.3892334E+000	-2.7037677E+002
3	0	2.015017949096364E+002	1.3879504E+000	-2.7038742E+002
3	0	2.020017948970053E+002	1.3868064E+000	-2.7036972E+002
3	0	2.025017948843742E+002	1.3857529E+000	-2.7038385E+002
3	0	2.030017948717432E+002	1.3847637E+000	-2.7037326E+002
3	0	2.035017948591121E+002	1.3838202E+000	-2.7038385E+002
3	0	2.040017948464811E+002	1.3829230E+000	-2.7035559E+002
3	0	2.045017948338500E+002	1.3820510E+000	-2.7036618E+002
3	0	2.050017948212189E+002	1.3811467E+000	-2.7035559E+002
3	0	2.055017948085879E+002	1.3802133E+000	-2.7037326E+002
3	0	2.060017947959568E+002	1.3793678E+000	-2.7038031E+002
3	0	2.065017947833257E+002	1.3785632E+000	-2.7039093E+002
3	0	2.070017947706947E+002	1.3777920E+000	-2.7036267E+002
3	0	2.075017947580636E+002	1.3770380E+000	-2.7039447E+002
3	0	2.080017947454326E+002	1.3763051E+000	-2.7035559E+002
3	0	2.085017947328015E+002	1.3755683E+000	-2.7037677E+002
3	0	2.090017947201704E+002	1.3748053E+000	-2.7039093E+002
3	0	2.095017947075394E+002	1.3740153E+000	-2.7037326E+002
3	0	2.100017946949083E+002	1.3732851E+000	-2.7036972E+002
3	0	2.105017946822773E+002	1.3725873E+000	-2.7036267E+002
3	0	2.110017946696462E+002	1.3719062E+000	-2.7040155E+002
3	0	2.115017946570151E+002	1.3712307E+000	-2.7037677E+002
3	0	2.120017946443841E+002	1.3705754E+000	-2.7036618E+002
3	0	2.125017946317530E+002	1.3699093E+000	-2.7038742E+002
3	0	2.130017946191219E+002	1.3691760E+000	-2.7038385E+002
3	0	2.135017946064909E+002	1.3684074E+000	-2.7035559E+002
3	0	2.140017945938598E+002	1.3677013E+000	-2.7039093E+002
3	0	2.145017945812288E+002	1.3670148E+000	-2.7036267E+002
3	0	2.150017945685977E+002	1.3663344E+000	-2.7037326E+002
3	0	2.155017945559666E+002	1.3656491E+000	-2.7037677E+002
3	0	2.160017945433356E+002	1.3649822E+000	-2.7037677E+002
3	0	2.165017945307045E+002	1.3642986E+000	-2.7038742E+002
3	0	2.170017945180734E+002	1.3635564E+000	-2.7035205E+002
3	0	2.175017945054424E+002	1.3627787E+000	-2.7039093E+002
3	0	2.180017944928113E+002	1.3620687E+000	-2.7035913E+002
3	0	2.185017944801803E+002	1.3613596E+000	-2.7038031E+002
3	0	2.190017944675492E+002	1.3606671E+000	-2.7038031E+002
3	0	2.195017944549181E+002	1.3599678E+000	-2.7036972E+002
3	0	2.200017944422871E+002	1.3592676E+000	-2.7039447E+002
3	0	2.205017944296560E+002	1.3585515E+000	-2.7038385E+002
3	0	2.210017944170249E+002	1.3577800E+000	-2.7037326E+002
3	0	2.215017944043939E+002	1.3569647E+000	-2.7036972E+002
3	0	2.220017943917628E+002	1.3562094E+000	-2.7038031E+002
3	0	2.225017943791318E+002	1.3554658E+000	-2.7038031E+002
3	0	2.230017943665007E+002	1.3547242E+000	-2.7037326E+002
3	0	2.235017943538696E+002	1.3539815E+000	-2.7035205E+002
3	0	2.240017943412386E+002	1.3532330E+000	-2.7034497E+002
3	0	2.245017943286075E+002	1.3524575E+000	-2.7037326E+002
3	0	2.250017943159764E+002	1.3516310E+000	-2.7037677E+002
3	0	2.250021943159663E+002	1.3512269E+000	-2.7039801E+002
3	0	2.705027931665245E+002	1.4216868E+000	-2.7039093E+002
3	0	2.710027931538934E+002	1.4140272E+000	-2.7039093E+002
3	0	2.715027931412624E+002	1.4087006E+000	-2.7039801E+002
3	0	2.720027931286313E+002	1.4048314E+000	-2.7039447E+002
3	0	2.725027931160002E+002	1.4017674E+000	-2.7037326E+002
3	0	2.730027931033692E+002	1.3991717E+000	-2.7037326E+002
3	0	2.735027930907381E+002	1.3968872E+000	-2.7037677E+002
3	0	2.740027930781071E+002	1.3949469E+000	-2.7038031E+002
3	0	2.745027930654760E+002	1.3932660E+000	-2.7038742E+002
3	0	2.750027930528449E+002	1.3917515E+000	-2.7039093E+002
3	0	2.755027930402139E+002	1.3903828E+000	-2.7038385E+002
3	0	2.760027930275828E+002	1.3891368E+000	-2.7038742E+002
3	0	2.765027930149517E+002	1.3879607E+000	-2.7035913E+002
3	0	2.770027930023207E+002	1.3867903E+000	-2.7038031E+002
3	0	2.775027929896896E+002	1.3856374E+000	-2.7039093E+002
3	0	2.780027929770586E+002	1.3846196E+000	-2.7039093E+002
3	0	2.785027929644275E+002	1.3836811E+000	-2.7036972E+002
3	0	2.790027929517964E+002	1.3827831E+000	-2.7036267E+002
3	0	2.795027929391654E+002	1.3819232E+000	-2.7036267E+002
3	0	2.800027929265343E+002	1.3811005E+000	-2.7035205E+002
3	0	2.805027929139032E+002	1.3802874E+000	-2.7038742E+002
3	0	2.810027929012722E+002	1.3794382E+000	-2.7040860E+002
3	0	2.815027928886411E+002	1.3785683E+000	-2.7038742E+002
3	0	2.820027928760101E+002	1.3777839E+000	-2.7037677E+002
3	0	2.825027928633790E+002	1.3770509E+000	-2.7037677E+002
3	0	2.830027928507479E+002	1.3763405E+000	-2.7037677E+002
3	0	2.835027928381169E+002	1.3756334E+000	-2.7037326E+002
3	0	2.840027928254858E+002	1.3749490E+000	-2.7036618E+002
3	0	2.845027928128548E+002	1.3742527E+000	-2.7038031E+002
3	0	2.850027928002237E+002	1.3734922E+000	-2.7040155E+002
3	0	2.855027927875926E+002	1.3726918E+000	-2.7037326E+002
3	0	2.860027927749616E+002	1.3719614E+000	-2.7036618E+002
3	0	2.865027927623305E+002	1.3712696E+000	-2.7036267E+002
3	0	2.870027927496994E+002	1.3705825E+000	-2.7035913E+002
3	0	2.875027927370684E+002	1.3699020E+000	-2.7039093E+002
3	0	2.880027927244373E+002	1.3692200E+000	-2.7037326E+002
3	0	2.885027927118063E+002	1.3685213E+000	-2.7036267E+002
3	0	2.890027926991752E+002	1.3677804E+000	-2.7040155E+002
3	0	2.895027926865441E+002	1.3669831E+000	-2.7038385E+002
3	0	2.900027926739131E+002	1.3662562E+000	-2.7038031E+002
3	0	2.905027926612820E+002	1.3655695E+000	-2.7040506E+002
3	0	2.910027926486509E+002	1.3648882E+000	-2.7036972E+002
3	0	2.915027926360199E+002	1.3642039E+000	-2.7038385E+002
3	0	2.920027926233888E+002	1.3635156E+000	-2.7039801E+002
3	0	2.925027926107578E+002	1.3628106E+000	-2.7035913E+002
3	0	2.930027925981267E+002	1.3620481E+000	-2.7037326E+002
3	0	2.935027925854956E+002	1.3612384E+000	-2.7036972E+002
3	0	2.940027925728646E+002	1.3605057E+000	-2.7036618E+002
3	0	2.945027925602335E+002	1.3598081E+000	-2.7039447E+002
3	0	2.950027925476024E+002	1.3590983E+000	-2.7039093E+002
3	0	2.955027925349714E+002	1.3583912E+000	-2.7039801E+002
3	0	2.960027925223403E+002	1.3576777E+000	-2.7039093E+002
3	0	2.965027925097093E+002	1.3569453E+000	-2.7037326E+002
3	0	2.970027924970782E+002	1.3561480E+000	-2.7039447E+002
3	0	2.975027924844471E+002	1.3553071E+000	-2.7038742E+002
3	0	2.980027924718161E+002	1.3545433E+000	-2.7038385E+002
3	0	2.985027924591850E+002	1.3537970E+000	-2.7036618E+002
3	0	2.990027924465539E+002	1.3530492E+000	-2.7040155E+002
3	0	2.995027924339229E+002	1.3522977E+000	-2.7037677E+002
3	0	3.000027924212918E+002	1.3515536E+000	-2.7038742E+002
3	0	3.000031924212817E+002	1.3511316E+000	-2.7039801E+002
3	0	3.455037912718399E+002	1.4218957E+000	-2.7036267E+002
3	0	3.460037912592088E+002	1.4142787E+000	-2.7038742E+002
3	0	3.465037912465777E+002	1.4089742E+000	-2.7036618E+002
3	0	3.470037912339467E+002	1.4050961E+000	-2.7038031E+002
3	0	3.475037912213156E+002	1.4020349E+000	-2.7038385E+002
3	0	3.480037912086846E+002	1.3995183E+000	-2.7039093E+002
3	0	3.485037911960535E+002	1.3973655E+000	-2.7039447E+002
3	0	3.490037911834224E+002	1.3954071E+000	-2.7036618E+002
3	0	3.495037911707914E+002	1.3936049E+000	-2.7037326E+002
3	0	3.500037911581603E+002	1.3920280E+000	-2.7038742E+002
3	0	3.505037911455292E+002	1.3906268E+000	-2.7037677E+002
3	0	3.510037911328982E+002	1.3893455E+000	-2.7038385E+002
3	0	3.515037911202671E+002	1.3881586E+000	-2.7038031E+002
3	0	3.520037911076361E+002	1.3870382E+000	-2.7037326E+002
3	0	3.525037910950050E+002	1.3859762E+000	-2.7037326E+002
3	0	3.530037910823739E+002	1.3849125E+000	-2.7038742E+002
3	0	3.535037910697429E+002	1.3838525E+000	-2.7039447E+002
3	0	3.540037910571118E+002	1.3828888E+000	-2.7040155E+002
3	0	3.545037910444807E+002	1.3820179E+000	-2.7036972E+002
3	0	3.550037910318497E+002	1.3811769E+000	-2.7039801E+002
3	0	3.555037910192186E+002	1.3803663E+000	-2.7036972E+002
3	0	3.560037910065876E+002	1.3795887E+000	-2.7035559E+002
3	0	3.565037909939565E+002	1.3788077E+000	-2.7037677E+002
3	0	3.570037909813254E+002	1.3779904E+000	-2.7034851E+002
3	0	3.575037909686944E+002	1.3771422E+000	-2.7038742E+002
3	0	3.580037909560633E+002	1.3763822E+000	-2.7040155E+002
3	0	3.585037909434323E+002	1.3756713E+000	-2.7038385E+002
3	0	3.590037909308012E+002	1.3749754E+000	-2.7037677E+002
3	0	3.595037909181701E+002	1.3742942E+000	-2.7039801E+002
3	0	3.600037909055391E+002	1.3736188E+000	-2.7037677E+002
3	0	3.605037908929080E+002	1.3729347E+000	-2.7036267E+002
3	0	3.610037908802769E+002	1.3721983E+000	-2.7037326E+002
3	0	3.615037908676459E+002	1.3714169E+000	-2.7036972E+002
3	0	3.620037908550148E+002	1.3707081E+000	-2.7038031E+002
3	0	3.625037908423838E+002	1.3700484E+000	-2.7036618E+002
3	0	3.630037908297527E+002	1.3693867E+000	-2.7036972E+002
3	0	3.635037908171216E+002	1.3687147E+000	-2.7038742E+002
3	0	3.640037908044906E+002	1.3680493E+000	-2.7039447E+002
3	0	3.645037907918595E+002	1.3673614E+000	-2.7038031E+002
3	0	3.650037907792284E+002	1.3666122E+000	-2.7034497E+002
3	0	3.655037907665974E+002	1.3658112E+000	-2.7039093E+002
3	0	3.660037907539663E+002	1.3650787E+000	-2.7036618E+002
3	0	3.665037907413353E+002	1.3643874E+000	-2.7037326E+002
3	0	3.670037907287042E+002	1.3636794E+000	-2.7037677E+002
3	0	3.675037907160731E+002	1.3629774E+000	-2.7035913E+002
3	0	3.680037907034421E+002	1.3622787E+000	-2.7038031E+002
3	0	3.685037906908110E+002	1.3615533E+000	-2.7036618E+002
3	0	3.690037906781799E+002	1.3607672E+000	-2.7039093E+002
3	0	3.695037906655489E+002	1.3599408E+000	-2.7038031E+002
3	0	3.700037906529178E+002	1.3591787E+000	-2.7039447E+002
3	0	3.705037906402868E+002	1.3584495E+000	-2.7035913E+002
3	0	3.710037906276557E+002	1.3577176E+000	-2.7035559E+002
3	0	3.715037906150246E+002	1.3569820E+000	-2.7037326E+002
3	0	3.720037906023936E+002	1.3562490E+000	-2.7035559E+002
3	0	3.725037905897625E+002	1.3555038E+000	-2.7036972E+002
3	0	3.730037905771314E+002	1.3546962E+000	-2.7035559E+002
3	0	3.735037905645004E+002	1.3538303E+000	-2.7038742E+002
3	0	3.740037905518693E+002	1.3530383E+000	-2.7036618E+002
3	0	3.745037905392383E+002	1.3522880E+000	-2.7038742E+002
3	0	3.750037905266072E+002	1.3515280E+000	-2.7037677E+002
3	0	3.750041905265971E+002	1.3510839E+000	-2.7039447E+002
3	0	4.205047893771552E+002	1.4220769E+000	-2.7038031E+002
3	0	4.210047893645242E+002	1.4144806E+000	-2.7037677E+002
3	0	4.215047893518931E+002	1.4090264E+000	-2.7034851E+002
3	0	4.220047893392621E+002	1.4050725E+000	-2.7040155E+002
3	0	4.225047893266310E+002	1.4020059E+000	-2.7037677E+002
3	0	4.230047893139999E+002	1.3994851E+000	-2.7038031E+002
3	0	4.235047893013689E+002	1.3973403E+000	-2.7038031E+002
3	0	4.240047892887378E+002	1.3954712E+000	-2.7037326E+002
3	0	4.245047892761067E+002	1.3938000E+000	-2.7038031E+002
3	0	4.250047892634757E+002	1.3922188E+000	-2.7034497E+002
3	0	4.255047892508446E+002	1.3907084E+000	-2.7041919E+002
3	0	4.260047892382136E+002	1.3893738E+000	-2.7040506E+002
3	0	4.265047892255825E+002	1.3881700E+000	-2.7038742E+002
3	0	4.270047892129514E+002	1.3870426E+000	-2.7040155E+002
3	0	4.275047892003204E+002	1.3859683E+000	-2.7038742E+002
3	0	4.280047891876893E+002	1.3849686E+000	-2.7036267E+002
3	0	4.285047891750582E+002	1.3839995E+000	-2.7039801E+002
3	0	4.290047891624272E+002	1.3830128E+000	-2.7038031E+002
3	0	4.295047891497961E+002	1.3820102E+000	-2.7038031E+002
3	0	4.300047891371651E+002	1.3811063E+000	-2.7038385E+002
3	0	4.305047891245340E+002	1.3802751E+000	-2.7037326E+002
3	0	4.310047891119029E+002	1.3794651E+000	-2.7036618E+002
3	0	4.315047890992719E+002	1.3786814E+000	-2.7036618E+002
3	0	4.320047890866408E+002	1.3779228E+000	-2.7038385E+002
3	0	4.325047890740098E+002	1.3771695E+000	-2.7039447E+002
3	0	4.330047890613787E+002	1.3763790E+000	-2.7039801E+002
3	0	4.335047890487476E+002	1.3755480E+000	-2.7040860E+002
3	0	4.340047890361166E+002	1.3748056E+000	-2.7039093E+002
3	0	4.345047890234855E+002	1.3741131E+000	-2.7036618E+002
3	0	4.350047890108544E+002	1.3734263E+000	-2.7037326E+002
3	0	4.355047889982234E+002	1.3727431E+000	-2.7038031E+002
3	0	4.360047889855923E+002	1.3720672E+000	-2.7040155E+002
3	0	4.365047889729613E+002	1.3713808E+000	-2.7039447E+002
3	0	4.370047889603302E+002	1.3706447E+000	-2.7035205E+002
3	0	4.375047889476991E+002	1.3698715E+000	-2.7038385E+002
3	0	4.380047889350681E+002	1.3691678E+000	-2.7035559E+002
3	0	4.385047889224370E+002	1.3684998E+000	-2.7036972E+002
3	0	4.390047889098059E+002	1.3678354E+000	-2.7038385E+002
3	0	4.395047888971749E+002	1.3671706E+000	-2.7036618E+002
3	0	4.400047888845438E+002	1.3665076E+000	-2.7036267E+002
3	0	4.405047888719128E+002	1.3658241E+000	-2.7037677E+002
3	0	4.410047888592817E+002	1.3650917E+000	-2.7039801E+002
3	0	4.415047888466506E+002	1.3643101E+000	-2.7036972E+002
3	0	4.420047888340196E+002	1.3635873E+000	-2.7034497E+002
3	0	4.425047888213885E+002	1.3629026E+000	-2.7037326E+002
3	0	4.430047888087574E+002	1.3622150E+000	-2.7038385E+002
3	0	4.435047887961264E+002	1.3615199E+000	-2.7039801E+002
3	0	4.440047887834953E+002	1.3608315E+000	-2.7037326E+002
3	0	4.445047887708643E+002	1.3601295E+000	-2.7036267E+002
3	0	4.450047887582332E+002	1.3593601E+000	-2.7039093E+002
3	0	4.455047887456021E+002	1.3585315E+000	-2.7035205E+002
3	0	4.460047887329711E+002	1.3577598E+000	-2.7037677E+002
3	0	4.465047887203400E+002	1.3570217E+000	-2.7038385E+002
3	0	4.470047887077089E+002	1.3562715E+000	-2.7038031E+002
3	0	4.475047886950779E+002	1.3555189E+000	-2.7037326E+002
3	0	4.480047886824468E+002	1.3547711E+000	-2.7035205E+002
3	0	4.485047886698158E+002	1.3539991E+000	-2.7038385E+002
3	0	4.490047886571847E+002	1.3531580E+000	-2.7040155E+002
3	0	4.495047886445536E+002	1.3522791E+000	-2.7037326E+002
3	0	4.500047886319226E+002	1.3514591E+000	-2.7035913E+002
3	0	4.500051886319125E+002	1.3510456E+000	-2.7038385E+002
3	0	4.955057874824706E+002	1.4219098E+000	-2.7038742E+002
3	0	4.960057874698396E+002	1.4143615E+000	-2.7036618E+002
3	0	4.965057874572085E+002	1.4090737E+000	-2.7038031E+002
3	0	4.970057874445774E+002	1.4051375E+000	-2.7036972E+002
3	0	4.975057874319464E+002	1.4019508E+000	-2.7038742E+002
3	0	4.980057874193153E+002	1.3993571E+000	-2.7036972E+002
3	0	4.985057874066842E+002	1.3971912E+000	-2.7034851E+002
3	0	4.990057873940532E+002	1.3953044E+000	-2.7040155E+002
3	0	4.995057873814221E+002	1.3936362E+000	-2.7038742E+002
3	0	5.000057873687911E+002	1.3921343E+000	-2.7039447E+002
3	0	5.005057873561600E+002	1.3907429E+000	-2.7038742E+002
3	0	5.010057873435289E+002	1.3894080E+000	-2.7037677E+002
3	0	5.015057873308979E+002	1.3881127E+000	-2.7039447E+002
3	0	5.020057873182668E+002	1.3869528E+000	-2.7036267E+002
3	0	5.025057873056357E+002	1.3858985E+000	-2.7038742E+002
3	0	5.030057872930047E+002	1.3849009E+000	-2.7038385E+002
3	0	5.035057872803736E+002	1.3839576E+000	-2.7039447E+002
3	0	5.040057872677426E+002	1.3830535E+000	-2.7038742E+002
3	0	5.045057872551115E+002	1.3821744E+000	-2.7037677E+002
3	0	5.050057872424804E+002	1.3812717E+000	-2.7039447E+002
3	0	5.055057872298494E+002	1.3803388E+000	-2.7038385E+002
3	0	5.060057872172183E+002	1.3794957E+000	-2.7036267E+002
3	0	5.065057872045873E+002	1.3787018E+000	-2.7040506E+002
3	0	5.070057871919562E+002	1.3779248E+000	-2.7036618E+002
3	0	5.075057871793251E+002	1.3771626E+000	-2.7038031E+002
3	0	5.080057871666941E+002	1.3764211E+000	-2.7038385E+002
3	0	5.085057871540630E+002	1.3756704E+000	-2.7041568E+002
3	0	5.090057871414319E+002	1.3748869E+000	-2.7037326E+002
3	0	5.095057871288009E+002	1.3740697E+000	-2.7039093E+002
3	0	5.100057871161698E+002	1.3733178E+000	-2.7037677E+002
3	0	5.105057871035388E+002	1.3726145E+000	-2.7037677E+002
3	0	5.110057870909077E+002	1.3719188E+000	-2.7037677E+002
3	0	5.115057870782766E+002	1.3712265E+000	-2.7039801E+002
3	0	5.120057870656456E+002	1.3705534E+000	-2.7037677E+002
3	0	5.125057870530145E+002	1.3698665E+000	-2.7037326E+002
3	0	5.130057870403834E+002	1.3691180E+000	-2.7037677E+002
3	0	5.135057870277524E+002	1.3683375E+000	-2.7038031E+002
3	0	5.140057870151213E+002	1.3676190E+000	-2.7039447E+002
3	0	5.145057870024903E+002	1.3669301E+000	-2.7035913E+002
3	0	5.150057869898592E+002	1.3662428E+000	-2.7035913E+002
3	0	5.155057869772281E+002	1.3655605E+000	-2.7035559E+002
3	0	5.160057869645971E+002	1.3648927E+000	-2.7038742E+002
3	0	5.165057869519660E+002	1.3642018E+000	-2.7034143E+002
3	0	5.170057869393349E+002	1.3634529E+000	-2.7039093E+002
3	0	5.175057869267039E+002	1.3626572E+000	-2.7037326E+002
3	0	5.180057869140728E+002	1.3619258E+000	-2.7038385E+002
3	0	5.185057869014418E+002	1.3612267E+000	-2.7038742E+002
3	0	5.190057868888107E+002	1.3605311E+000	-2.7037326E+002
3	0	5.195057868761796E+002	1.3598280E+000	-2.7039093E+002
3	0	5.200057868635486E+002	1.3591264E+000	-2.7038031E+002
3	0	5.205057868509175E+002	1.3584003E+000	-2.7039093E+002
3	0	5.210057868382864E+002	1.3576164E+000	-2.7036972E+002
3	0	5.215057868256554E+002	1.3567842E+000	-2.7038031E+002
3	0	5.220057868130243E+002	1.3560095E+000	-2.7039093E+002
3	0	5.225057868003933E+002	1.3552847E+000	-2.7036972E+002
3	0	5.230057867877622E+002	1.3545461E+000	-2.7036267E+002
3	0	5.235057867751311E+002	1.3537836E+000	-2.7038385E+002
3	0	5.240057867625001E+002	1.3530293E+000	-2.7036972E+002
3	0	5.245057867498690E+002	1.3522656E+000	-2.7038742E+002
3	0	5.250057867372379E+002	1.3514338E+000	-2.7037326E+002
3	0	5.250061867372278E+002	1.3509312E+000	-2.7038031E+002
3	0	5.705067855877860E+002	1.4218396E+000	-2.7040506E+002
3	0	5.710067855751549E+002	1.4142610E+000	-2.7039801E+002
3	0	5.715067855625239E+002	1.4089749E+000	-2.7035559E+002
3	0	5.720067855498928E+002	1.4051241E+000	-2.7036618E+002
3	0	5.725067855372617E+002	1.4020665E+000	-2.7039093E+002
3	0	5.730067855246307E+002	1.3994712E+000	-2.7038742E+002
3	0	5.735067855119996E+002	1.3971897E+000	-2.7038031E+002
3	0	5.740067854993686E+002	1.3952422E+000	-2.7038031E+002
3	0	5.745067854867375E+002	1.3935471E+000	-2.7039093E+002
3	0	5.750067854741064E+002	1.3920140E+000	-2.7039447E+002
3	0	5.755067854614754E+002	1.3906168E+000	-2.7036267E+002
3	0	5.760067854488443E+002	1.3893465E+000	-2.7036972E+002
3	0	5.765067854362132E+002	1.3881575E+000	-2.7039801E+002
3	0	5.770067854235822E+002	1.3869756E+000	-2.7037326E+002
3	0	5.775067854109511E+002	1.3858182E+000	-2.7039447E+002
3	0	5.780067853983201E+002	1.3847823E+000	-2.7040155E+002
3	0	5.785067853856890E+002	1.3838303E+000	-2.7038742E+002
3	0	5.790067853730579E+002	1.3829128E+000	-2.7036618E+002
3	0	5.795067853604269E+002	1.3820337E+000	-2.7036267E+002
3	0	5.800067853477958E+002	1.3811983E+000	-2.7037326E+002
3	0	5.805067853351648E+002	1.3803712E+000	-2.7039801E+002
3	0	5.810067853225337E+002	1.3795192E+000	-2.7035205E+002
3	0	5.815067853099026E+002	1.3786439E+000	-2.7037326E+002
3	0	5.820067852972716E+002	1.3778511E+000	-2.7038742E+002
3	0	5.825067852846405E+002	1.3771085E+000	-2.7039093E+002
3	0	5.830067852720094E+002	1.3763803E+000	-2.7036267E+002
3	0	5.835067852593784E+002	1.3756803E+000	-2.7038385E+002
3	0	5.840067852467473E+002	1.3749861E+000	-2.7038742E+002
3	0	5.845067852341163E+002	1.3742998E+000	-2.7038031E+002
3	0	5.850067852214852E+002	1.3735405E+000	-2.7039447E+002
3	0	5.855067852088541E+002	1.3727510E+000	-2.7039447E+002
3	0	5.860067851962231E+002	1.3720336E+000	-2.7037326E+002
3	0	5.865067851835920E+002	1.3713417E+000	-2.7037677E+002
3	0	5.870067851709609E+002	1.3706473E+000	-2.7036972E+002
3	0	5.875067851583299E+002	1.3699641E+000	-2.7036972E+002
3	0	5.880067851456988E+002	1.3692799E+000	-2.7037677E+002
3	0	5.885067851330678E+002	1.3685720E+000	-2.7034497E+002
3	0	5.890067851204367E+002	1.3678217E+000	-2.7038742E+002
3	0	5.895067851078056E+002	1.3670212E+000	-2.7039093E+002
3	0	5.900067850951746E+002	1.3662866E+000	-2.7039093E+002
3	0	5.905067850825435E+002	1.3655831E+000	-2.7036618E+002
3	0	5.910067850699124E+002	1.3648955E+000	-2.7038385E+002
3	0	5.915067850572814E+002	1.3641950E+000	-2.7039093E+002
3	0	5.920067850446503E+002	1.3634952E+000	-2.7038031E+002
3	0	5.925067850320193E+002	1.3627838E+000	-2.7040155E+002
3	0	5.930067850193882E+002	1.3620164E+000	-2.7036618E+002
3	0	5.935067850067571E+002	1.3612093E+000	-2.7039801E+002
3	0	5.940067849941261E+002	1.3604667E+000	-2.7039093E+002
3	0	5.945067849814950E+002	1.3597543E+000	-2.7039801E+002
3	0	5.950067849688639E+002	1.3590431E+000	-2.7038031E+002
3	0	5.955067849562329E+002	1.3583269E+000	-2.7038742E+002
3	0	5.960067849436018E+002	1.3576093E+000	-2.7037326E+002
3	0	5.965067849309708E+002	1.3568751E+000	-2.7037677E+002
3	0	5.970067849183397E+002	1.3560791E+000	-2.7037677E+002
3	0	5.975067849057086E+002	1.3552502E+000	-2.7038742E+002
3	0	5.980067848930776E+002	1.3544823E+000	-2.7037677E+002
3	0	5.985067848804465E+002	1.3537250E+000	-2.7036267E+002
3	0	5.990067848678154E+002	1.3529725E+000	-2.7038742E+002
3	0	5.995067848551844E+002	1.3522224E+000	-2.7036972E+002
3	0	6.000067848425533E+002	1.3514754E+000	-2.7039093E+002
3	0	6.000071848425432E+002	1.3511316E+000	-2.7038742E+002
3	0	6.455077836931014E+002	1.4218118E+000	-2.7035913E+002
3	0	6.460077836804703E+002	1.4142145E+000	-2.7034851E+002
3	0	6.465077836678392E+002	1.4089217E+000	-2.7038742E+002
3	0	6.470077836552082E+002	1.4050596E+000	-2.7038385E+002
3	0	6.475077836425771E+002	1.4020180E+000	-2.7036618E+002
3	0	6.480077836299461E+002	1.3995075E+000	-2.7035913E+002
3	0	6.485077836173150E+002	1.3973397E+000	-2.7039801E+002
3	0	6.490077836046839E+002	1.3953727E+000	-2.7037677E+002
3	0	6.495077835920529E+002	1.3935606E+000	-2.7040155E+002
3	0	6.500077835794218E+002	1.3919764E+000	-2.7038385E+002
3	0	6.505077835667907E+002	1.3905638E+000	-2.7036972E+002
3	0	6.510077835541597E+002	1.3892609E+000	-2.7038031E+002
3	0	6.515077835415286E+002	1.3880688E+000	-2.7039801E+002
3	0	6.520077835288976E+002	1.3869386E+000	-2.7038742E+002
3	0	6.525077835162665E+002	1.3858643E+000	-2.7036972E+002
3	0	6.530077835036354E+002	1.3847911E+000	-2.7040155E+002
3	0	6.535077834910044E+002	1.3837235E+000	-2.7038385E+002
3	0	6.540077834783733E+002	1.3827595E+000	-2.7036972E+002
3	0	6.545077834657423E+002	1.3818645E+000	-2.7036267E+002
3	0	6.550077834531112E+002	1.3810141E+000	-2.7037677E+002
3	0	6.555077834404801E+002	1.3801975E+000	-2.7037677E+002
3	0	6.560077834278491E+002	1.3794127E+000	-2.7038031E+002
3	0	6.565077834152180E+002	1.3786254E+000	-2.7039093E+002
3	0	6.570077834025869E+002	1.3778011E+000	-2.7035913E+002
3	0	6.575077833899559E+002	1.3769561E+000	-2.7037326E+002
3	0	6.580077833773248E+002	1.3761926E+000	-2.7039093E+002
3	0	6.585077833646938E+002	1.3754625E+000	-2.7036972E+002
3	0	6.590077833520627E+002	1.3747674E+000	-2.7040155E+002
3	0	6.595077833394316E+002	1.3740754E+000	-2.7036972E+002
3	0	6.600077833268006E+002	1.3733984E+000	-2.7039447E+002
3	0	6.605077833141695E+002	1.3727058E+000	-2.7036972E+002
3	0	6.610077833015384E+002	1.3719673E+000	-2.7037677E+002
3	0	6.615077832889074E+002	1.3711919E+000	-2.7039093E+002
3	0	6.620077832762763E+002	1.3704842E+000	-2.7035205E+002
3	0	6.625077832636453E+002	1.3698128E+000	-2.7035913E+002
3	0	6.630077832510142E+002	1.3691404E+000	-2.7036972E+002
3	0	6.635077832383831E+002	1.3684759E+000	-2.7038031E+002
3	0	6.640077832257521E+002	1.3678142E+000	-2.7038031E+002
3	0	6.645077832131210E+002	1.3671310E+000	-2.7036267E+002
3	0	6.650077832004899E+002	1.3663927E+000	-2.7039801E+002
3	0	6.655077831878589E+002	1.3656112E+000	-2.7038385E+002
3	0	6.660077831752278E+002	1.3648994E+000	-2.7036972E+002
3	0	6.665077831625968E+002	1.3641981E+000	-2.7038742E+002
3	0	6.670077831499657E+002	1.3634977E+000	-2.7036618E+002
3	0	6.675077831373346E+002	1.3627940E+000	-2.7038385E+002
3	0	6.680077831247036E+002	1.3620992E+000	-2.7037677E+002
3	0	6.685077831120725E+002	1.3613733E+000	-2.7038742E+002
3	0	6.690077830994414E+002	1.3605958E+000	-2.7037677E+002
3	0	6.695077830868104E+002	1.3597769E+000	-2.7038742E+002
3	0	6.700077830741793E+002	1.3590124E+000	-2.7035559E+002
3	0	6.705077830615483E+002	1.3582712E+000	-2.7036972E+002
3	0	6.710077830489172E+002	1.3575269E+000	-2.7038031E+002
3	0	6.715077830362861E+002	1.3567908E+000	-2.7037677E+002
3	0	6.720077830236551E+002	1.3560473E+000	-2.7038742E+002
3	0	6.725077830110240E+002	1.3553010E+000	-2.7036267E+002
3	0	6.730077829983929E+002	1.3544879E+000	-2.7032730E+002
3	0	6.735077829857619E+002	1.3536364E+000	-2.7039447E+002
3	0	6.740077829731308E+002	1.3528374E+000	-2.7036267E+002
3	0	6.745077829604998E+002	1.3520702E+000	-2.7038385E+002
3	0	6.750077829478687E+002	1.3513069E+000	-2.7037677E+002
3	0	6.750081829478586E+002	1.3509026E+000	-2.7039447E+002
3	0	7.205087817984167E+002	1.4220300E+000	-2.7037326E+002
3	0	7.210087817857857E+002	1.4144416E+000	-2.7035913E+002
3	0	7.215087817731546E+002	1.4090234E+000	-2.7037677E+002
3	0	7.220087817605236E+002	1.4051067E+000	-2.7040155E+002
3	0	7.225087817478925E+002	1.4020431E+000	-2.7036972E+002
3	0	7.230087817352614E+002	1.3995240E+000	-2.7039801E+002
3	0	7.235087817226304E+002	1.3973792E+000	-2.7038742E+002
3	0	7.240087817099993E+002	1.3955117E+000	-2.7036267E+002
3	0	7.245087816973682E+002	1.3938320E+000	-2.7039447E+002
3	0	7.250087816847372E+002	1.3922522E+000	-2.7034851E+002
3	0	7.255087816721061E+002	1.3907533E+000	-2.7036618E+002
3	0	7.260087816594751E+002	1.3894290E+000	-2.7039801E+002
3	0	7.265087816468440E+002	1.3882260E+000	-2.7038031E+002
3	0	7.270087816342129E+002	1.3871006E+000	-2.7037677E+002
3	0	7.275087816215819E+002	1.3860335E+000	-2.7037326E+002
3	0	7.280087816089508E+002	1.3850390E+000	-2.7037677E+002
3	0	7.285087815963198E+002	1.3840637E+000	-2.7037677E+002
3	0	7.290087815836887E+002	1.3830651E+000	-2.7039093E+002
3	0	7.295087815710576E+002	1.3820503E+000	-2.7038031E+002
3	0	7.300087815584266E+002	1.3811470E+000	-2.7036972E+002
3	0	7.305087815457955E+002	1.3802944E+000	-2.7036972E+002
3	0	7.310087815331644E+002	1.3794768E+000	-2.7036972E+002
3	0	7.315087815205334E+002	1.3786865E+000	-2.7039093E+002
3	0	7.320087815079023E+002	1.3779190E+000	-2.7037326E+002
3	0	7.325087814952713E+002	1.3771545E+000	-2.7039801E+002
3	0	7.330087814826402E+002	1.3763518E+000	-2.7036618E+002
3	0	7.335087814700091E+002	1.3755200E+000	-2.7038031E+002
3	0	7.340087814573781E+002	1.3747805E+000	-2.7036267E+002
3	0	7.345087814447470E+002	1.3740680E+000	-2.7036972E+002
3	0	7.350087814321159E+002	1.3733691E+000	-2.7038031E+002
3	0	7.355087814194849E+002	1.3726789E+000	-2.7038031E+002
3	0	7.360087814068538E+002	1.3720013E+000	-2.7038031E+002
3	0	7.365087813942228E+002	1.3713074E+000	-2.7036972E+002
3	0	7.370087813815917E+002	1.3705601E+000	-2.7035913E+002
3	0	7.375087813689606E+002	1.3697885E+000	-2.7036267E+002
3	0	7.380087813563296E+002	1.3690739E+000	-2.7035559E+002
3	0	7.385087813436985E+002	1.3684025E+000	-2.7036972E+002
3	0	7.390087813310674E+002	1.3677275E+000	-2.7039447E+002
3	0	7.395087813184364E+002	1.3670602E+000	-2.7038742E+002
3	0	7.400087813058053E+002	1.3663960E+000	-2.7037677E+002
3	0	7.405087812931743E+002	1.3657093E+000	-2.7038742E+002
3	0	7.410087812805432E+002	1.3649689E+000	-2.7036972E+002
3	0	7.415087812679121E+002	1.3641857E+000	-2.7038385E+002
3	0	7.420087812552811E+002	1.3634667E+000	-2.7038742E+002
3	0	7.425087812426500E+002	1.3627689E+000	-2.7035559E+002
3	0	7.430087812300189E+002	1.3620756E+000	-2.7035559E+002
3	0	7.435087812173879E+002	1.3613820E+000	-2.7037677E+002
3	0	7.440087812047568E+002	1.3606951E+000	-2.7039447E+002
3	0	7.445087811921258E+002	1.3599918E+000	-2.7040155E+002
3	0	7.450087811794947E+002	1.3592225E+000	-2.7038385E+002
3	0	7.455087811668636E+002	1.3584089E+000	-2.7038385E+002
3	0	7.460087811542326E+002	1.3576540E+000	-2.7037326E+002
3	0	7.465087811416015E+002	1.3569177E+000	-2.7038742E+002
3	0	7.470087811289704E+002	1.3561761E+000	-2.7038742E+002
3	0	7.475087811163394E+002	1.3554451E+000	-2.7036618E+002
3	0	7.480087811037083E+002	1.3547068E+000	-2.7036618E+002
3	0	7.485087810910773E+002	1.3539258E+000	-2.7041568E+002
3	0	7.490087810784462E+002	1.3530892E+000	-2.7035913E+002
3	0	7.495087810658151E+002	1.3522050E+000	-2.7038031E+002
3	0	7.500087810531841E+002	1.3513848E+000	-2.7037677E+002
3	0	7.500091810531740E+002	1.3509693E+000	-2.7038031E+002
3	0	7.955097799037321E+002	1.4218752E+000	-2.7037677E+002
3	0	7.960097798911011E+002	1.4143852E+000	-2.7037326E+002
3	0	7.965097798784700E+002	1.4091508E+000	-2.7037326E+002
3	0	7.970097798658389E+002	1.4052527E+000	-2.7038031E+002
3	0	7.975097798532079E+002	1.4020797E+000	-2.7035913E+002
3	0	7.980097798405768E+002	1.3995010E+000	-2.7036618E+002
3	0	7.985097798279457E+002	1.3973258E+000	-2.7038742E+002
3	0	7.990097798153147E+002	1.3954331E+000	-2.7039801E+002
3	0	7.995097798026836E+002	1.3937647E+000	-2.7038742E+002
3	0	8.000097797900526E+002	1.3922669E+000	-2.7038031E+002
3	0	8.005097797774215E+002	1.3908722E+000	-2.7038385E+002
3	0	8.010097797647904E+002	1.3895223E+000	-2.7037677E+002
3	0	8.015097797521594E+002	1.3882236E+000	-2.7036618E+002
3	0	8.020097797395283E+002	1.3870565E+000	-2.7038742E+002
3	0	8.025097797268973E+002	1.3859763E+000	-2.7036972E+002
3	0	8.030097797142662E+002	1.3849728E+000	-2.7039093E+002
3	0	8.035097797016351E+002	1.3840253E+000	-2.7038742E+002
3	0	8.040097796890041E+002	1.3831258E+000	-2.7039093E+002
3	0	8.045097796763730E+002	1.3822453E+000	-2.7036972E+002
3	0	8.050097796637419E+002	1.3813328E+000	-2.7037326E+002
3	0	8.055097796511109E+002	1.3804095E+000	-2.7038385E+002
3	0	8.060097796384798E+002	1.3795736E+000	-2.7037326E+002
3	0	8.065097796258488E+002	1.3787801E+000	-2.7034851E+002
3	0	8.070097796132177E+002	1.3780105E+000	-2.7038385E+002
3	0	8.075097796005866E+002	1.3772632E+000	-2.7037677E+002
3	0	8.080097795879556E+002	1.3765284E+000	-2.7035913E+002
3	0	8.085097795753245E+002	1.3757857E+000	-2.7037326E+002
3	0	8.090097795626934E+002	1.3749923E+000	-2.7036618E+002
3	0	8.095097795500624E+002	1.3741730E+000	-2.7037677E+002
3	0	8.100097795374313E+002	1.3734229E+000	-2.7039447E+002
3	0	8.105097795248003E+002	1.3727008E+000	-2.7036267E+002
3	0	8.110097795121692E+002	1.3720002E+000	-2.7036972E+002
3	0	8.115097794995381E+002	1.3713101E+000	-2.7037677E+002
3	0	8.120097794869071E+002	1.3705961E+000	-2.7039093E+002
3	0	8.125097794742760E+002	1.3698654E+000	-2.7036618E+002
3	0	8.130097794616449E+002	1.3691136E+000	-2.7038031E+002
3	0	8.135097794490139E+002	1.3683444E+000	-2.7036267E+002
3	0	8.140097794363828E+002	1.3676453E+000	-2.7038031E+002
3	0	8.145097794237518E+002	1.3669463E+000	-2.7037677E+002
3	0	8.150097794111207E+002	1.3662537E+000	-2.7037326E+002
3	0	8.155097793984896E+002	1.3655727E+000	-2.7037326E+002
3	0	8.160097793858586E+002	1.3649001E+000	-2.7039447E+002
3	0	8.165097793732275E+002	1.3642057E+000	-2.7036972E+002
3	0	8.170097793605964E+002	1.3634459E+000	-2.7039801E+002
3	0	8.175097793479654E+002	1.3626587E+000	-2.7040155E+002
3	0	8.180097793353343E+002	1.3619463E+000	-2.7038742E+002
3	0	8.185097793227033E+002	1.3612337E+000	-2.7036618E+002
3	0	8.190097793100722E+002	1.3605376E+000	-2.7038742E+002
3	0	8.195097792974411E+002	1.3598381E+000	-2.7035913E+002
3	0	8.200097792848101E+002	1.3591437E+000	-2.7036972E+002
3	0	8.205097792721790E+002	1.3584186E+000	-2.7037326E+002
3	0	8.210097792595479E+002	1.3576317E+000	-2.7038385E+002
3	0	8.215097792469169E+002	1.3568135E+000	-2.7035913E+002
3	0	8.220097792342858E+002	1.3560656E+000	-2.7037326E+002
3	0	8.225097792216548E+002	1.3553299E+000	-2.7036267E+002
3	0	8.230097792090237E+002	1.3546007E+000	-2.7035205E+002
3	0	8.235097791963926E+002	1.3538616E+000	-2.7036972E+002
3	0	8.240097791837616E+002	1.3531227E+000	-2.7037326E+002
3	0	8.245097791711305E+002	1.3523626E+000	-2.7039093E+002
3	0	8.250097791584994E+002	1.3515439E+000	-2.7036972E+002
3	0	8.250101791584893E+002	1.3510551E+000	-2.7039801E+002