EC-Lab ASCII FILE
Nb header lines : 55                          

Open Circuit Voltage

Run on channel : 1 (SN 81504)
User : 
CE vs. WE compliance from -10 V to 10 V
Electrode connection : standard
Potential control : Ewe
Ewe ctrl range : min = -2.50 V, max = 2.50 V
Safety Limits :
	Do not start on E overload
Acquisition started on : 05/07/2026 19:04:33.160
Loaded Setting File :  C:\PEM-WE_measurements\2026\372_IV_IV IrOx, 5 min Pt, 30 min C, etched cathode\new station\Loopeis new\1,46 V different time gaps open cell\Loopeis 1,46V_90s_3_PEIS from 6500Hz to 1000Hz.mps
Saved on :
	File : L_18_Loopeis 1,46V_90s_3_PEIS from 6500Hz to 1000Hz_14_OCV_C01.mpr
	Directory : C:\PEM-WE_measurements\2026\372_IV_IV IrOx, 5 min Pt, 30 min C, etched cathode\new station\Loopeis new\1,46 V different time gaps open cell\
	Host : 192.168.0.2
Device : SP-150e (SN .005491)
Address : 192.168.0.91
EC-LAB for windows v11.71 (software)
Internet server v28.00 (firmware)
Command interpretor v14.01 (firmware)
Electrode material : 
Initial state : 
Electrolyte : 
Comments : 
Current amplifier : SP-150eB-20A
Electrode surface area : 0.001 cm²
Characteristic mass : 0.001 g
Equivalent Weight : 0.000 g/eq.
Density : 0.000 g/cm3
Volume (V) : 0.001 cm³
Record Analogic IN 1
Text export
   Mode : Standard
   Time format : Elapsed
Cycle Definition : Charge/Discharge alternance
External device configuration :
   device type : Temperature Probe
   device name : Other
   Analog IN 1 : 
      unit : T/Â°C
      max : 100.000 at 2.000 V
      min : 0.000 at 1.460 V
tR (h:m:s)          0:01:30.0000        
dER/dt (mV/h)       1.0                 
record              <Ewe>               
dER (mV)            10.00               
dtR (s)             0.5000              
E range min (V)     -2.500              
E range max (V)     2.500               

mode	error	time/s	<Ewe/V>	Analog IN 1/V	
3	0	8.578651883227576E+002	1.2680340E+000	-2.7039093E+002
3	0	8.583651883101265E+002	1.2530893E+000	-2.7038385E+002
3	0	8.588651882974955E+002	1.1918279E+000	-2.7038031E+002
3	0	8.593651882848644E+002	1.0566732E+000	-2.7039447E+002
3	0	8.598651882722334E+002	6.2521672E-001	-2.7037326E+002
3	0	8.603651882596023E+002	3.6540070E-001	-2.7037677E+002
3	0	8.608651882469712E+002	3.2539555E-001	-2.7040506E+002
3	0	8.613651882343402E+002	3.1630537E-001	-2.7039093E+002
3	0	8.618651882217091E+002	3.0898261E-001	-2.7038742E+002
3	0	8.623651882090780E+002	3.0316600E-001	-2.7036267E+002
3	0	8.628651881964470E+002	2.9872248E-001	-2.7039447E+002
3	0	8.633651881838159E+002	2.9530317E-001	-2.7038031E+002
3	0	8.638651881711849E+002	2.9261443E-001	-2.7038385E+002
3	0	8.643651881585538E+002	2.9043007E-001	-2.7037326E+002
3	0	8.648651881459227E+002	2.8862199E-001	-2.7037326E+002
3	0	8.653651881332917E+002	2.8707743E-001	-2.7039447E+002
3	0	8.658651881206606E+002	2.8571540E-001	-2.7037677E+002
3	0	8.663651881080295E+002	2.8449503E-001	-2.7036267E+002
3	0	8.668651880953985E+002	2.8343007E-001	-2.7037326E+002
3	0	8.673651880827674E+002	2.8247336E-001	-2.7036972E+002
3	0	8.678651880701364E+002	2.8158996E-001	-2.7036972E+002
3	0	8.683651880575053E+002	2.8076062E-001	-2.7036972E+002
3	0	8.688651880448742E+002	2.7998134E-001	-2.7038031E+002
3	0	8.693651880322432E+002	2.7922630E-001	-2.7035205E+002
3	0	8.698651880196121E+002	2.7848777E-001	-2.7039447E+002
3	0	8.703651880069810E+002	2.7776140E-001	-2.7038742E+002
3	0	8.708651879943500E+002	2.7709830E-001	-2.7036972E+002
3	0	8.713651879817189E+002	2.7646327E-001	-2.7036618E+002
3	0	8.718651879690879E+002	2.7584094E-001	-2.7034143E+002
3	0	8.723651879564568E+002	2.7522475E-001	-2.7038031E+002
3	0	8.728651879438257E+002	2.7463776E-001	-2.7039801E+002
3	0	8.733651879311947E+002	2.7404717E-001	-2.7034143E+002
3	0	8.738651879185636E+002	2.7344179E-001	-2.7036267E+002
3	0	8.743651879059325E+002	2.7282625E-001	-2.7039093E+002
3	0	8.748651878933015E+002	2.7226359E-001	-2.7037677E+002
3	0	8.753651878806704E+002	2.7171683E-001	-2.7036267E+002
3	0	8.758651878680394E+002	2.7116805E-001	-2.7037326E+002
3	0	8.763651878554083E+002	2.7063727E-001	-2.7038742E+002
3	0	8.768651878427772E+002	2.7010256E-001	-2.7036972E+002
3	0	8.773651878301462E+002	2.6957533E-001	-2.7038385E+002
3	0	8.778651878175151E+002	2.6902264E-001	-2.7035559E+002
3	0	8.783651878048840E+002	2.6846361E-001	-2.7039093E+002
3	0	8.788651877922530E+002	2.6793715E-001	-2.7039093E+002
3	0	8.793651877796219E+002	2.6743561E-001	-2.7035205E+002
3	0	8.798651877669909E+002	2.6693407E-001	-2.7036618E+002
3	0	8.803651877543598E+002	2.6643151E-001	-2.7038742E+002
3	0	8.808651877417287E+002	2.6593783E-001	-2.7035559E+002
3	0	8.813651877290977E+002	2.6544559E-001	-2.7040155E+002
3	0	8.818651877164666E+002	2.6492590E-001	-2.7036618E+002
3	0	8.823651877038355E+002	2.6441252E-001	-2.7038385E+002
3	0	8.828651876912045E+002	2.6392668E-001	-2.7039093E+002
3	0	8.833651876785734E+002	2.6346204E-001	-2.7036972E+002
3	0	8.838651876659424E+002	2.6299396E-001	-2.7036267E+002
3	0	8.843651876533113E+002	2.6252973E-001	-2.7039093E+002
3	0	8.848651876406802E+002	2.6206517E-001	-2.7036618E+002
3	0	8.853651876280492E+002	2.6159486E-001	-2.7037326E+002
3	0	8.858651876154181E+002	2.6111269E-001	-2.7040155E+002
3	0	8.863651876027870E+002	2.6062441E-001	-2.7039801E+002
3	0	8.868651875901560E+002	2.6016694E-001	-2.7040155E+002
3	0	8.873651875775249E+002	2.5973386E-001	-2.7035913E+002
3	0	8.878651875648939E+002	2.5930759E-001	-2.7036972E+002
3	0	8.883651875522628E+002	2.5887334E-001	-2.7038031E+002
3	0	8.888651875396317E+002	2.5844339E-001	-2.7037677E+002
3	0	8.893651875270007E+002	2.5800404E-001	-2.7036972E+002
3	0	8.898651875143696E+002	2.5755033E-001	-2.7036267E+002
3	0	8.903651875017385E+002	2.5708279E-001	-2.7037326E+002
3	0	8.908651874891075E+002	2.5666431E-001	-2.7039447E+002
3	0	8.913651874764764E+002	2.5626427E-001	-2.7037326E+002
3	0	8.918651874638454E+002	2.5586236E-001	-2.7038031E+002
3	0	8.923651874512143E+002	2.5546223E-001	-2.7038385E+002
3	0	8.928651874385832E+002	2.5506413E-001	-2.7038031E+002
3	0	8.933651874259522E+002	2.5466561E-001	-2.7039447E+002
3	0	8.938651874133211E+002	2.5424933E-001	-2.7039093E+002
3	0	8.943651874006900E+002	2.5382358E-001	-2.7037677E+002
3	0	8.948651873880590E+002	2.5343737E-001	-2.7038031E+002
3	0	8.953651873754279E+002	2.5307170E-001	-2.7041919E+002
3	0	8.958651873627969E+002	2.5270212E-001	-2.7038742E+002
3	0	8.963651873501658E+002	2.5233370E-001	-2.7034143E+002
3	0	8.968651873375347E+002	2.5196448E-001	-2.7036618E+002
3	0	8.973651873249037E+002	2.5159222E-001	-2.7035913E+002
3	0	8.978651873122726E+002	2.5120053E-001	-2.7039801E+002
3	0	8.983651872996415E+002	2.5079894E-001	-2.7040506E+002
3	0	8.988651872870105E+002	2.5044057E-001	-2.7037677E+002
3	0	8.993651872743794E+002	2.5010315E-001	-2.7036618E+002
3	0	8.998651872617484E+002	2.4976732E-001	-2.7038031E+002
3	0	9.003651872491173E+002	2.4942803E-001	-2.7040155E+002
3	0	9.008651872364862E+002	2.4909513E-001	-2.7034143E+002
3	0	9.013651872238552E+002	2.4874574E-001	-2.7035559E+002
3	0	9.018651872112241E+002	2.4838002E-001	-2.7037677E+002
3	0	9.023651871985930E+002	2.4801517E-001	-2.7035559E+002
3	0	9.028651871859620E+002	2.4768272E-001	-2.7038742E+002
3	0	9.033651871733309E+002	2.4737157E-001	-2.7037326E+002
3	0	9.038651871606999E+002	2.4705975E-001	-2.7038742E+002
3	0	9.043651871480688E+002	2.4674457E-001	-2.7036972E+002
3	0	9.048651871354377E+002	2.4643895E-001	-2.7035913E+002
3	0	9.053651871228067E+002	2.4612483E-001	-2.7039093E+002
3	0	9.058651871101756E+002	2.4579242E-001	-2.7036972E+002
3	0	9.063651870975445E+002	2.4544616E-001	-2.7039093E+002
3	0	9.068651870849135E+002	2.4514215E-001	-2.7037677E+002
3	0	9.073651870722824E+002	2.4485296E-001	-2.7039447E+002
3	0	9.078651870596514E+002	2.4456276E-001	-2.7037677E+002
3	0	9.083651870470203E+002	2.4427675E-001	-2.7036618E+002
3	0	9.088651870343892E+002	2.4398768E-001	-2.7036618E+002
3	0	9.093651870217582E+002	2.4369228E-001	-2.7036267E+002
3	0	9.098651870091271E+002	2.4338204E-001	-2.7035559E+002
3	0	9.103651869964961E+002	2.4306160E-001	-2.7039093E+002
3	0	9.108651869838650E+002	2.4278158E-001	-2.7038742E+002
3	0	9.113651869712339E+002	2.4252638E-001	-2.7035559E+002
3	0	9.118651869586029E+002	2.4226287E-001	-2.7036267E+002
3	0	9.123651869459718E+002	2.4200369E-001	-2.7038031E+002
3	0	9.128651869333407E+002	2.4174796E-001	-2.7035913E+002
3	0	9.133651869207097E+002	2.4147809E-001	-2.7037326E+002
3	0	9.138651869080786E+002	2.4118407E-001	-2.7037326E+002
3	0	9.143651868954476E+002	2.4087989E-001	-2.7037326E+002
3	0	9.148651868828165E+002	2.4063040E-001	-2.7038031E+002
3	0	9.153651868701854E+002	2.4039638E-001	-2.7038031E+002
3	0	9.158651868575544E+002	2.4015844E-001	-2.7036972E+002
3	0	9.163651868449233E+002	2.3991835E-001	-2.7035205E+002
3	0	9.168651868322922E+002	2.3968381E-001	-2.7037677E+002
3	0	9.173651868196612E+002	2.3943447E-001	-2.7035913E+002
3	0	9.178651868070301E+002	2.3916805E-001	-2.7039801E+002
3	0	9.183651867943991E+002	2.3889762E-001	-2.7039447E+002
3	0	9.188651867817680E+002	2.3866400E-001	-2.7038385E+002
3	0	9.193651867691369E+002	2.3844518E-001	-2.7038385E+002
3	0	9.198651867565059E+002	2.3823121E-001	-2.7036267E+002
3	0	9.203651867438748E+002	2.3801258E-001	-2.7037326E+002
3	0	9.208651867312437E+002	2.3779199E-001	-2.7037326E+002
3	0	9.213651867186127E+002	2.3756376E-001	-2.7039093E+002
3	0	9.218651867059816E+002	2.3731185E-001	-2.7039093E+002
3	0	9.223651866933506E+002	2.3706195E-001	-2.7037677E+002
3	0	9.228651866807195E+002	2.3684749E-001	-2.7039447E+002
3	0	9.233651866680884E+002	2.3665531E-001	-2.7037677E+002
3	0	9.238651866554574E+002	2.3646115E-001	-2.7038385E+002
3	0	9.243651866428263E+002	2.3626083E-001	-2.7037326E+002
3	0	9.248651866301952E+002	2.3606186E-001	-2.7041214E+002
3	0	9.253651866175642E+002	2.3585546E-001	-2.7039447E+002
3	0	9.258651866049331E+002	2.3563568E-001	-2.7036972E+002
3	0	9.263651865923021E+002	2.3540738E-001	-2.7038742E+002
3	0	9.268651865796710E+002	2.3521613E-001	-2.7036618E+002
3	0	9.273651865670399E+002	2.3503368E-001	-2.7038742E+002
3	0	9.278651865544089E+002	2.3484468E-001	-2.7036618E+002
3	0	9.283651865417778E+002	2.3466237E-001	-2.7036618E+002
3	0	9.288651865291467E+002	2.3447475E-001	-2.7038385E+002
3	0	9.293651865165157E+002	2.3428763E-001	-2.7038742E+002
3	0	9.298651865038846E+002	2.3407409E-001	-2.7040155E+002
3	0	9.303651864912536E+002	2.3384960E-001	-2.7038385E+002
3	0	9.308651864786225E+002	2.3366868E-001	-2.7039447E+002
3	0	9.313651864659914E+002	2.3350607E-001	-2.7037326E+002
3	0	9.318651864533604E+002	2.3334217E-001	-2.7037677E+002
3	0	9.323651864407293E+002	2.3317496E-001	-2.7036267E+002
3	0	9.328651864280982E+002	2.3301259E-001	-2.7040155E+002
3	0	9.333651864154672E+002	2.3283429E-001	-2.7038031E+002
3	0	9.338651864028361E+002	2.3263431E-001	-2.7036618E+002
3	0	9.343651863902051E+002	2.3242609E-001	-2.7039093E+002
3	0	9.348651863775740E+002	2.3226373E-001	-2.7038385E+002
3	0	9.353651863649429E+002	2.3212120E-001	-2.7034143E+002
3	0	9.358651863523119E+002	2.3197292E-001	-2.7040860E+002
3	0	9.363651863396808E+002	2.3182286E-001	-2.7039093E+002
3	0	9.368651863270497E+002	2.3167388E-001	-2.7038031E+002
3	0	9.373651863144187E+002	2.3150882E-001	-2.7039447E+002
3	0	9.378651863017876E+002	2.3132572E-001	-2.7038031E+002
3	0	9.383651862891566E+002	2.3112833E-001	-2.7038742E+002
3	0	9.388651862765255E+002	2.3097821E-001	-2.7038385E+002
3	0	9.393651862638944E+002	2.3084737E-001	-2.7037677E+002
3	0	9.398651862512634E+002	2.3070760E-001	-2.7035913E+002
3	0	9.403651862386323E+002	2.3056911E-001	-2.7037326E+002
3	0	9.408651862260012E+002	2.3043470E-001	-2.7039447E+002
3	0	9.413651862133702E+002	2.3028830E-001	-2.7038031E+002
3	0	9.418651862007391E+002	2.3012486E-001	-2.7035559E+002
3	0	9.423651861881081E+002	2.2994083E-001	-2.7036618E+002
3	0	9.428651861754770E+002	2.2979860E-001	-2.7036267E+002
3	0	9.433651861628459E+002	2.2968052E-001	-2.7038385E+002
3	0	9.438651861502149E+002	2.2955345E-001	-2.7039093E+002
3	0	9.443651861375838E+002	2.2942382E-001	-2.7039093E+002
3	0	9.448651861249527E+002	2.2929132E-001	-2.7037677E+002
3	0	9.453651861123217E+002	2.2915477E-001	-2.7039447E+002
3	0	9.458651860996906E+002	2.2899693E-001	-2.7039447E+002
3	0	9.463651860870596E+002	2.2882563E-001	-2.7038385E+002
3	0	9.468651860744285E+002	2.2869180E-001	-2.7036267E+002
3	0	9.473651860617974E+002	2.2857898E-001	-2.7037677E+002
3	0	9.473655860617873E+002	2.2848932E-001	-2.7039447E+002