EC-Lab ASCII FILE
Nb header lines : 55                          

Open Circuit Voltage

Run on channel : 1 (SN 81504)
User : 
CE vs. WE compliance from -10 V to 10 V
Electrode connection : standard
Potential control : Ewe
Ewe ctrl range : min = -2.50 V, max = 2.50 V
Safety Limits :
	Do not start on E overload
Acquisition started on : 05/10/2026 04:16:10.113
Loaded Setting File :  C:\PEM-WE_measurements\2026\372_IV_IV IrOx, 5 min Pt, 30 min C, etched cathode\new station\Loopeis new\1,46 V different time gaps closed cell\Loopeis 1,46V_90s_3_PEIS from 6500Hz to 1000Hz.mps
Saved on :
	File : L_18_Loopeis 1,46V_90s_3_PEIS from 6500Hz to 1000Hz_16_OCV_C01.mpr
	Directory : C:\PEM-WE_measurements\2026\372_IV_IV IrOx, 5 min Pt, 30 min C, etched cathode\new station\Loopeis new\1,46 V different time gaps closed cell\
	Host : 192.168.0.2
Device : SP-150e (SN .005491)
Address : 192.168.0.91
EC-LAB for windows v11.71 (software)
Internet server v28.00 (firmware)
Command interpretor v14.01 (firmware)
Electrode material : 
Initial state : 
Electrolyte : 
Comments : 
Current amplifier : SP-150eB-20A
Electrode surface area : 0.001 cm²
Characteristic mass : 0.001 g
Equivalent Weight : 0.000 g/eq.
Density : 0.000 g/cm3
Volume (V) : 0.001 cm³
Record Analogic IN 1
Text export
   Mode : Standard
   Time format : Elapsed
Cycle Definition : Charge/Discharge alternance
External device configuration :
   device type : Temperature Probe
   device name : Other
   Analog IN 1 : 
      unit : T/Â°C
      max : 100.000 at 2.000 V
      min : 0.000 at 1.460 V
tR (h:m:s)          0:01:30.0000        
dER/dt (mV/h)       1.0                 
record              <Ewe>               
dER (mV)            10.00               
dtR (s)             0.5000              
E range min (V)     -2.500              
E range max (V)     2.500               

mode	error	time/s	<Ewe/V>	Analog IN 1/V	
3	0	9.948267882814980E+002	1.1409240E+000	-2.7038031E+002
3	0	9.953267882688669E+002	1.2609432E+000	-2.7036618E+002
3	0	9.958267882562359E+002	1.2628825E+000	-2.7037326E+002
3	0	9.963267882436048E+002	1.2630808E+000	-2.7040506E+002
3	0	9.968267882309738E+002	1.2622435E+000	-2.7037677E+002
3	0	9.973267882183427E+002	1.2604752E+000	-2.7038031E+002
3	0	9.978267882057116E+002	1.2575376E+000	-2.7040155E+002
3	0	9.983267881930806E+002	1.2527976E+000	-2.7035913E+002
3	0	9.988267881804495E+002	1.2449417E+000	-2.7037677E+002
3	0	9.993267881678184E+002	1.2320764E+000	-2.7040155E+002
3	0	9.998267881551874E+002	1.2116886E+000	-2.7038742E+002
3	0	1.000326788142556E+003	1.1789649E+000	-2.7039093E+002
3	0	1.000826788129925E+003	1.1227199E+000	-2.7039093E+002
3	0	1.001326788117294E+003	1.0146708E+000	-2.7037677E+002
3	0	1.001826788104663E+003	8.0217117E-001	-2.7036972E+002
3	0	1.002326788092032E+003	6.3357830E-001	-2.7040506E+002
3	0	1.002826788079401E+003	5.8533090E-001	-2.7039801E+002
3	0	1.003326788066770E+003	5.6626183E-001	-2.7040506E+002
3	0	1.003826788054139E+003	5.6036252E-001	-2.7038031E+002
3	0	1.004326788041508E+003	5.6039137E-001	-2.7039447E+002
3	0	1.004826788028877E+003	5.6303692E-001	-2.7039093E+002
3	0	1.005326788016246E+003	5.6706738E-001	-2.7040506E+002
3	0	1.005826788003615E+003	5.7203859E-001	-2.7037326E+002
3	0	1.006326787990984E+003	5.7742733E-001	-2.7038031E+002
3	0	1.006826787978353E+003	5.8268821E-001	-2.7038742E+002
3	0	1.007326787965721E+003	5.8762419E-001	-2.7039801E+002
3	0	1.007826787953090E+003	5.9375054E-001	-2.7038031E+002
3	0	1.008326787940459E+003	6.0007644E-001	-2.7036618E+002
3	0	1.008826787927828E+003	6.0586655E-001	-2.7039093E+002
3	0	1.009326787915197E+003	6.1098343E-001	-2.7038385E+002
3	0	1.009826787902566E+003	6.1541241E-001	-2.7038031E+002
3	0	1.010326787889935E+003	6.1915159E-001	-2.7040860E+002
3	0	1.010826787877304E+003	6.2200999E-001	-2.7036618E+002
3	0	1.011326787864673E+003	6.2432700E-001	-2.7034851E+002
3	0	1.011826787852042E+003	6.2758720E-001	-2.7037677E+002
3	0	1.012326787839411E+003	6.3118881E-001	-2.7038031E+002
3	0	1.012826787826780E+003	6.3444042E-001	-2.7039447E+002
3	0	1.013326787814149E+003	6.3707811E-001	-2.7037326E+002
3	0	1.013826787801518E+003	6.3943118E-001	-2.7037677E+002
3	0	1.014326787788887E+003	6.4122182E-001	-2.7039093E+002
3	0	1.014826787776256E+003	6.4223689E-001	-2.7036972E+002
3	0	1.015326787763624E+003	6.4278036E-001	-2.7036972E+002
3	0	1.015826787750993E+003	6.4438802E-001	-2.7038742E+002
3	0	1.016326787738362E+003	6.4636296E-001	-2.7039801E+002
3	0	1.016826787725731E+003	6.4807552E-001	-2.7036618E+002
3	0	1.017326787713100E+003	6.4932668E-001	-2.7037326E+002
3	0	1.017826787700469E+003	6.5011609E-001	-2.7040155E+002
3	0	1.018326787687838E+003	6.5036166E-001	-2.7038031E+002
3	0	1.018826787675207E+003	6.4974517E-001	-2.7036618E+002
3	0	1.019326787662576E+003	6.4856809E-001	-2.7038385E+002
3	0	1.019826787649945E+003	6.4875203E-001	-2.7038385E+002
3	0	1.020326787637314E+003	6.4960390E-001	-2.7039447E+002
3	0	1.020826787624683E+003	6.5029341E-001	-2.7038742E+002
3	0	1.021326787612052E+003	6.5052700E-001	-2.7037326E+002
3	0	1.021826787599421E+003	6.5031707E-001	-2.7038742E+002
3	0	1.022326787586790E+003	6.4965457E-001	-2.7039447E+002
3	0	1.022826787574159E+003	6.4825940E-001	-2.7039093E+002
3	0	1.023326787561527E+003	6.4650965E-001	-2.7036267E+002
3	0	1.023826787548896E+003	6.4614099E-001	-2.7037677E+002
3	0	1.024326787536265E+003	6.4696765E-001	-2.7036267E+002
3	0	1.024826787523634E+003	6.4820617E-001	-2.7035559E+002
3	0	1.025326787511003E+003	6.4970976E-001	-2.7037677E+002
3	0	1.025826787498372E+003	6.5148479E-001	-2.7038031E+002
3	0	1.026326787485741E+003	6.5343612E-001	-2.7038031E+002
3	0	1.026826787473110E+003	6.5532893E-001	-2.7037326E+002
3	0	1.027326787460479E+003	6.5738833E-001	-2.7038385E+002
3	0	1.027826787447848E+003	6.6103542E-001	-2.7037326E+002
3	0	1.028326787435217E+003	6.6562265E-001	-2.7037326E+002
3	0	1.028826787422586E+003	6.7022729E-001	-2.7036972E+002
3	0	1.029326787409955E+003	6.7445838E-001	-2.7039093E+002
3	0	1.029826787397324E+003	6.7812651E-001	-2.7036972E+002
3	0	1.030326787384693E+003	6.8104100E-001	-2.7040155E+002
3	0	1.030826787372062E+003	6.8278235E-001	-2.7040860E+002
3	0	1.031326787359430E+003	6.8384945E-001	-2.7036618E+002
3	0	1.031826787346799E+003	6.8602985E-001	-2.7037677E+002
3	0	1.032326787334168E+003	6.8895102E-001	-2.7037326E+002
3	0	1.032826787321537E+003	6.9147807E-001	-2.7038031E+002
3	0	1.033326787308906E+003	6.9319749E-001	-2.7036972E+002
3	0	1.033826787296275E+003	6.9384086E-001	-2.7035559E+002
3	0	1.034326787283644E+003	6.9338733E-001	-2.7038385E+002
3	0	1.034826787271013E+003	6.9162858E-001	-2.7038031E+002
3	0	1.035326787258382E+003	6.8897384E-001	-2.7041919E+002
3	0	1.035826787245751E+003	6.8715876E-001	-2.7038031E+002
3	0	1.036326787233120E+003	6.8611443E-001	-2.7037677E+002
3	0	1.036826787220489E+003	6.8475652E-001	-2.7036267E+002
3	0	1.037326787207858E+003	6.8269402E-001	-2.7037326E+002
3	0	1.037826787195227E+003	6.7974091E-001	-2.7038742E+002
3	0	1.038326787182596E+003	6.7568469E-001	-2.7038031E+002
3	0	1.038826787169965E+003	6.7073953E-001	-2.7036618E+002
3	0	1.039326787157333E+003	6.6548777E-001	-2.7039093E+002
3	0	1.039826787144702E+003	6.6170621E-001	-2.7038742E+002
3	0	1.040326787132071E+003	6.5901667E-001	-2.7036267E+002
3	0	1.040826787119440E+003	6.5634656E-001	-2.7037677E+002
3	0	1.041326787106809E+003	6.5334845E-001	-2.7038385E+002
3	0	1.041826787094178E+003	6.4992934E-001	-2.7037677E+002
3	0	1.042326787081547E+003	6.4606428E-001	-2.7036618E+002
3	0	1.042826787068916E+003	6.4135414E-001	-2.7036972E+002
3	0	1.043326787056285E+003	6.3639039E-001	-2.7036618E+002
3	0	1.043826787043654E+003	6.3300467E-001	-2.7040155E+002
3	0	1.044326787031023E+003	6.3113916E-001	-2.7039093E+002
3	0	1.044826787018392E+003	6.3008255E-001	-2.7036972E+002
3	0	1.045326787005761E+003	6.2950474E-001	-2.7038031E+002
3	0	1.045826786993130E+003	6.2951386E-001	-2.7039093E+002
3	0	1.046326786980499E+003	6.2997866E-001	-2.7037677E+002
3	0	1.046826786967868E+003	6.3072711E-001	-2.7038742E+002
3	0	1.047326786955236E+003	6.3193923E-001	-2.7040860E+002
3	0	1.047826786942605E+003	6.3493544E-001	-2.7038385E+002
3	0	1.048326786929974E+003	6.3943034E-001	-2.7038385E+002
3	0	1.048826786917343E+003	6.4438099E-001	-2.7036972E+002
3	0	1.049326786904712E+003	6.4917046E-001	-2.7035559E+002
3	0	1.049826786892081E+003	6.5352011E-001	-2.7037677E+002
3	0	1.050326786879450E+003	6.5685779E-001	-2.7035559E+002
3	0	1.050826786866819E+003	6.5912634E-001	-2.7039447E+002
3	0	1.051326786854188E+003	6.6051686E-001	-2.7039447E+002
3	0	1.051826786841557E+003	6.6258544E-001	-2.7037677E+002
3	0	1.052326786828926E+003	6.6512007E-001	-2.7038031E+002
3	0	1.052826786816295E+003	6.6732675E-001	-2.7040155E+002
3	0	1.053326786803664E+003	6.6862667E-001	-2.7037677E+002
3	0	1.053826786791033E+003	6.6886121E-001	-2.7039801E+002
3	0	1.054326786778402E+003	6.6784602E-001	-2.7038385E+002
3	0	1.054826786765771E+003	6.6536903E-001	-2.7037677E+002
3	0	1.055326786753139E+003	6.6206777E-001	-2.7039093E+002
3	0	1.055826786740508E+003	6.5936840E-001	-2.7039447E+002
3	0	1.056326786727877E+003	6.5729541E-001	-2.7039093E+002
3	0	1.056826786715246E+003	6.5508211E-001	-2.7038385E+002
3	0	1.057326786702615E+003	6.5234220E-001	-2.7037326E+002
3	0	1.057826786689984E+003	6.4893866E-001	-2.7038385E+002
3	0	1.058326786677353E+003	6.4472234E-001	-2.7040155E+002
3	0	1.058826786664722E+003	6.3956255E-001	-2.7039801E+002
3	0	1.059326786652091E+003	6.3398534E-001	-2.7035205E+002
3	0	1.059826786639460E+003	6.2956542E-001	-2.7037677E+002
3	0	1.060326786626829E+003	6.2621093E-001	-2.7039801E+002
3	0	1.060826786614198E+003	6.2264538E-001	-2.7038742E+002
3	0	1.061326786601567E+003	6.1905408E-001	-2.7038385E+002
3	0	1.061826786588936E+003	6.1555731E-001	-2.7036618E+002
3	0	1.062326786576305E+003	6.1169505E-001	-2.7038031E+002
3	0	1.062826786563674E+003	6.0724831E-001	-2.7039801E+002
3	0	1.063326786551042E+003	6.0244304E-001	-2.7038385E+002
3	0	1.063826786538411E+003	5.9873420E-001	-2.7038031E+002
3	0	1.064326786525780E+003	5.9601498E-001	-2.7036618E+002
3	0	1.064826786513149E+003	5.9362942E-001	-2.7038742E+002
3	0	1.065326786500518E+003	5.9189570E-001	-2.7040155E+002
3	0	1.065826786487887E+003	5.9081727E-001	-2.7038385E+002
3	0	1.066326786475256E+003	5.9023565E-001	-2.7036618E+002
3	0	1.066826786462625E+003	5.8976978E-001	-2.7039093E+002
3	0	1.067326786449994E+003	5.8978879E-001	-2.7037677E+002
3	0	1.067826786437363E+003	5.9164089E-001	-2.7037326E+002
3	0	1.068326786424732E+003	5.9473825E-001	-2.7036618E+002
3	0	1.068826786412101E+003	5.9803957E-001	-2.7038031E+002
3	0	1.069326786399470E+003	6.0149145E-001	-2.7038742E+002
3	0	1.069826786386839E+003	6.0474056E-001	-2.7037326E+002
3	0	1.070326786374208E+003	6.0754043E-001	-2.7037326E+002
3	0	1.070826786361577E+003	6.0950309E-001	-2.7039447E+002
3	0	1.071326786348945E+003	6.1084324E-001	-2.7040506E+002
3	0	1.071826786336314E+003	6.1290538E-001	-2.7038031E+002
3	0	1.072326786323683E+003	6.1538672E-001	-2.7038385E+002
3	0	1.072826786311052E+003	6.1725205E-001	-2.7037326E+002
3	0	1.073326786298421E+003	6.1853033E-001	-2.7038742E+002
3	0	1.073826786285790E+003	6.1906040E-001	-2.7035913E+002
3	0	1.074326786273159E+003	6.1852068E-001	-2.7038385E+002
3	0	1.074826786260528E+003	6.1650932E-001	-2.7036972E+002
3	0	1.075326786247897E+003	6.1359894E-001	-2.7038742E+002
3	0	1.075826786235266E+003	6.1156231E-001	-2.7038031E+002
3	0	1.076326786222635E+003	6.0997349E-001	-2.7039447E+002
3	0	1.076826786210004E+003	6.0787666E-001	-2.7037677E+002
3	0	1.077326786197373E+003	6.0543078E-001	-2.7039447E+002
3	0	1.077826786184742E+003	6.0260755E-001	-2.7038742E+002
3	0	1.078326786172111E+003	5.9911180E-001	-2.7036972E+002
3	0	1.078826786159480E+003	5.9456575E-001	-2.7039447E+002
3	0	1.079326786146848E+003	5.8959407E-001	-2.7040155E+002
3	0	1.079826786134217E+003	5.8583629E-001	-2.7037326E+002
3	0	1.080326786121586E+003	5.8275902E-001	-2.7036972E+002
3	0	1.080826786108955E+003	5.7942808E-001	-2.7038031E+002
3	0	1.081326786096324E+003	5.7588500E-001	-2.7035205E+002
3	0	1.081826786083693E+003	5.7202864E-001	-2.7037677E+002
3	0	1.082326786071062E+003	5.6783068E-001	-2.7035913E+002
3	0	1.082826786058431E+003	5.6298316E-001	-2.7038385E+002
3	0	1.083326786045800E+003	5.5786949E-001	-2.7038385E+002
3	0	1.083826786033169E+003	5.5405658E-001	-2.7038031E+002
3	0	1.084326786020538E+003	5.5122918E-001	-2.7040155E+002
3	0	1.084352386019891E+003	5.4971123E-001	-2.7038385E+002