EC-Lab ASCII FILE
Nb header lines : 48                          

Open Circuit Voltage

Run on channel : 1 (SN 81504)
User : 
CE vs. WE compliance from -10 V to 10 V
Electrode connection : standard
Potential control : Ewe
Ewe ctrl range : min = -2.50 V, max = 2.50 V
Safety Limits :
	Do not start on E overload
Acquisition started on : 05/10/2026 02:09:52.585
Loaded Setting File :  C:\PEM-WE_measurements\2026\372_IV_IV IrOx, 5 min Pt, 30 min C, etched cathode\new station\Loopeis new\1,46 V different time gaps closed cell\Loopeis 1,46V_60s_2_PEIS from 65kHz to 10kHz.mps
Saved on :
	File : L_12_Loopeis 1,46V_60s_2_PEIS from 65kHz to 10kHz_14_OCV_C01.mpr
	Directory : C:\PEM-WE_measurements\2026\372_IV_IV IrOx, 5 min Pt, 30 min C, etched cathode\new station\Loopeis new\1,46 V different time gaps closed cell\
	Host : 192.168.0.2
Device : SP-150e (SN .005491)
Address : 192.168.0.91
EC-LAB for windows v11.71 (software)
Internet server v28.00 (firmware)
Command interpretor v14.01 (firmware)
Electrode material : 
Initial state : 
Electrolyte : 
Comments : 
Current amplifier : SP-150eB-20A
Electrode surface area : 0.001 cm²
Characteristic mass : 0.001 g
Equivalent Weight : 0.000 g/eq.
Density : 0.000 g/cm3
Volume (V) : 0.001 cm³
Record Analogic IN 1
Text export
   Mode : Standard
   Time format : Elapsed
Cycle Definition : Charge/Discharge alternance
tR (h:m:s)          0:01:0.0000         
dER/dt (mV/h)       1.0                 
record              <Ewe>               
dER (mV)            10.00               
dtR (s)             0.5000              
E range min (V)     -2.500              
E range max (V)     2.500               

mode	error	time/s	<Ewe/V>	Analog IN 1/V	
3	0	6.762341927924717E+002	1.4169731E+000	-7.2477276E-005
3	0	6.767341927798407E+002	1.4082325E+000	-9.1562819E-005
3	0	6.772341927672096E+002	1.4023417E+000	3.8648941E-006
3	0	6.777341927545785E+002	1.3979199E+000	1.1837815E-004
3	0	6.782341927419475E+002	1.3943064E+000	-1.1064836E-004
3	0	6.787341927293164E+002	1.3913356E+000	2.2950437E-005
3	0	6.792341927166854E+002	1.3888015E+000	3.8648941E-006
3	0	6.797341927040543E+002	1.3865489E+000	2.2950437E-005
3	0	6.802341926914232E+002	1.3845347E+000	-1.2973390E-004
3	0	6.807341926787922E+002	1.3827026E+000	-5.3391734E-005
3	0	6.812341926661611E+002	1.3809899E+000	-9.1562819E-005
3	0	6.817341926535300E+002	1.3793126E+000	-1.4881945E-004
3	0	6.822341926408990E+002	1.3777161E+000	-1.5220648E-005
3	0	6.827341926282679E+002	1.3762896E+000	-3.4306191E-005
3	0	6.832341926156369E+002	1.3749890E+000	-5.3391734E-005
3	0	6.837341926030058E+002	1.3737655E+000	-3.4306191E-005
3	0	6.842341925903747E+002	1.3726048E+000	-1.5220648E-005
3	0	6.847341925777437E+002	1.3715174E+000	2.2950437E-005
3	0	6.852341925651126E+002	1.3704672E+000	-1.1064836E-004
3	0	6.857341925524815E+002	1.3694005E+000	-3.4306191E-005
3	0	6.862341925398505E+002	1.3683372E+000	-2.2516162E-004
3	0	6.867341925272194E+002	1.3674049E+000	-1.2973390E-004
3	0	6.872341925145884E+002	1.3665359E+000	-1.8699054E-004
3	0	6.877341925019573E+002	1.3657035E+000	-1.4881945E-004
3	0	6.882341924893262E+002	1.3649138E+000	2.2950437E-005
3	0	6.887341924766952E+002	1.3641652E+000	-1.5220648E-005
3	0	6.892341924640641E+002	1.3634052E+000	-9.1562819E-005
3	0	6.897341924514330E+002	1.3626153E+000	6.1121522E-005
3	0	6.902341924388020E+002	1.3618221E+000	-1.5220648E-005
3	0	6.907341924261709E+002	1.3611461E+000	-5.3391734E-005
3	0	6.912341924135399E+002	1.3605477E+000	-5.3391734E-005
3	0	6.917341924009088E+002	1.3599747E+000	-5.3391734E-005
3	0	6.922341923882777E+002	1.3594465E+000	-5.3391734E-005
3	0	6.927341923756467E+002	1.3589507E+000	-2.0607607E-004
3	0	6.932341923630156E+002	1.3584486E+000	3.8648941E-006
3	0	6.937341923503845E+002	1.3578961E+000	-1.5220648E-005
3	0	6.942341923377535E+002	1.3573318E+000	4.2035979E-005
3	0	6.947341923251224E+002	1.3568877E+000	-1.6790499E-004
3	0	6.952341923124914E+002	1.3564769E+000	-1.5220648E-005
3	0	6.957341922998603E+002	1.3560799E+000	-1.4881945E-004
3	0	6.962341922872292E+002	1.3557035E+000	-1.5220648E-005
3	0	6.967341922745982E+002	1.3553361E+000	-1.8699054E-004
3	0	6.972341922619671E+002	1.3549588E+000	-7.2477276E-005
3	0	6.977341922493360E+002	1.3545127E+000	-5.3391734E-005
3	0	6.982341922367050E+002	1.3540410E+000	-3.4306191E-005
3	0	6.987341922240739E+002	1.3536689E+000	2.2950437E-005
3	0	6.992341922114429E+002	1.3533285E+000	3.8648941E-006
3	0	6.997341921988118E+002	1.3529844E+000	-1.6790499E-004
3	0	7.002341921861807E+002	1.3526455E+000	3.8648941E-006
3	0	7.007341921735497E+002	1.3523171E+000	-7.2477276E-005
3	0	7.012341921609186E+002	1.3519546E+000	6.1121522E-005
3	0	7.017341921482875E+002	1.3515174E+000	-1.5220648E-005
3	0	7.022341921356565E+002	1.3510597E+000	3.8648941E-006
3	0	7.027341921230254E+002	1.3506982E+000	-1.4881945E-004
3	0	7.032341921103944E+002	1.3503680E+000	-9.1562819E-005
3	0	7.037341920977633E+002	1.3500341E+000	-2.4424717E-004
3	0	7.042341920851322E+002	1.3497123E+000	-9.1562819E-005
3	0	7.047341920725012E+002	1.3493876E+000	-1.1064836E-004
3	0	7.052341920598701E+002	1.3490195E+000	-1.5220648E-005
3	0	7.057341920472390E+002	1.3485819E+000	4.2035979E-005
3	0	7.062341920346080E+002	1.3481280E+000	-1.2973390E-004
3	0	7.067341920219769E+002	1.3477570E+000	-5.3391734E-005
3	0	7.072341920093459E+002	1.3474129E+000	-5.3391734E-005
3	0	7.077341919967148E+002	1.3470693E+000	-5.3391734E-005
3	0	7.082341919840837E+002	1.3467170E+000	3.8648941E-006
3	0	7.087341919714527E+002	1.3463748E+000	-5.3391734E-005
3	0	7.092341919588216E+002	1.3460002E+000	-1.5220648E-005
3	0	7.097341919461905E+002	1.3455648E+000	-9.1562819E-005
3	0	7.102341919335595E+002	1.3451105E+000	-5.3391734E-005
3	0	7.107341919209284E+002	1.3447537E+000	-2.0607607E-004
3	0	7.112341919082974E+002	1.3444324E+000	-7.2477276E-005
3	0	7.117341918956663E+002	1.3441170E+000	-3.4306191E-005
3	0	7.122341918830352E+002	1.3438069E+000	-3.4306191E-005
3	0	7.127341918704042E+002	1.3435138E+000	-1.6790499E-004
3	0	7.132341918577731E+002	1.3431882E+000	3.8648941E-006
3	0	7.137341918451421E+002	1.3427964E+000	3.8648941E-006
3	0	7.142341918325110E+002	1.3423883E+000	-1.5220648E-005
3	0	7.147341918198799E+002	1.3420756E+000	-1.5220648E-005
3	0	7.152341918072489E+002	1.3417929E+000	-9.1562819E-005
3	0	7.157341917946178E+002	1.3415084E+000	-1.5220648E-005
3	0	7.162341917819867E+002	1.3412207E+000	-5.3391734E-005
3	0	7.167341917693557E+002	1.3409379E+000	3.8648941E-006
3	0	7.172341917567246E+002	1.3406261E+000	-1.4881945E-004
3	0	7.177341917440936E+002	1.3402339E+000	-7.2477276E-005
3	0	7.182341917314625E+002	1.3398190E+000	-1.1064836E-004
3	0	7.187341917188314E+002	1.3395008E+000	-1.5220648E-005
3	0	7.192341917062004E+002	1.3391982E+000	-5.3391734E-005
3	0	7.197341916935693E+002	1.3388994E+000	1.1837815E-004
3	0	7.202341916809382E+002	1.3385899E+000	4.2035979E-005
3	0	7.207341916683072E+002	1.3382949E+000	-1.5220648E-005
3	0	7.212341916556761E+002	1.3379596E+000	-9.1562819E-005
3	0	7.217341916430451E+002	1.3375468E+000	-5.3391734E-005
3	0	7.222341916304140E+002	1.3371054E+000	6.1121522E-005
3	0	7.227341916177829E+002	1.3367615E+000	8.0207064E-005
3	0	7.232341916051519E+002	1.3364371E+000	-1.1064836E-004
3	0	7.237341915925208E+002	1.3361043E+000	-1.5220648E-005
3	0	7.242341915798897E+002	1.3357863E+000	-1.5220648E-005
3	0	7.247341915672587E+002	1.3354553E+000	-1.2973390E-004
3	0	7.252341915546276E+002	1.3350909E+000	3.8648941E-006
3	0	7.257341915419966E+002	1.3346550E+000	-5.3391734E-005
3	0	7.262341915293655E+002	1.3341980E+000	-7.2477276E-005
3	0	7.267341915167344E+002	1.3338286E+000	3.8648941E-006
3	0	7.272341915041034E+002	1.3334786E+000	-1.8699054E-004
3	0	7.277341914914723E+002	1.3331332E+000	-3.4306191E-005
3	0	7.282341914788412E+002	1.3327818E+000	-5.3391734E-005
3	0	7.287341914662102E+002	1.3324432E+000	-9.1562819E-005
3	0	7.292341914535791E+002	1.3320607E+000	-5.3391734E-005
3	0	7.297341914409481E+002	1.3316038E+000	-1.5220648E-005
3	0	7.302341914283170E+002	1.3311347E+000	3.8648941E-006
3	0	7.307341914156859E+002	1.3307660E+000	-3.4306191E-005
3	0	7.312341914030549E+002	1.3304377E+000	-2.4424717E-004
3	0	7.317341913904238E+002	1.3300984E+000	-1.5220648E-005
3	0	7.322341913777927E+002	1.3297776E+000	-1.2973390E-004
3	0	7.327341913651617E+002	1.3294853E+000	9.9292607E-005
3	0	7.332341913525306E+002	1.3291723E+000	-3.4306191E-005
3	0	7.337341913398996E+002	1.3287746E+000	3.8648941E-006
3	0	7.342341913272685E+002	1.3283499E+000	2.2950437E-005
3	0	7.347341913146374E+002	1.3280389E+000	6.1121522E-005
3	0	7.352341913020064E+002	1.3277495E+000	-1.5220648E-005
3	0	7.357341912893753E+002	1.3274726E+000	-2.8241824E-004
3	0	7.357345912893652E+002	1.3272195E+000	-1.1064836E-004