EC-Lab ASCII FILE
Nb header lines : 55                          

Open Circuit Voltage

Run on channel : 1 (SN 81504)
User : 
CE vs. WE compliance from -10 V to 10 V
Electrode connection : standard
Potential control : Ewe
Ewe ctrl range : min = -2.50 V, max = 2.50 V
Safety Limits :
	Do not start on E overload
Acquisition started on : 05/10/2026 05:01:31.658
Loaded Setting File :  C:\PEM-WE_measurements\2026\372_IV_IV IrOx, 5 min Pt, 30 min C, etched cathode\new station\Loopeis new\1,46 V different time gaps closed cell\Loopeis 1,46V_90s_5_PEIS from 65Hz to 10Hz.mps
Saved on :
	File : L_20_Loopeis 1,46V_90s_5_PEIS from 65Hz to 10Hz_08_OCV_C01.mpr
	Directory : C:\PEM-WE_measurements\2026\372_IV_IV IrOx, 5 min Pt, 30 min C, etched cathode\new station\Loopeis new\1,46 V different time gaps closed cell\
	Host : 192.168.0.2
Device : SP-150e (SN .005491)
Address : 192.168.0.91
EC-LAB for windows v11.71 (software)
Internet server v28.00 (firmware)
Command interpretor v14.01 (firmware)
Electrode material : 
Initial state : 
Electrolyte : 
Comments : 
Current amplifier : SP-150eB-20A
Electrode surface area : 0.001 cm²
Characteristic mass : 0.001 g
Equivalent Weight : 0.000 g/eq.
Density : 0.000 g/cm3
Volume (V) : 0.001 cm³
Record Analogic IN 1
Text export
   Mode : Standard
   Time format : Elapsed
Cycle Definition : Charge/Discharge alternance
External device configuration :
   device type : Temperature Probe
   device name : Other
   Analog IN 1 : 
      unit : T/Â°C
      max : 100.000 at 2.000 V
      min : 0.000 at 1.460 V
tR (h:m:s)          0:01:30.0000        
dER/dt (mV/h)       1.0                 
record              <Ewe>               
dER (mV)            10.00               
dtR (s)             0.5000              
E range min (V)     -2.500              
E range max (V)     2.500               

mode	error	time/s	<Ewe/V>	Analog IN 1/V	
3	0	4.576033955066669E+002	1.2879184E+000	-2.7039801E+002
3	0	4.581033954940358E+002	1.2949245E+000	-2.7039801E+002
3	0	4.586033954814047E+002	1.2956022E+000	-2.7038385E+002
3	0	4.591033954687737E+002	1.2947465E+000	-2.7035559E+002
3	0	4.596033954561426E+002	1.2927818E+000	-2.7035913E+002
3	0	4.601033954435115E+002	1.2895218E+000	-2.7037677E+002
3	0	4.606033954308805E+002	1.2841995E+000	-2.7036618E+002
3	0	4.611033954182494E+002	1.2756019E+000	-2.7039447E+002
3	0	4.616033954056184E+002	1.2622463E+000	-2.7039093E+002
3	0	4.621033953929873E+002	1.2424188E+000	-2.7038385E+002
3	0	4.626033953803562E+002	1.2125069E+000	-2.7039093E+002
3	0	4.631033953677252E+002	1.1637406E+000	-2.7037677E+002
3	0	4.636033953550941E+002	1.0704911E+000	-2.7036618E+002
3	0	4.641033953424630E+002	8.6328948E-001	-2.7037677E+002
3	0	4.646033953298320E+002	6.4385802E-001	-2.7034851E+002
3	0	4.651033953172009E+002	5.7910168E-001	-2.7037326E+002
3	0	4.656033953045699E+002	5.5570567E-001	-2.7039093E+002
3	0	4.661033952919388E+002	5.4731750E-001	-2.7037677E+002
3	0	4.666033952793077E+002	5.4574168E-001	-2.7037677E+002
3	0	4.671033952666767E+002	5.4627806E-001	-2.7038742E+002
3	0	4.676033952540456E+002	5.4742926E-001	-2.7036972E+002
3	0	4.681033952414145E+002	5.4912210E-001	-2.7037326E+002
3	0	4.686033952287835E+002	5.5120724E-001	-2.7036972E+002
3	0	4.691033952161524E+002	5.5299950E-001	-2.7036618E+002
3	0	4.696033952035214E+002	5.5432945E-001	-2.7038031E+002
3	0	4.701033951908903E+002	5.5684161E-001	-2.7036972E+002
3	0	4.706033951782592E+002	5.6058174E-001	-2.7038031E+002
3	0	4.711033951656282E+002	5.6401426E-001	-2.7037677E+002
3	0	4.716033951529971E+002	5.6684095E-001	-2.7039801E+002
3	0	4.721033951403660E+002	5.6950504E-001	-2.7036267E+002
3	0	4.726033951277350E+002	5.7189596E-001	-2.7035559E+002
3	0	4.731033951151039E+002	5.7352430E-001	-2.7039447E+002
3	0	4.736033951024729E+002	5.7445061E-001	-2.7038385E+002
3	0	4.741033950898418E+002	5.7615727E-001	-2.7036267E+002
3	0	4.746033950772107E+002	5.7891041E-001	-2.7038031E+002
3	0	4.751033950645797E+002	5.8135784E-001	-2.7039447E+002
3	0	4.756033950519486E+002	5.8332384E-001	-2.7036267E+002
3	0	4.761033950393175E+002	5.8514267E-001	-2.7038385E+002
3	0	4.766033950266865E+002	5.8684969E-001	-2.7036618E+002
3	0	4.771033950140554E+002	5.8814138E-001	-2.7034851E+002
3	0	4.776033950014244E+002	5.8923167E-001	-2.7036267E+002
3	0	4.781033949887933E+002	5.9163541E-001	-2.7039447E+002
3	0	4.786033949761622E+002	5.9546900E-001	-2.7039093E+002
3	0	4.791033949635312E+002	5.9936816E-001	-2.7038031E+002
3	0	4.796033949509001E+002	6.0293758E-001	-2.7036267E+002
3	0	4.801033949382690E+002	6.0646266E-001	-2.7037677E+002
3	0	4.806033949256380E+002	6.0948372E-001	-2.7039447E+002
3	0	4.811033949130069E+002	6.1179495E-001	-2.7037677E+002
3	0	4.816033949003759E+002	6.1327195E-001	-2.7039447E+002
3	0	4.821033948877448E+002	6.1552781E-001	-2.7038385E+002
3	0	4.826033948751137E+002	6.1875021E-001	-2.7036618E+002
3	0	4.831033948624827E+002	6.2159622E-001	-2.7040860E+002
3	0	4.836033948498516E+002	6.2361354E-001	-2.7035559E+002
3	0	4.841033948372205E+002	6.2534326E-001	-2.7037326E+002
3	0	4.846033948245895E+002	6.2658358E-001	-2.7036618E+002
3	0	4.851033948119584E+002	6.2695450E-001	-2.7036267E+002
3	0	4.856033947993274E+002	6.2669128E-001	-2.7035913E+002
3	0	4.861033947866963E+002	6.2717313E-001	-2.7036618E+002
3	0	4.866033947740652E+002	6.2872100E-001	-2.7034851E+002
3	0	4.871033947614342E+002	6.2989849E-001	-2.7038385E+002
3	0	4.876033947488031E+002	6.3027060E-001	-2.7037326E+002
3	0	4.881033947361720E+002	6.3027000E-001	-2.7035559E+002
3	0	4.886033947235410E+002	6.2981057E-001	-2.7039447E+002
3	0	4.891033947109099E+002	6.2843889E-001	-2.7038385E+002
3	0	4.896033946982789E+002	6.2641549E-001	-2.7037326E+002
3	0	4.901033946856478E+002	6.2540573E-001	-2.7037677E+002
3	0	4.906033946730167E+002	6.2559772E-001	-2.7035205E+002
3	0	4.911033946603857E+002	6.2566161E-001	-2.7037677E+002
3	0	4.916033946477546E+002	6.2504232E-001	-2.7038385E+002
3	0	4.921033946351236E+002	6.2410438E-001	-2.7036972E+002
3	0	4.926033946224925E+002	6.2291926E-001	-2.7038031E+002
3	0	4.931033946098614E+002	6.2098074E-001	-2.7036972E+002
3	0	4.936033945972304E+002	6.1833650E-001	-2.7038385E+002
3	0	4.941033945845993E+002	6.1660916E-001	-2.7036972E+002
3	0	4.946033945719682E+002	6.1609495E-001	-2.7036267E+002
3	0	4.951033945593372E+002	6.1543053E-001	-2.7037326E+002
3	0	4.956033945467061E+002	6.1427659E-001	-2.7039447E+002
3	0	4.961033945340751E+002	6.1303753E-001	-2.7039093E+002
3	0	4.966033945214440E+002	6.1172700E-001	-2.7036972E+002
3	0	4.971033945088129E+002	6.1029422E-001	-2.7038031E+002
3	0	4.976033944961819E+002	6.0885108E-001	-2.7035913E+002
3	0	4.981033944835508E+002	6.0881656E-001	-2.7036972E+002
3	0	4.986033944709197E+002	6.1061233E-001	-2.7034851E+002
3	0	4.991033944582887E+002	6.1282063E-001	-2.7035559E+002
3	0	4.996033944456576E+002	6.1492753E-001	-2.7039801E+002
3	0	5.001033944330266E+002	6.1689252E-001	-2.7036972E+002
3	0	5.006033944203955E+002	6.1872470E-001	-2.7035913E+002
3	0	5.011033944077644E+002	6.1983013E-001	-2.7038385E+002
3	0	5.016033943951334E+002	6.2009126E-001	-2.7039801E+002
3	0	5.021033943825023E+002	6.2126619E-001	-2.7038385E+002
3	0	5.026033943698712E+002	6.2352014E-001	-2.7036972E+002
3	0	5.031033943572402E+002	6.2548834E-001	-2.7038385E+002
3	0	5.036033943446091E+002	6.2674779E-001	-2.7037677E+002
3	0	5.041033943319781E+002	6.2745118E-001	-2.7036618E+002
3	0	5.046033943193470E+002	6.2781996E-001	-2.7036972E+002
3	0	5.051033943067159E+002	6.2715113E-001	-2.7035205E+002
3	0	5.056033942940849E+002	6.2559485E-001	-2.7036618E+002
3	0	5.061033942814538E+002	6.2464666E-001	-2.7035205E+002
3	0	5.066033942688227E+002	6.2475055E-001	-2.7036267E+002
3	0	5.071033942561917E+002	6.2455690E-001	-2.7036618E+002
3	0	5.076033942435606E+002	6.2362385E-001	-2.7036618E+002
3	0	5.081033942309296E+002	6.2237221E-001	-2.7037677E+002
3	0	5.086033942182985E+002	6.2039471E-001	-2.7037677E+002
3	0	5.091033942056674E+002	6.1766165E-001	-2.7038031E+002
3	0	5.096033941930364E+002	6.1439401E-001	-2.7036267E+002
3	0	5.101033941804053E+002	6.1215347E-001	-2.7037326E+002
3	0	5.106033941677742E+002	6.1111963E-001	-2.7036618E+002
3	0	5.111033941551432E+002	6.0985744E-001	-2.7038742E+002
3	0	5.116033941425121E+002	6.0789204E-001	-2.7036618E+002
3	0	5.121033941298811E+002	6.0556567E-001	-2.7037677E+002
3	0	5.126033941172500E+002	6.0282344E-001	-2.7037326E+002
3	0	5.131033941046189E+002	5.9921443E-001	-2.7037326E+002
3	0	5.136033940919879E+002	5.9503353E-001	-2.7038031E+002
3	0	5.141033940793568E+002	5.9189326E-001	-2.7038031E+002
3	0	5.146033940667257E+002	5.9002215E-001	-2.7038742E+002
3	0	5.151033940540947E+002	5.8808428E-001	-2.7036972E+002
3	0	5.156033940414636E+002	5.8562821E-001	-2.7036972E+002
3	0	5.161033940288326E+002	5.8310348E-001	-2.7039447E+002
3	0	5.166033940162015E+002	5.8051783E-001	-2.7035559E+002
3	0	5.171033940035704E+002	5.7749075E-001	-2.7038385E+002
3	0	5.176033939909394E+002	5.7436496E-001	-2.7034497E+002
3	0	5.181033939783083E+002	5.7287979E-001	-2.7038742E+002
3	0	5.186033939656772E+002	5.7326269E-001	-2.7035913E+002
3	0	5.191033939530462E+002	5.7424510E-001	-2.7036267E+002
3	0	5.196033939404151E+002	5.7531577E-001	-2.7036267E+002
3	0	5.201033939277841E+002	5.7664120E-001	-2.7037677E+002
3	0	5.206033939151530E+002	5.7798362E-001	-2.7038031E+002
3	0	5.211033939025219E+002	5.7884508E-001	-2.7039447E+002
3	0	5.216033938898909E+002	5.7913506E-001	-2.7038031E+002
3	0	5.221033938772598E+002	5.8038199E-001	-2.7038031E+002
3	0	5.226033938646287E+002	5.8272505E-001	-2.7038031E+002
3	0	5.231033938519977E+002	5.8473253E-001	-2.7035205E+002
3	0	5.236033938393666E+002	5.8606726E-001	-2.7035913E+002
3	0	5.241033938267356E+002	5.8712757E-001	-2.7037677E+002
3	0	5.246033938141045E+002	5.8753836E-001	-2.7037677E+002
3	0	5.251033938014734E+002	5.8684886E-001	-2.7038385E+002
3	0	5.256033937888424E+002	5.8543086E-001	-2.7036972E+002
3	0	5.261033937762113E+002	5.8480257E-001	-2.7038031E+002
3	0	5.266033937635802E+002	5.8501261E-001	-2.7038742E+002
3	0	5.271033937509492E+002	5.8471686E-001	-2.7038385E+002
3	0	5.276033937383181E+002	5.8363193E-001	-2.7038031E+002
3	0	5.281033937256871E+002	5.8190769E-001	-2.7039447E+002
3	0	5.286033937130560E+002	5.7973212E-001	-2.7036972E+002
3	0	5.291033937004249E+002	5.7647473E-001	-2.7037326E+002
3	0	5.296033936877939E+002	5.7263672E-001	-2.7037677E+002
3	0	5.301033936751628E+002	5.6960237E-001	-2.7037326E+002
3	0	5.306033936625317E+002	5.6754804E-001	-2.7038031E+002
3	0	5.311033936499007E+002	5.6514764E-001	-2.7038031E+002
3	0	5.316033936372696E+002	5.6212693E-001	-2.7039093E+002
3	0	5.321033936246386E+002	5.5893499E-001	-2.7037326E+002
3	0	5.326033936120075E+002	5.5525154E-001	-2.7038742E+002
3	0	5.331033935993764E+002	5.5093080E-001	-2.7038031E+002
3	0	5.336033935867454E+002	5.4603785E-001	-2.7039801E+002
3	0	5.341033935741143E+002	5.4205930E-001	-2.7038385E+002
3	0	5.346033935614832E+002	5.3922981E-001	-2.7037326E+002
3	0	5.351033935488522E+002	5.3621572E-001	-2.7037677E+002
3	0	5.356033935362211E+002	5.3281587E-001	-2.7038031E+002
3	0	5.361033935235901E+002	5.2926654E-001	-2.7037326E+002
3	0	5.366033935109590E+002	5.2570009E-001	-2.7036618E+002
3	0	5.371033934983279E+002	5.2180237E-001	-2.7039093E+002
3	0	5.376033934856969E+002	5.1809603E-001	-2.7036972E+002
3	0	5.381033934730658E+002	5.1582479E-001	-2.7039093E+002
3	0	5.386033934604347E+002	5.1505935E-001	-2.7036972E+002
3	0	5.391033934478037E+002	5.1467270E-001	-2.7040155E+002
3	0	5.396033934351726E+002	5.1442659E-001	-2.7036972E+002
3	0	5.401033934225416E+002	5.1431119E-001	-2.7038031E+002
3	0	5.406033934099105E+002	5.1432699E-001	-2.7035559E+002
3	0	5.411033933972794E+002	5.1397693E-001	-2.7040860E+002
3	0	5.416033933846484E+002	5.1318133E-001	-2.7036972E+002
3	0	5.421033933720173E+002	5.1315826E-001	-2.7038385E+002
3	0	5.426033933593862E+002	5.1396316E-001	-2.7036267E+002
3	0	5.431033933467552E+002	5.1452869E-001	-2.7038742E+002
3	0	5.436033933341241E+002	5.1457083E-001	-2.7037326E+002
3	0	5.441033933214931E+002	5.1441520E-001	-2.7036972E+002
3	0	5.446033933088620E+002	5.1393509E-001	-2.7037326E+002
3	0	5.451033932962309E+002	5.1278597E-001	-2.7038742E+002
3	0	5.456033932835999E+002	5.1093745E-001	-2.7040506E+002
3	0	5.461033932709688E+002	5.0970072E-001	-2.7039093E+002
3	0	5.466033932583377E+002	5.0909263E-001	-2.7038031E+002
3	0	5.471033932457067E+002	5.0807822E-001	-2.7038031E+002
3	0	5.471267932451156E+002	5.0725746E-001	-2.7035205E+002