EC-Lab ASCII FILE
Nb header lines : 55                          

Open Circuit Voltage

Run on channel : 1 (SN 81504)
User : 
CE vs. WE compliance from -10 V to 10 V
Electrode connection : standard
Potential control : Ewe
Ewe ctrl range : min = -2.50 V, max = 2.50 V
Safety Limits :
	Do not start on E overload
Acquisition started on : 05/07/2026 14:29:10.843
Loaded Setting File :  C:\PEM-WE_measurements\2026\372_IV_IV IrOx, 5 min Pt, 30 min C, etched cathode\new station\Loopeis new\1,46 V different time gaps open cell\Loopeis 1,46V_30s_3_PEIS from 6500Hz to 1000Hz.mps
Saved on :
	File : L_03_Loopeis 1,46V_30s_3_PEIS from 6500Hz to 1000Hz_12_OCV_C01.mpr
	Directory : C:\PEM-WE_measurements\2026\372_IV_IV IrOx, 5 min Pt, 30 min C, etched cathode\new station\Loopeis new\1,46 V different time gaps open cell\
	Host : 192.168.0.2
Device : SP-150e (SN .005491)
Address : 192.168.0.91
EC-LAB for windows v11.71 (software)
Internet server v28.00 (firmware)
Command interpretor v14.01 (firmware)
Electrode material : 
Initial state : 
Electrolyte : 
Comments : 
Current amplifier : SP-150eB-20A
Electrode surface area : 0.001 cm²
Characteristic mass : 0.001 g
Equivalent Weight : 0.000 g/eq.
Density : 0.000 g/cm3
Volume (V) : 0.001 cm³
Record Analogic IN 1
Text export
   Mode : Standard
   Time format : Elapsed
Cycle Definition : Charge/Discharge alternance
External device configuration :
   device type : Temperature Probe
   device name : Other
   Analog IN 1 : 
      unit : T/Â°C
      max : 100.000 at 2.000 V
      min : 0.000 at 1.460 V
tR (h:m:s)          0:00:30.0000        
dER/dt (mV/h)       1.0                 
record              <Ewe>               
dER (mV)            10.00               
dtR (s)             0.5000              
E range min (V)     -2.500              
E range max (V)     2.500               

mode	error	time/s	<Ewe/V>	Analog IN 1/V	
3	0	4.228169993113261E+002	1.0218452E+000	-2.7036267E+002
3	0	4.233169992986950E+002	1.1966833E+000	-2.7037677E+002
3	0	4.238169992860639E+002	1.1084161E+000	-2.7037677E+002
3	0	4.243169992734329E+002	7.9807448E-001	-2.7038385E+002
3	0	4.248169992608018E+002	4.0029514E-001	-2.7036972E+002
3	0	4.253169992481708E+002	3.1570780E-001	-2.7038031E+002
3	0	4.258169992355397E+002	3.0564636E-001	-2.7038031E+002
3	0	4.263169992229086E+002	2.9899949E-001	-2.7037677E+002
3	0	4.268169992102776E+002	2.9342097E-001	-2.7040155E+002
3	0	4.273169991976465E+002	2.8908062E-001	-2.7038031E+002
3	0	4.278169991850154E+002	2.8574094E-001	-2.7036972E+002
3	0	4.283169991723844E+002	2.8313842E-001	-2.7038031E+002
3	0	4.288169991597533E+002	2.8105184E-001	-2.7040506E+002
3	0	4.293169991471223E+002	2.7933133E-001	-2.7039801E+002
3	0	4.298169991344912E+002	2.7787778E-001	-2.7037677E+002
3	0	4.303169991218601E+002	2.7663755E-001	-2.7039093E+002
3	0	4.308169991092291E+002	2.7557775E-001	-2.7039801E+002
3	0	4.313169990965980E+002	2.7462584E-001	-2.7039801E+002
3	0	4.318169990839669E+002	2.7377516E-001	-2.7038742E+002
3	0	4.323169990713359E+002	2.7298507E-001	-2.7038031E+002
3	0	4.328169990587048E+002	2.7225631E-001	-2.7038742E+002
3	0	4.333169990460738E+002	2.7154297E-001	-2.7038385E+002
3	0	4.338169990334427E+002	2.7084619E-001	-2.7039093E+002
3	0	4.343169990208116E+002	2.7019617E-001	-2.7039801E+002
3	0	4.348169990081806E+002	2.6960456E-001	-2.7038385E+002
3	0	4.353169989955495E+002	2.6902556E-001	-2.7035913E+002
3	0	4.358169989829184E+002	2.6846486E-001	-2.7036267E+002
3	0	4.363169989702874E+002	2.6791978E-001	-2.7038742E+002
3	0	4.368169989576563E+002	2.6738122E-001	-2.7037677E+002
3	0	4.373169989450253E+002	2.6683608E-001	-2.7036972E+002
3	0	4.378169989323942E+002	2.6626974E-001	-2.7039093E+002
3	0	4.383169989197631E+002	2.6573777E-001	-2.7035913E+002
3	0	4.388169989071321E+002	2.6523504E-001	-2.7040155E+002
3	0	4.393169988945010E+002	2.6473427E-001	-2.7038742E+002
3	0	4.398169988818699E+002	2.6424450E-001	-2.7039447E+002
3	0	4.403169988692389E+002	2.6375479E-001	-2.7038742E+002
3	0	4.408169988566078E+002	2.6327059E-001	-2.7038742E+002
3	0	4.413169988439768E+002	2.6277417E-001	-2.7036267E+002
3	0	4.418169988313457E+002	2.6225248E-001	-2.7039801E+002
3	0	4.423169988187146E+002	2.6175562E-001	-2.7038031E+002
3	0	4.428169988060836E+002	2.6129240E-001	-2.7039801E+002
3	0	4.433169987934525E+002	2.6081744E-001	-2.7039093E+002
3	0	4.438169987808215E+002	2.6035240E-001	-2.7037326E+002
3	0	4.443169987681904E+002	2.5989249E-001	-2.7039801E+002
3	0	4.448169987555593E+002	2.5943992E-001	-2.7037326E+002
3	0	4.453169987429283E+002	2.5896400E-001	-2.7038385E+002
3	0	4.458169987302972E+002	2.5847459E-001	-2.7038385E+002
3	0	4.463169987176661E+002	2.5801185E-001	-2.7039093E+002
3	0	4.468169987050351E+002	2.5756964E-001	-2.7039093E+002
3	0	4.473169986924040E+002	2.5711542E-001	-2.7038742E+002
3	0	4.478169986797730E+002	2.5665927E-001	-2.7037677E+002
3	0	4.483169986671419E+002	2.5622231E-001	-2.7036618E+002
3	0	4.488169986545108E+002	2.5578263E-001	-2.7038385E+002
3	0	4.493169986418798E+002	2.5533113E-001	-2.7038385E+002
3	0	4.498169986292487E+002	2.5487062E-001	-2.7036972E+002
3	0	4.503169986166176E+002	2.5443679E-001	-2.7040506E+002
3	0	4.508169986039866E+002	2.5403172E-001	-2.7039447E+002
3	0	4.513169985913555E+002	2.5361672E-001	-2.7037326E+002
3	0	4.518169985787245E+002	2.5320870E-001	-2.7041568E+002
3	0	4.523169985660934E+002	2.5281027E-001	-2.7037326E+002
3	0	4.523415985654719E+002	2.5260648E-001	-2.7036972E+002