EC-Lab ASCII FILE
Nb header lines : 55                          

Open Circuit Voltage

Run on channel : 1 (SN 81504)
User : 
CE vs. WE compliance from -10 V to 10 V
Electrode connection : standard
Potential control : Ewe
Ewe ctrl range : min = -2.50 V, max = 2.50 V
Safety Limits :
	Do not start on E overload
Acquisition started on : 05/07/2026 19:04:33.160
Loaded Setting File :  C:\PEM-WE_measurements\2026\372_IV_IV IrOx, 5 min Pt, 30 min C, etched cathode\new station\Loopeis new\1,46 V different time gaps open cell\Loopeis 1,46V_90s_3_PEIS from 6500Hz to 1000Hz.mps
Saved on :
	File : L_18_Loopeis 1,46V_90s_3_PEIS from 6500Hz to 1000Hz_02_OCV_C01.mpr
	Directory : C:\PEM-WE_measurements\2026\372_IV_IV IrOx, 5 min Pt, 30 min C, etched cathode\new station\Loopeis new\1,46 V different time gaps open cell\
	Host : 192.168.0.2
Device : SP-150e (SN .005491)
Address : 192.168.0.91
EC-LAB for windows v11.71 (software)
Internet server v28.00 (firmware)
Command interpretor v14.01 (firmware)
Electrode material : 
Initial state : 
Electrolyte : 
Comments : 
Current amplifier : SP-150eB-20A
Electrode surface area : 0.001 cm²
Characteristic mass : 0.001 g
Equivalent Weight : 0.000 g/eq.
Density : 0.000 g/cm3
Volume (V) : 0.001 cm³
Record Analogic IN 1
Text export
   Mode : Standard
   Time format : Elapsed
Cycle Definition : Charge/Discharge alternance
External device configuration :
   device type : Temperature Probe
   device name : Other
   Analog IN 1 : 
      unit : T/Â°C
      max : 100.000 at 2.000 V
      min : 0.000 at 1.460 V
tR (h:m:s)          0:01:30.0000        
dER/dt (mV/h)       1.0                 
record              <Ewe>               
dER (mV)            10.00               
dtR (s)             0.5000              
E range min (V)     -2.500              
E range max (V)     2.500               

mode	error	time/s	<Ewe/V>	Analog IN 1/V	
3	0	4.549979885057837E+001	1.2705334E+000	-2.7039447E+002
3	0	4.599979883794731E+001	1.2566121E+000	-2.7037677E+002
3	0	4.649979882531625E+001	1.2015345E+000	-2.7037677E+002
3	0	4.699979881268519E+001	1.0900027E+000	-2.7039093E+002
3	0	4.749979880005412E+001	7.1508664E-001	-2.7038742E+002
3	0	4.799979878742306E+001	3.8818720E-001	-2.7036267E+002
3	0	4.849979877479200E+001	3.2730874E-001	-2.7036267E+002
3	0	4.899979876216094E+001	3.1713921E-001	-2.7038385E+002
3	0	4.949979874952987E+001	3.0953494E-001	-2.7038031E+002
3	0	4.999979873689881E+001	3.0343381E-001	-2.7038385E+002
3	0	5.049979872426775E+001	2.9873154E-001	-2.7038031E+002
3	0	5.099979871163669E+001	2.9510424E-001	-2.7037326E+002
3	0	5.149979869900562E+001	2.9227334E-001	-2.7036618E+002
3	0	5.199979868637456E+001	2.8999668E-001	-2.7037326E+002
3	0	5.249979867374350E+001	2.8812128E-001	-2.7038742E+002
3	0	5.299979866111244E+001	2.8652829E-001	-2.7037677E+002
3	0	5.349979864848137E+001	2.8515333E-001	-2.7038031E+002
3	0	5.399979863585031E+001	2.8392741E-001	-2.7036267E+002
3	0	5.449979862321925E+001	2.8281218E-001	-2.7036267E+002
3	0	5.499979861058819E+001	2.8179222E-001	-2.7037677E+002
3	0	5.549979859795712E+001	2.8087649E-001	-2.7039093E+002
3	0	5.599979858532606E+001	2.8004548E-001	-2.7036267E+002
3	0	5.649979857269500E+001	2.7926290E-001	-2.7036267E+002
3	0	5.699979856006394E+001	2.7851713E-001	-2.7036972E+002
3	0	5.749979854743287E+001	2.7780491E-001	-2.7036618E+002
3	0	5.799979853480181E+001	2.7711022E-001	-2.7038742E+002
3	0	5.849979852217075E+001	2.7641559E-001	-2.7038385E+002
3	0	5.899979850953969E+001	2.7573344E-001	-2.7037677E+002
3	0	5.949979849690862E+001	2.7509031E-001	-2.7038031E+002
3	0	5.999979848427756E+001	2.7449718E-001	-2.7036972E+002
3	0	6.049979847164650E+001	2.7390292E-001	-2.7038742E+002
3	0	6.099979845901544E+001	2.7331147E-001	-2.7037677E+002
3	0	6.149979844638438E+001	2.7273226E-001	-2.7040506E+002
3	0	6.199979843375331E+001	2.7216476E-001	-2.7038031E+002
3	0	6.249979842112225E+001	2.7157068E-001	-2.7036618E+002
3	0	6.299979840849119E+001	2.7096805E-001	-2.7038742E+002
3	0	6.349979839586013E+001	2.7040648E-001	-2.7038742E+002
3	0	6.399979838322906E+001	2.6986936E-001	-2.7040155E+002
3	0	6.449979837059800E+001	2.6933852E-001	-2.7039447E+002
3	0	6.499979835796694E+001	2.6880631E-001	-2.7037326E+002
3	0	6.549979834533588E+001	2.6828495E-001	-2.7037326E+002
3	0	6.599979833270481E+001	2.6776037E-001	-2.7035205E+002
3	0	6.649979832007375E+001	2.6721388E-001	-2.7039447E+002
3	0	6.699979830744269E+001	2.6666239E-001	-2.7037677E+002
3	0	6.749979829481163E+001	2.6614779E-001	-2.7036267E+002
3	0	6.799979828218056E+001	2.6565701E-001	-2.7037677E+002
3	0	6.849979826954950E+001	2.6515990E-001	-2.7037677E+002
3	0	6.899979825691844E+001	2.6466912E-001	-2.7037326E+002
3	0	6.949979824428738E+001	2.6418555E-001	-2.7039801E+002
3	0	6.999979823165631E+001	2.6369905E-001	-2.7039093E+002
3	0	7.049979821902525E+001	2.6319432E-001	-2.7038742E+002
3	0	7.099979820639419E+001	2.6268521E-001	-2.7035559E+002
3	0	7.149979819376313E+001	2.6220891E-001	-2.7037326E+002
3	0	7.199979818113206E+001	2.6175573E-001	-2.7038742E+002
3	0	7.249979816850100E+001	2.6129729E-001	-2.7038385E+002
3	0	7.299979815586994E+001	2.6084468E-001	-2.7035559E+002
3	0	7.349979814323888E+001	2.6038966E-001	-2.7038742E+002
3	0	7.399979813060781E+001	2.5992924E-001	-2.7038031E+002
3	0	7.449979811797675E+001	2.5946262E-001	-2.7037326E+002
3	0	7.499979810534569E+001	2.5897738E-001	-2.7036618E+002
3	0	7.549979809271463E+001	2.5853071E-001	-2.7036267E+002
3	0	7.599979808008356E+001	2.5810409E-001	-2.7039801E+002
3	0	7.649979806745250E+001	2.5767270E-001	-2.7035913E+002
3	0	7.699979805482144E+001	2.5724691E-001	-2.7037326E+002
3	0	7.749979804219038E+001	2.5682306E-001	-2.7038031E+002
3	0	7.799979802955932E+001	2.5639257E-001	-2.7037326E+002
3	0	7.849979801692825E+001	2.5595090E-001	-2.7035205E+002
3	0	7.899979800429719E+001	2.5549391E-001	-2.7036618E+002
3	0	7.949979799166613E+001	2.5508073E-001	-2.7039093E+002
3	0	7.999979797903507E+001	2.5468981E-001	-2.7037326E+002
3	0	8.049979796640400E+001	2.5429568E-001	-2.7036618E+002
3	0	8.099979795377294E+001	2.5389755E-001	-2.7039447E+002
3	0	8.149979794114188E+001	2.5350055E-001	-2.7038742E+002
3	0	8.199979792851082E+001	2.5309741E-001	-2.7036618E+002
3	0	8.249979791587975E+001	2.5267825E-001	-2.7038385E+002
3	0	8.299979790324869E+001	2.5225127E-001	-2.7038385E+002
3	0	8.349979789061763E+001	2.5186354E-001	-2.7039447E+002
3	0	8.399979787798657E+001	2.5149849E-001	-2.7035913E+002
3	0	8.449979786535550E+001	2.5113392E-001	-2.7038031E+002
3	0	8.499979785272444E+001	2.5076559E-001	-2.7037326E+002
3	0	8.549979784009338E+001	2.5040305E-001	-2.7039801E+002
3	0	8.599979782746232E+001	2.5003275E-001	-2.7034497E+002
3	0	8.649979781483125E+001	2.4965174E-001	-2.7037677E+002
3	0	8.699979780220019E+001	2.4926271E-001	-2.7036972E+002
3	0	8.749979778956913E+001	2.4891053E-001	-2.7039093E+002
3	0	8.799979777693807E+001	2.4857894E-001	-2.7039447E+002
3	0	8.849979776430700E+001	2.4824205E-001	-2.7040155E+002
3	0	8.899979775167594E+001	2.4791376E-001	-2.7036618E+002
3	0	8.949979773904488E+001	2.4757887E-001	-2.7038742E+002
3	0	8.999979772641382E+001	2.4723639E-001	-2.7037326E+002
3	0	9.049979771378275E+001	2.4688084E-001	-2.7038385E+002
3	0	9.099979770115169E+001	2.4651639E-001	-2.7034497E+002
3	0	9.149979768852063E+001	2.4619581E-001	-2.7036972E+002
3	0	9.199979767588957E+001	2.4588798E-001	-2.7042273E+002
3	0	9.249979766325851E+001	2.4558990E-001	-2.7039093E+002
3	0	9.299979765062744E+001	2.4527887E-001	-2.7037326E+002
3	0	9.349979763799638E+001	2.4497394E-001	-2.7038031E+002
3	0	9.399979762536532E+001	2.4466281E-001	-2.7037677E+002
3	0	9.449979761273426E+001	2.4433686E-001	-2.7039447E+002
3	0	9.499979760010319E+001	2.4399447E-001	-2.7039093E+002
3	0	9.549979758747213E+001	2.4369657E-001	-2.7037326E+002
3	0	9.599979757484107E+001	2.4341534E-001	-2.7036972E+002
3	0	9.649979756221001E+001	2.4314317E-001	-2.7038385E+002
3	0	9.699979754957894E+001	2.4286297E-001	-2.7039447E+002
3	0	9.749979753694788E+001	2.4258387E-001	-2.7038385E+002
3	0	9.799979752431682E+001	2.4229488E-001	-2.7038031E+002
3	0	9.849979751168576E+001	2.4199264E-001	-2.7039093E+002
3	0	9.899979749905469E+001	2.4167576E-001	-2.7035205E+002
3	0	9.949979748642363E+001	2.4140275E-001	-2.7036972E+002
3	0	9.999979747379257E+001	2.4114372E-001	-2.7035913E+002
3	0	1.004997974611615E+002	2.4088946E-001	-2.7036267E+002
3	0	1.009997974485304E+002	2.4063334E-001	-2.7036972E+002
3	0	1.014997974358994E+002	2.4037389E-001	-2.7039447E+002
3	0	1.019997974232683E+002	2.4011627E-001	-2.7037326E+002
3	0	1.024997974106373E+002	2.3983644E-001	-2.7037326E+002
3	0	1.029997973980062E+002	2.3954706E-001	-2.7036267E+002
3	0	1.034997973853751E+002	2.3928761E-001	-2.7037677E+002
3	0	1.039997973727441E+002	2.3905595E-001	-2.7037326E+002
3	0	1.044997973601130E+002	2.3882018E-001	-2.7039093E+002
3	0	1.049997973474819E+002	2.3857741E-001	-2.7036267E+002
3	0	1.054997973348509E+002	2.3834208E-001	-2.7036267E+002
3	0	1.059997973222198E+002	2.3810074E-001	-2.7034497E+002
3	0	1.064997973095888E+002	2.3784110E-001	-2.7038031E+002
3	0	1.069997972969577E+002	2.3757505E-001	-2.7038385E+002
3	0	1.074997972843266E+002	2.3734227E-001	-2.7037326E+002
3	0	1.079997972716956E+002	2.3713128E-001	-2.7035559E+002
3	0	1.084997972590645E+002	2.3691730E-001	-2.7036972E+002
3	0	1.089997972464334E+002	2.3670480E-001	-2.7041568E+002
3	0	1.094997972338024E+002	2.3649324E-001	-2.7033789E+002
3	0	1.099997972211713E+002	2.3628099E-001	-2.7035913E+002
3	0	1.104997972085403E+002	2.3603605E-001	-2.7038385E+002
3	0	1.109997971959092E+002	2.3578525E-001	-2.7040506E+002
3	0	1.114997971832781E+002	2.3558141E-001	-2.7037677E+002
3	0	1.119997971706471E+002	2.3540092E-001	-2.7037677E+002
3	0	1.124997971580160E+002	2.3520690E-001	-2.7037677E+002
3	0	1.129997971453849E+002	2.3500824E-001	-2.7038742E+002
3	0	1.134997971327539E+002	2.3480809E-001	-2.7037326E+002
3	0	1.139997971201228E+002	2.3461029E-001	-2.7035559E+002
3	0	1.144997971074918E+002	2.3438810E-001	-2.7037677E+002
3	0	1.149997970948607E+002	2.3416053E-001	-2.7041214E+002
3	0	1.154997970822296E+002	2.3397076E-001	-2.7038031E+002
3	0	1.159997970695986E+002	2.3379709E-001	-2.7038031E+002
3	0	1.164997970569675E+002	2.3361786E-001	-2.7035559E+002
3	0	1.169997970443364E+002	2.3343782E-001	-2.7038031E+002
3	0	1.174997970317054E+002	2.3326395E-001	-2.7036618E+002
3	0	1.179997970190743E+002	2.3307990E-001	-2.7038031E+002
3	0	1.184997970064433E+002	2.3288028E-001	-2.7035559E+002
3	0	1.189997969938122E+002	2.3266578E-001	-2.7036618E+002
3	0	1.194997969811811E+002	2.3248908E-001	-2.7037677E+002
3	0	1.199997969685501E+002	2.3233023E-001	-2.7038742E+002
3	0	1.204997969559190E+002	2.3217103E-001	-2.7039093E+002
3	0	1.209997969432879E+002	2.3200795E-001	-2.7038385E+002
3	0	1.214997969306569E+002	2.3184535E-001	-2.7039801E+002
3	0	1.219997969180258E+002	2.3168045E-001	-2.7036267E+002
3	0	1.224997969053948E+002	2.3149206E-001	-2.7038742E+002
3	0	1.229997968927637E+002	2.3128459E-001	-2.7038385E+002
3	0	1.234997968801326E+002	2.3111843E-001	-2.7038031E+002
3	0	1.239997968675016E+002	2.3096944E-001	-2.7038031E+002
3	0	1.244997968548705E+002	2.3081888E-001	-2.7039801E+002
3	0	1.249997968422394E+002	2.3066951E-001	-2.7037326E+002
3	0	1.254997968296084E+002	2.3051880E-001	-2.7037326E+002
3	0	1.259997968169773E+002	2.3036163E-001	-2.7033438E+002
3	0	1.264997968043463E+002	2.3018363E-001	-2.7036972E+002
3	0	1.269997967917152E+002	2.2999048E-001	-2.7037677E+002
3	0	1.274997967790841E+002	2.2983451E-001	-2.7035913E+002
3	0	1.279997967664531E+002	2.2969848E-001	-2.7035913E+002
3	0	1.284997967538220E+002	2.2956166E-001	-2.7035913E+002
3	0	1.289997967411909E+002	2.2942455E-001	-2.7034851E+002
3	0	1.294997967285599E+002	2.2928390E-001	-2.7038742E+002
3	0	1.299997967159288E+002	2.2913702E-001	-2.7034851E+002
3	0	1.304997967032978E+002	2.2897127E-001	-2.7036267E+002
3	0	1.309997966906667E+002	2.2879477E-001	-2.7033438E+002
3	0	1.314997966780356E+002	2.2865629E-001	-2.7037677E+002
3	0	1.319997966654046E+002	2.2853485E-001	-2.7039447E+002
3	0	1.324997966527735E+002	2.2841620E-001	-2.7036972E+002
3	0	1.329997966401424E+002	2.2828890E-001	-2.7038742E+002
3	0	1.334997966275114E+002	2.2816217E-001	-2.7040506E+002
3	0	1.339997966148803E+002	2.2802973E-001	-2.7037677E+002
3	0	1.344997966022493E+002	2.2786751E-001	-2.7038385E+002
3	0	1.349997965896182E+002	2.2769906E-001	-2.7038385E+002
3	0	1.350001965896081E+002	2.2770689E-001	-2.7038742E+002