EC-Lab ASCII FILE
Nb header lines : 48                          

Open Circuit Voltage

Run on channel : 1 (SN 81504)
User : 
CE vs. WE compliance from -10 V to 10 V
Electrode connection : standard
Potential control : Ewe
Ewe ctrl range : min = -2.50 V, max = 2.50 V
Safety Limits :
	Do not start on E overload
Acquisition started on : 05/09/2026 23:34:18.990
Loaded Setting File :  C:\PEM-WE_measurements\2026\372_IV_IV IrOx, 5 min Pt, 30 min C, etched cathode\new station\Loopeis new\1,46 V different time gaps closed cell\Loopeis 1,46V_30s_2_PEIS from 65kHz to 10kHz.mps
Saved on :
	File : L_02_Loopeis 1,46V_30s_2_PEIS from 65kHz to 10kHz_08_OCV_C01.mpr
	Directory : C:\PEM-WE_measurements\2026\372_IV_IV IrOx, 5 min Pt, 30 min C, etched cathode\new station\Loopeis new\1,46 V different time gaps closed cell\
	Host : 192.168.0.2
Device : SP-150e (SN .005491)
Address : 192.168.0.91
EC-LAB for windows v11.71 (software)
Internet server v28.00 (firmware)
Command interpretor v14.01 (firmware)
Electrode material : 
Initial state : 
Electrolyte : 
Comments : 
Current amplifier : SP-150eB-20A
Electrode surface area : 0.001 cm²
Characteristic mass : 0.001 g
Equivalent Weight : 0.000 g/eq.
Density : 0.000 g/cm3
Volume (V) : 0.001 cm³
Record Analogic IN 1
Text export
   Mode : Standard
   Time format : Elapsed
Cycle Definition : Charge/Discharge alternance
tR (h:m:s)          0:00:30.0000        
dER/dt (mV/h)       1.0                 
record              <Ewe>               
dER (mV)            10.00               
dtR (s)             0.5000              
E range min (V)     -2.500              
E range max (V)     2.500               

mode	error	time/s	<Ewe/V>	Analog IN 1/V	
3	0	2.718261997802620E+002	1.2206374E+000	-3.4306191E-005
3	0	2.723261997676309E+002	1.2447480E+000	-5.3391734E-005
3	0	2.728261997549998E+002	1.2496095E+000	-7.2477276E-005
3	0	2.733261997423688E+002	1.2526534E+000	-1.1064836E-004
3	0	2.738261997297377E+002	1.2548481E+000	-7.2477276E-005
3	0	2.743261997171066E+002	1.2565299E+000	4.2035979E-005
3	0	2.748261997044756E+002	1.2578788E+000	-1.6790499E-004
3	0	2.753261996918445E+002	1.2589986E+000	3.8648941E-006
3	0	2.758261996792135E+002	1.2599099E+000	-3.4306191E-005
3	0	2.763261996665824E+002	1.2606319E+000	-5.3391734E-005
3	0	2.768261996539513E+002	1.2612157E+000	-3.4306191E-005
3	0	2.773261996413203E+002	1.2617670E+000	3.8648941E-006
3	0	2.778261996286892E+002	1.2622638E+000	-5.3391734E-005
3	0	2.783261996160581E+002	1.2626796E+000	-5.3391734E-005
3	0	2.788261996034271E+002	1.2630337E+000	-7.2477276E-005
3	0	2.793261995907960E+002	1.2633355E+000	-1.1064836E-004
3	0	2.798261995781650E+002	1.2635702E+000	-3.4306191E-005
3	0	2.803261995655339E+002	1.2636986E+000	4.2035979E-005
3	0	2.808261995529028E+002	1.2637559E+000	-2.0607607E-004
3	0	2.813261995402718E+002	1.2638439E+000	-5.3391734E-005
3	0	2.818261995276407E+002	1.2639232E+000	-1.6790499E-004
3	0	2.823261995150096E+002	1.2639670E+000	-3.4306191E-005
3	0	2.828261995023786E+002	1.2639774E+000	-5.3391734E-005
3	0	2.833261994897475E+002	1.2639683E+000	-1.1064836E-004
3	0	2.838261994771165E+002	1.2639139E+000	-1.1064836E-004
3	0	2.843261994644854E+002	1.2637775E+000	-7.2477276E-005
3	0	2.848261994518543E+002	1.2635887E+000	8.0207064E-005
3	0	2.853261994392233E+002	1.2634540E+000	-2.2516162E-004
3	0	2.858261994265922E+002	1.2633308E+000	-1.2973390E-004
3	0	2.863261994139611E+002	1.2631863E+000	-5.3391734E-005
3	0	2.868261994013301E+002	1.2630154E+000	-9.1562819E-005
3	0	2.873261993886990E+002	1.2628347E+000	4.2035979E-005
3	0	2.878261993760680E+002	1.2626284E+000	-9.1562819E-005
3	0	2.883261993634369E+002	1.2623467E+000	3.8648941E-006
3	0	2.888261993508058E+002	1.2620075E+000	-3.4306191E-005
3	0	2.893261993381748E+002	1.2617357E+000	-1.5220648E-005
3	0	2.898261993255437E+002	1.2614764E+000	-7.2477276E-005
3	0	2.903261993129126E+002	1.2612003E+000	-9.1562819E-005
3	0	2.908261993002816E+002	1.2609115E+000	-7.2477276E-005
3	0	2.913261992876505E+002	1.2606094E+000	-1.1064836E-004
3	0	2.918261992750195E+002	1.2602742E+000	-1.1064836E-004
3	0	2.923261992623884E+002	1.2598745E+000	-3.4306191E-005
3	0	2.928261992497573E+002	1.2594248E+000	4.2035979E-005
3	0	2.933261992371263E+002	1.2590349E+000	3.8648941E-006
3	0	2.938261992244952E+002	1.2586743E+000	-1.1064836E-004
3	0	2.943261992118642E+002	1.2582875E+000	8.0207064E-005
3	0	2.948261991992331E+002	1.2578957E+000	-1.2973390E-004
3	0	2.953261991866020E+002	1.2574985E+000	-3.4306191E-005
3	0	2.958261991739710E+002	1.2570670E+000	-7.2477276E-005
3	0	2.963261991613399E+002	1.2565643E+000	-7.2477276E-005
3	0	2.968261991487088E+002	1.2560228E+000	-7.2477276E-005
3	0	2.973261991360778E+002	1.2555392E+000	-1.6790499E-004
3	0	2.978261991234467E+002	1.2550772E+000	4.2035979E-005
3	0	2.983261991108157E+002	1.2546026E+000	4.2035979E-005
3	0	2.988261990981846E+002	1.2541173E+000	2.2950437E-005
3	0	2.993261990855535E+002	1.2536167E+000	3.8648941E-006
3	0	2.998261990729225E+002	1.2531055E+000	3.8648941E-006
3	0	3.003261990602914E+002	1.2525134E+000	-1.1064836E-004
3	0	3.008261990476603E+002	1.2518773E+000	2.2950437E-005
3	0	3.013261990350293E+002	1.2513050E+000	-5.3391734E-005
3	0	3.013607990341552E+002	1.2510061E+000	-1.4881945E-004