EC-Lab ASCII FILE
Nb header lines : 48                          

Open Circuit Voltage

Run on channel : 1 (SN 81504)
User : 
CE vs. WE compliance from -10 V to 10 V
Electrode connection : standard
Potential control : Ewe
Ewe ctrl range : min = -2.50 V, max = 2.50 V
Safety Limits :
	Do not start on E overload
Acquisition started on : 05/07/2026 18:41:54.331
Loaded Setting File :  C:\PEM-WE_measurements\2026\372_IV_IV IrOx, 5 min Pt, 30 min C, etched cathode\new station\Loopeis new\1,46 V different time gaps open cell\Loopeis 1,46V_90s_2_PEIS from 65kHz to 10kHz.mps
Saved on :
	File : L_17_Loopeis 1,46V_90s_2_PEIS from 65kHz to 10kHz_14_OCV_C01.mpr
	Directory : C:\PEM-WE_measurements\2026\372_IV_IV IrOx, 5 min Pt, 30 min C, etched cathode\new station\Loopeis new\1,46 V different time gaps open cell\
	Host : 192.168.0.2
Device : SP-150e (SN .005491)
Address : 192.168.0.91
EC-LAB for windows v11.71 (software)
Internet server v28.00 (firmware)
Command interpretor v14.01 (firmware)
Electrode material : 
Initial state : 
Electrolyte : 
Comments : 
Current amplifier : SP-150eB-20A
Electrode surface area : 0.001 cm²
Characteristic mass : 0.001 g
Equivalent Weight : 0.000 g/eq.
Density : 0.000 g/cm3
Volume (V) : 0.001 cm³
Record Analogic IN 1
Text export
   Mode : Standard
   Time format : Elapsed
Cycle Definition : Charge/Discharge alternance
tR (h:m:s)          0:01:30.0000        
dER/dt (mV/h)       1.0                 
record              <Ewe>               
dER (mV)            10.00               
dtR (s)             0.5000              
E range min (V)     -2.500              
E range max (V)     2.500               

mode	error	time/s	<Ewe/V>	Analog IN 1/V	
3	0	8.555001882104261E+002	1.2722772E+000	2.2950437E-005
3	0	8.560001881977951E+002	1.2601181E+000	3.8648941E-006
3	0	8.565001881851640E+002	1.2101293E+000	3.8648941E-006
3	0	8.570001881725329E+002	1.1108782E+000	2.2950437E-005
3	0	8.575001881599019E+002	7.8162897E-001	-3.4306191E-005
3	0	8.580001881472708E+002	4.1126898E-001	-5.3391734E-005
3	0	8.585001881346398E+002	3.3133888E-001	-3.4306191E-005
3	0	8.590001881220087E+002	3.1980789E-001	2.2950437E-005
3	0	8.595001881093776E+002	3.1198907E-001	-3.4306191E-005
3	0	8.600001880967466E+002	3.0570877E-001	-1.4881945E-004
3	0	8.605001880841155E+002	3.0086398E-001	-3.4306191E-005
3	0	8.610001880714844E+002	2.9711890E-001	4.2035979E-005
3	0	8.615001880588534E+002	2.9416639E-001	6.1121522E-005
3	0	8.620001880462223E+002	2.9181904E-001	-5.3391734E-005
3	0	8.625001880335913E+002	2.8988358E-001	-1.2973390E-004
3	0	8.630001880209602E+002	2.8825575E-001	-1.2973390E-004
3	0	8.635001880083291E+002	2.8685129E-001	-1.2973390E-004
3	0	8.640001879956981E+002	2.8561372E-001	-1.4881945E-004
3	0	8.645001879830670E+002	2.8449899E-001	3.8648941E-006
3	0	8.650001879704359E+002	2.8346246E-001	4.2035979E-005
3	0	8.655001879578049E+002	2.8250596E-001	-2.2516162E-004
3	0	8.660001879451738E+002	2.8164744E-001	-7.2477276E-005
3	0	8.665001879325428E+002	2.8085235E-001	2.2950437E-005
3	0	8.670001879199117E+002	2.8009582E-001	-5.3391734E-005
3	0	8.675001879072806E+002	2.7937654E-001	-5.3391734E-005
3	0	8.680001878946496E+002	2.7868518E-001	-1.5220648E-005
3	0	8.685001878820185E+002	2.7800164E-001	-9.1562819E-005
3	0	8.690001878693874E+002	2.7731374E-001	-1.4881945E-004
3	0	8.695001878567564E+002	2.7663842E-001	3.8648941E-006
3	0	8.700001878441253E+002	2.7601665E-001	-3.4306191E-005
3	0	8.705001878314943E+002	2.7541393E-001	-1.5220648E-005
3	0	8.710001878188632E+002	2.7482316E-001	2.2950437E-005
3	0	8.715001878062321E+002	2.7424532E-001	-1.2973390E-004
3	0	8.720001877936011E+002	2.7366793E-001	-1.2973390E-004
3	0	8.725001877809700E+002	2.7309150E-001	8.0207064E-005
3	0	8.730001877683389E+002	2.7249613E-001	2.2950437E-005
3	0	8.735001877557079E+002	2.7191389E-001	-1.5220648E-005
3	0	8.740001877430768E+002	2.7136007E-001	6.1121522E-005
3	0	8.745001877304458E+002	2.7083129E-001	-1.5220648E-005
3	0	8.750001877178147E+002	2.7030039E-001	-5.3391734E-005
3	0	8.755001877051836E+002	2.6977405E-001	-1.5220648E-005
3	0	8.760001876925526E+002	2.6925781E-001	-5.3391734E-005
3	0	8.765001876799215E+002	2.6872754E-001	-1.4881945E-004
3	0	8.770001876672904E+002	2.6817918E-001	2.2950437E-005
3	0	8.775001876546594E+002	2.6763046E-001	-7.2477276E-005
3	0	8.780001876420283E+002	2.6712260E-001	-1.4881945E-004
3	0	8.785001876293973E+002	2.6662380E-001	-1.6790499E-004
3	0	8.790001876167662E+002	2.6612750E-001	-7.2477276E-005
3	0	8.795001876041351E+002	2.6563922E-001	-1.5220648E-005
3	0	8.800001875915041E+002	2.6514372E-001	-9.1562819E-005
3	0	8.805001875788730E+002	2.6464927E-001	9.9292607E-005
3	0	8.810001875662419E+002	2.6413655E-001	4.2035979E-005
3	0	8.815001875536109E+002	2.6362684E-001	-1.1064836E-004
3	0	8.820001875409798E+002	2.6315579E-001	-1.1064836E-004
3	0	8.825001875283488E+002	2.6269457E-001	1.3746369E-004
3	0	8.830001875157177E+002	2.6223370E-001	-3.4306191E-005
3	0	8.835001875030866E+002	2.6177374E-001	-3.4306191E-005
3	0	8.840001874904556E+002	2.6132163E-001	-3.4306191E-005
3	0	8.845001874778245E+002	2.6085865E-001	-1.5220648E-005
3	0	8.850001874651934E+002	2.6038137E-001	-1.8699054E-004
3	0	8.855001874525624E+002	2.5989980E-001	-5.3391734E-005
3	0	8.860001874399313E+002	2.5947145E-001	-3.4306191E-005
3	0	8.865001874273003E+002	2.5904503E-001	6.1121522E-005
3	0	8.870001874146692E+002	2.5861579E-001	2.2950437E-005
3	0	8.875001874020381E+002	2.5818878E-001	4.2035979E-005
3	0	8.880001873894071E+002	2.5776553E-001	2.2950437E-005
3	0	8.885001873767760E+002	2.5733271E-001	-1.4881945E-004
3	0	8.890001873641449E+002	2.5687701E-001	-7.2477276E-005
3	0	8.895001873515139E+002	2.5643328E-001	3.8648941E-006
3	0	8.900001873388828E+002	2.5602534E-001	-5.3391734E-005
3	0	8.905001873262518E+002	2.5563154E-001	-5.3391734E-005
3	0	8.910001873136207E+002	2.5523213E-001	-9.1562819E-005
3	0	8.915001873009896E+002	2.5484091E-001	-3.4306191E-005
3	0	8.920001872883586E+002	2.5444674E-001	-1.1064836E-004
3	0	8.925001872757275E+002	2.5404873E-001	3.8648941E-006
3	0	8.930001872630965E+002	2.5362775E-001	-5.3391734E-005
3	0	8.935001872504654E+002	2.5321057E-001	3.8648941E-006
3	0	8.940001872378343E+002	2.5283998E-001	-1.2973390E-004
3	0	8.945001872252033E+002	2.5247362E-001	3.8648941E-006
3	0	8.950001872125722E+002	2.5210562E-001	-9.1562819E-005
3	0	8.955001871999411E+002	2.5173956E-001	6.1121522E-005
3	0	8.960001871873101E+002	2.5137621E-001	-7.2477276E-005
3	0	8.965001871746790E+002	2.5100881E-001	-7.2477276E-005
3	0	8.970001871620480E+002	2.5061733E-001	3.8648941E-006
3	0	8.975001871494169E+002	2.5022653E-001	-7.2477276E-005
3	0	8.980001871367858E+002	2.4988376E-001	-1.4881945E-004
3	0	8.985001871241548E+002	2.4954937E-001	-9.1562819E-005
3	0	8.990001871115237E+002	2.4921218E-001	-7.2477276E-005
3	0	8.995001870988926E+002	2.4886467E-001	3.8648941E-006
3	0	9.000001870862616E+002	2.4852513E-001	6.1121522E-005
3	0	9.005001870736305E+002	2.4817421E-001	-3.4306191E-005
3	0	9.010001870609995E+002	2.4781178E-001	4.2035979E-005
3	0	9.015001870483684E+002	2.4745403E-001	-5.3391734E-005
3	0	9.020001870357373E+002	2.4712946E-001	-3.4306191E-005
3	0	9.025001870231063E+002	2.4682049E-001	-1.1064836E-004
3	0	9.030001870104752E+002	2.4650870E-001	-2.4424717E-004
3	0	9.035001869978441E+002	2.4619859E-001	8.0207064E-005
3	0	9.040001869852131E+002	2.4589227E-001	-7.2477276E-005
3	0	9.045001869725820E+002	2.4557379E-001	-9.1562819E-005
3	0	9.050001869599510E+002	2.4523710E-001	-1.5220648E-005
3	0	9.055001869473199E+002	2.4490148E-001	6.1121522E-005
3	0	9.060001869346888E+002	2.4461280E-001	6.1121522E-005
3	0	9.065001869220578E+002	2.4433415E-001	3.8648941E-006
3	0	9.070001869094267E+002	2.4404897E-001	-1.6790499E-004
3	0	9.075001868967956E+002	2.4376185E-001	6.1121522E-005
3	0	9.080001868841646E+002	2.4347588E-001	-7.2477276E-005
3	0	9.085001868715335E+002	2.4319191E-001	4.2035979E-005
3	0	9.090001868589025E+002	2.4288070E-001	1.3746369E-004
3	0	9.095001868462714E+002	2.4257128E-001	-7.2477276E-005
3	0	9.100001868336403E+002	2.4230616E-001	-5.3391734E-005
3	0	9.105001868210093E+002	2.4205162E-001	-3.4306191E-005
3	0	9.110001868083782E+002	2.4179113E-001	-1.5220648E-005
3	0	9.115001867957471E+002	2.4153048E-001	-1.5220648E-005
3	0	9.120001867831161E+002	2.4127245E-001	-3.4306191E-005
3	0	9.125001867704850E+002	2.4099821E-001	-5.3391734E-005
3	0	9.130001867578540E+002	2.4071749E-001	-5.3391734E-005
3	0	9.135001867452229E+002	2.4043700E-001	8.0207064E-005
3	0	9.140001867325918E+002	2.4020167E-001	-1.5220648E-005
3	0	9.145001867199608E+002	2.3997369E-001	-9.1562819E-005
3	0	9.150001867073297E+002	2.3973978E-001	-1.5220648E-005
3	0	9.155001866946986E+002	2.3950577E-001	-1.1064836E-004
3	0	9.160001866820676E+002	2.3926663E-001	4.2035979E-005
3	0	9.165001866694365E+002	2.3902261E-001	4.2035979E-005
3	0	9.170001866568055E+002	2.3875563E-001	-1.5220648E-005
3	0	9.175001866441744E+002	2.3849286E-001	-5.3391734E-005
3	0	9.180001866315433E+002	2.3827744E-001	8.0207064E-005
3	0	9.185001866189123E+002	2.3806454E-001	-5.3391734E-005
3	0	9.190001866062812E+002	2.3784415E-001	-3.4306191E-005
3	0	9.195001865936501E+002	2.3762751E-001	-1.4881945E-004
3	0	9.200001865810191E+002	2.3740269E-001	-5.3391734E-005
3	0	9.205001865683880E+002	2.3717912E-001	6.1121522E-005
3	0	9.210001865557570E+002	2.3693109E-001	-3.4306191E-005
3	0	9.215001865431259E+002	2.3668961E-001	-7.2477276E-005
3	0	9.220001865304948E+002	2.3649128E-001	-9.1562819E-005
3	0	9.225001865178638E+002	2.3629750E-001	2.2950437E-005
3	0	9.230001865052327E+002	2.3609838E-001	-1.1064836E-004
3	0	9.235001864926016E+002	2.3590089E-001	-1.4881945E-004
3	0	9.240001864799706E+002	2.3571344E-001	-1.5220648E-005
3	0	9.245001864673395E+002	2.3550819E-001	-1.1064836E-004
3	0	9.250001864547085E+002	2.3528588E-001	2.2950437E-005
3	0	9.255001864420774E+002	2.3506209E-001	4.2035979E-005
3	0	9.260001864294463E+002	2.3487243E-001	3.8648941E-006
3	0	9.265001864168153E+002	2.3469955E-001	-9.1562819E-005
3	0	9.270001864041842E+002	2.3452336E-001	2.2950437E-005
3	0	9.275001863915531E+002	2.3434213E-001	-5.3391734E-005
3	0	9.280001863789221E+002	2.3417000E-001	8.0207064E-005
3	0	9.285001863662910E+002	2.3398128E-001	-5.3391734E-005
3	0	9.290001863536600E+002	2.3376654E-001	9.9292607E-005
3	0	9.295001863410289E+002	2.3355135E-001	-1.1064836E-004
3	0	9.300001863283978E+002	2.3338905E-001	-3.4306191E-005
3	0	9.305001863157668E+002	2.3323016E-001	-9.1562819E-005
3	0	9.310001863031357E+002	2.3307335E-001	-1.6790499E-004
3	0	9.315001862905046E+002	2.3291026E-001	3.8648941E-006
3	0	9.320001862778736E+002	2.3274864E-001	-7.2477276E-005
3	0	9.325001862652425E+002	2.3257384E-001	4.2035979E-005
3	0	9.330001862526115E+002	2.3238055E-001	2.2950437E-005
3	0	9.335001862399804E+002	2.3217814E-001	-5.3391734E-005
3	0	9.340001862273493E+002	2.3202537E-001	3.8648941E-006
3	0	9.345001862147183E+002	2.3188412E-001	-1.2973390E-004
3	0	9.350001862020872E+002	2.3173697E-001	-5.3391734E-005
3	0	9.355001861894561E+002	2.3158133E-001	-5.3391734E-005
3	0	9.360001861768251E+002	2.3142946E-001	3.8648941E-006
3	0	9.365001861641940E+002	2.3126501E-001	4.2035979E-005
3	0	9.370001861515630E+002	2.3108256E-001	-3.4306191E-005
3	0	9.375001861389319E+002	2.3089163E-001	3.8648941E-006
3	0	9.380001861263008E+002	2.3074894E-001	2.2950437E-005
3	0	9.385001861136698E+002	2.3061527E-001	-1.5220648E-005
3	0	9.390001861010387E+002	2.3047569E-001	-5.3391734E-005
3	0	9.395001860884076E+002	2.3034130E-001	-7.2477276E-005
3	0	9.400001860757766E+002	2.3019896E-001	-1.4881945E-004
3	0	9.405001860631455E+002	2.3004615E-001	-3.4306191E-005
3	0	9.410001860505145E+002	2.2986810E-001	-9.1562819E-005
3	0	9.415001860378834E+002	2.2968993E-001	4.2035979E-005
3	0	9.420001860252523E+002	2.2955599E-001	6.1121522E-005
3	0	9.425001860126213E+002	2.2943531E-001	-1.2973390E-004
3	0	9.430001859999902E+002	2.2930895E-001	-5.3391734E-005
3	0	9.435001859873591E+002	2.2917968E-001	-9.1562819E-005
3	0	9.440001859747281E+002	2.2905606E-001	3.8648941E-006
3	0	9.445001859620970E+002	2.2891422E-001	-1.5220648E-005
3	0	9.450001859494660E+002	2.2875555E-001	3.8648941E-006
3	0	9.450005859494559E+002	2.2858475E-001	-1.4881945E-004