EC-Lab ASCII FILE
Nb header lines : 48                          

Open Circuit Voltage

Run on channel : 1 (SN 81504)
User : 
CE vs. WE compliance from -10 V to 10 V
Electrode connection : standard
Potential control : Ewe
Ewe ctrl range : min = -2.50 V, max = 2.50 V
Safety Limits :
	Do not start on E overload
Acquisition started on : 05/07/2026 20:50:15.926
Loaded Setting File :  C:\PEM-WE_measurements\2026\372_IV_IV IrOx, 5 min Pt, 30 min C, etched cathode\new station\Loopeis new\1,46 V different time gaps open cell\Loopeis 1,46V_120s_2_PEIS from 65kHz to 10kHz.mps
Saved on :
	File : L_22_Loopeis 1,46V_120s_2_PEIS from 65kHz to 10kHz_16_OCV_C01.mpr
	Directory : C:\PEM-WE_measurements\2026\372_IV_IV IrOx, 5 min Pt, 30 min C, etched cathode\new station\Loopeis new\1,46 V different time gaps open cell\
	Host : 192.168.0.2
Device : SP-150e (SN .005491)
Address : 192.168.0.91
EC-LAB for windows v11.71 (software)
Internet server v28.00 (firmware)
Command interpretor v14.01 (firmware)
Electrode material : 
Initial state : 
Electrolyte : 
Comments : 
Current amplifier : SP-150eB-20A
Electrode surface area : 0.001 cm²
Characteristic mass : 0.001 g
Equivalent Weight : 0.000 g/eq.
Density : 0.000 g/cm3
Volume (V) : 0.001 cm³
Record Analogic IN 1
Text export
   Mode : Standard
   Time format : Elapsed
Cycle Definition : Charge/Discharge alternance
tR (h:m:s)          0:02:0.0000         
dER/dt (mV/h)       1.0                 
record              <Ewe>               
dER (mV)            10.00               
dtR (s)             0.5000              
E range min (V)     -2.500              
E range max (V)     2.500               

mode	error	time/s	<Ewe/V>	Analog IN 1/V	
3	0	1.202416382862575E+003	9.5577723E-001	6.1121522E-005
3	0	1.202916382849944E+003	1.1531317E+000	-1.1064836E-004
3	0	1.203416382837313E+003	8.8204360E-001	-1.2973390E-004
3	0	1.203916382824682E+003	4.3959871E-001	3.8648941E-006
3	0	1.204416382812051E+003	3.2360229E-001	-5.3391734E-005
3	0	1.204916382799420E+003	3.1066701E-001	3.8648941E-006
3	0	1.205416382786789E+003	3.0387318E-001	-5.3391734E-005
3	0	1.205916382774158E+003	2.9808724E-001	2.2950437E-005
3	0	1.206416382761527E+003	2.9351902E-001	-3.4306191E-005
3	0	1.206916382748896E+003	2.8995690E-001	-5.3391734E-005
3	0	1.207416382736265E+003	2.8717548E-001	-5.3391734E-005
3	0	1.207916382723633E+003	2.8494051E-001	-7.2477276E-005
3	0	1.208416382711002E+003	2.8309470E-001	2.2950437E-005
3	0	1.208916382698371E+003	2.8155416E-001	-7.2477276E-005
3	0	1.209416382685740E+003	2.8022543E-001	-9.1562819E-005
3	0	1.209916382673109E+003	2.7905849E-001	-3.4306191E-005
3	0	1.210416382660478E+003	2.7800408E-001	-1.5220648E-005
3	0	1.210916382647847E+003	2.7704218E-001	-1.5220648E-005
3	0	1.211416382635216E+003	2.7618226E-001	-7.2477276E-005
3	0	1.211916382622585E+003	2.7539116E-001	1.1837815E-004
3	0	1.212416382609954E+003	2.7465641E-001	-1.5220648E-005
3	0	1.212916382597323E+003	2.7395946E-001	-1.6790499E-004
3	0	1.213416382584692E+003	2.7329242E-001	-2.0607607E-004
3	0	1.213916382572061E+003	2.7263588E-001	9.9292607E-005
3	0	1.214416382559430E+003	2.7199215E-001	-1.8699054E-004
3	0	1.214916382546799E+003	2.7135158E-001	-1.1064836E-004
3	0	1.215416382534168E+003	2.7076823E-001	8.0207064E-005
3	0	1.215916382521536E+003	2.7018830E-001	-7.2477276E-005
3	0	1.216416382508905E+003	2.6963466E-001	-1.2973390E-004
3	0	1.216916382496274E+003	2.6909310E-001	-9.1562819E-005
3	0	1.217416382483643E+003	2.6855287E-001	-1.4881945E-004
3	0	1.217916382471012E+003	2.6801291E-001	3.8648941E-006
3	0	1.218416382458381E+003	2.6745421E-001	-1.2973390E-004
3	0	1.218916382445750E+003	2.6690248E-001	-1.5220648E-005
3	0	1.219416382433119E+003	2.6638713E-001	-5.3391734E-005
3	0	1.219916382420488E+003	2.6587680E-001	-1.8699054E-004
3	0	1.220416382407857E+003	2.6537171E-001	4.2035979E-005
3	0	1.220916382395226E+003	2.6487327E-001	4.2035979E-005
3	0	1.221416382382595E+003	2.6438656E-001	-1.5220648E-005
3	0	1.221916382369964E+003	2.6389706E-001	-1.2973390E-004
3	0	1.222416382357333E+003	2.6339069E-001	-1.4881945E-004
3	0	1.222916382344702E+003	2.6288351E-001	-9.1562819E-005
3	0	1.223416382332071E+003	2.6241630E-001	2.2950437E-005
3	0	1.223916382319439E+003	2.6195055E-001	3.8648941E-006
3	0	1.224416382306808E+003	2.6148468E-001	-3.4306191E-005
3	0	1.224916382294177E+003	2.6102036E-001	2.2950437E-005
3	0	1.225416382281546E+003	2.6056752E-001	-1.5220648E-005
3	0	1.225916382268915E+003	2.6011178E-001	3.8648941E-006
3	0	1.226416382256284E+003	2.5963801E-001	-1.2973390E-004
3	0	1.226916382243653E+003	2.5917125E-001	3.8648941E-006
3	0	1.227416382231022E+003	2.5873360E-001	-1.5220648E-005
3	0	1.227916382218391E+003	2.5830072E-001	-2.2516162E-004
3	0	1.228416382205760E+003	2.5787061E-001	-9.1562819E-005
3	0	1.228916382193129E+003	2.5744373E-001	-9.1562819E-005
3	0	1.229416382180498E+003	2.5700077E-001	-3.4306191E-005
3	0	1.229916382167867E+003	2.5655556E-001	-1.4881945E-004
3	0	1.230416382155236E+003	2.5612968E-001	-1.2973390E-004
3	0	1.230916382142605E+003	2.5570554E-001	3.8648941E-006
3	0	1.231416382129974E+003	2.5531724E-001	-3.4306191E-005
3	0	1.231916382117342E+003	2.5493112E-001	-5.3391734E-005
3	0	1.232416382104711E+003	2.5454435E-001	4.2035979E-005
3	0	1.232916382092080E+003	2.5415879E-001	3.8648941E-006
3	0	1.233416382079449E+003	2.5377098E-001	3.8648941E-006
3	0	1.233916382066818E+003	2.5336924E-001	1.7563478E-004
3	0	1.234416382054187E+003	2.5295591E-001	-1.1064836E-004
3	0	1.234916382041556E+003	2.5253767E-001	-1.6790499E-004
3	0	1.235416382028925E+003	2.5216115E-001	9.9292607E-005
3	0	1.235916382016294E+003	2.5179741E-001	-7.2477276E-005
3	0	1.236416382003663E+003	2.5143209E-001	-7.2477276E-005
3	0	1.236916381991032E+003	2.5106290E-001	2.2950437E-005
3	0	1.237416381978401E+003	2.5069821E-001	-7.2477276E-005
3	0	1.237916381965770E+003	2.5032619E-001	4.2035979E-005
3	0	1.238416381953139E+003	2.4994124E-001	-1.1064836E-004
3	0	1.238916381940508E+003	2.4955399E-001	9.9292607E-005
3	0	1.239416381927877E+003	2.4921061E-001	-9.1562819E-005
3	0	1.239916381915245E+003	2.4888033E-001	-5.3391734E-005
3	0	1.240416381902614E+003	2.4854432E-001	-9.1562819E-005
3	0	1.240916381889983E+003	2.4821244E-001	3.8648941E-006
3	0	1.241416381877352E+003	2.4787652E-001	-3.4306191E-005
3	0	1.241916381864721E+003	2.4752852E-001	-1.5220648E-005
3	0	1.242416381852090E+003	2.4716203E-001	2.2950437E-005
3	0	1.242916381839459E+003	2.4679884E-001	3.8648941E-006
3	0	1.243416381826828E+003	2.4648274E-001	3.8648941E-006
3	0	1.243916381814197E+003	2.4617706E-001	4.2035979E-005
3	0	1.244416381801566E+003	2.4586815E-001	-1.5220648E-005
3	0	1.244916381788935E+003	2.4555761E-001	-3.4306191E-005
3	0	1.245416381776304E+003	2.4525097E-001	-1.5220648E-005
3	0	1.245916381763673E+003	2.4493580E-001	-9.1562819E-005
3	0	1.246416381751042E+003	2.4459577E-001	-5.3391734E-005
3	0	1.246916381738411E+003	2.4426188E-001	-7.2477276E-005
3	0	1.247416381725780E+003	2.4396268E-001	-7.2477276E-005
3	0	1.247916381713148E+003	2.4368128E-001	-7.2477276E-005
3	0	1.248416381700517E+003	2.4339525E-001	-1.1064836E-004
3	0	1.248916381687886E+003	2.4311371E-001	4.2035979E-005
3	0	1.249416381675255E+003	2.4283022E-001	4.2035979E-005
3	0	1.249916381662624E+003	2.4253978E-001	3.8648941E-006
3	0	1.250416381649993E+003	2.4222936E-001	-1.2973390E-004
3	0	1.250916381637362E+003	2.4192154E-001	-5.3391734E-005
3	0	1.251416381624731E+003	2.4165817E-001	-9.1562819E-005
3	0	1.251916381612100E+003	2.4140401E-001	-9.1562819E-005
3	0	1.252416381599469E+003	2.4115062E-001	-7.2477276E-005
3	0	1.252916381586838E+003	2.4089274E-001	-5.3391734E-005
3	0	1.253416381574207E+003	2.4064551E-001	-1.5220648E-005
3	0	1.253916381561576E+003	2.4037975E-001	3.8648941E-006
3	0	1.254416381548945E+003	2.4010216E-001	3.8648941E-006
3	0	1.254916381536314E+003	2.3982103E-001	-7.2477276E-005
3	0	1.255416381523683E+003	2.3958355E-001	-7.2477276E-005
3	0	1.255916381511051E+003	2.3935704E-001	-3.4306191E-005
3	0	1.256416381498420E+003	2.3912562E-001	-1.5220648E-005
3	0	1.256916381485789E+003	2.3889388E-001	-9.1562819E-005
3	0	1.257416381473158E+003	2.3865938E-001	-9.1562819E-005
3	0	1.257916381460527E+003	2.3841894E-001	8.0207064E-005
3	0	1.258416381447896E+003	2.3816407E-001	-1.5220648E-005
3	0	1.258916381435265E+003	2.3789781E-001	-1.4881945E-004
3	0	1.259416381422634E+003	2.3767941E-001	-7.2477276E-005
3	0	1.259916381410003E+003	2.3747431E-001	-1.5220648E-005
3	0	1.260416381397372E+003	2.3726413E-001	-1.5220648E-005
3	0	1.260916381384741E+003	2.3705243E-001	-2.0607607E-004
3	0	1.261416381372110E+003	2.3684298E-001	6.1121522E-005
3	0	1.261916381359479E+003	2.3661955E-001	-1.2973390E-004
3	0	1.262416381346848E+003	2.3637603E-001	-2.4424717E-004
3	0	1.262916381334217E+003	2.3612645E-001	-5.3391734E-005
3	0	1.263416381321586E+003	2.3592603E-001	3.8648941E-006
3	0	1.263916381308954E+003	2.3574334E-001	2.2950437E-005
3	0	1.264416381296323E+003	2.3555836E-001	-1.2973390E-004
3	0	1.264916381283692E+003	2.3536734E-001	-1.1064836E-004
3	0	1.265416381271061E+003	2.3517902E-001	-5.3391734E-005
3	0	1.265916381258430E+003	2.3496857E-001	-9.1562819E-005
3	0	1.266416381245799E+003	2.3473482E-001	-9.1562819E-005
3	0	1.266916381233168E+003	2.3450550E-001	-5.3391734E-005
3	0	1.267416381220537E+003	2.3432432E-001	-1.2973390E-004
3	0	1.267916381207906E+003	2.3415175E-001	-2.6333271E-004
3	0	1.268416381195275E+003	2.3397677E-001	-1.2973390E-004
3	0	1.268916381182644E+003	2.3379472E-001	-5.3391734E-005
3	0	1.269416381170013E+003	2.3361737E-001	-1.8699054E-004
3	0	1.269916381157382E+003	2.3342940E-001	-1.2973390E-004
3	0	1.270416381144751E+003	2.3322159E-001	9.9292607E-005
3	0	1.270916381132120E+003	2.3300849E-001	-1.1064836E-004
3	0	1.271416381119489E+003	2.3284112E-001	-5.3391734E-005
3	0	1.271916381106857E+003	2.3268385E-001	-1.1064836E-004
3	0	1.272416381094226E+003	2.3252203E-001	-3.4306191E-005
3	0	1.272916381081595E+003	2.3235650E-001	-5.3391734E-005
3	0	1.273416381068964E+003	2.3219760E-001	-3.4306191E-005
3	0	1.273916381056333E+003	2.3202257E-001	9.9292607E-005
3	0	1.274416381043702E+003	2.3183192E-001	2.2950437E-005
3	0	1.274916381031071E+003	2.3163311E-001	-1.5220648E-005
3	0	1.275416381018440E+003	2.3147745E-001	1.1837815E-004
3	0	1.275916381005809E+003	2.3133630E-001	3.8648941E-006
3	0	1.276416380993178E+003	2.3119296E-001	2.2950437E-005
3	0	1.276916380980547E+003	2.3104261E-001	-7.2477276E-005
3	0	1.277416380967916E+003	2.3089705E-001	2.2950437E-005
3	0	1.277916380955285E+003	2.3072493E-001	-7.2477276E-005
3	0	1.278416380942654E+003	2.3053551E-001	-9.1562819E-005
3	0	1.278916380930023E+003	2.3035316E-001	-9.1562819E-005
3	0	1.279416380917392E+003	2.3020707E-001	4.2035979E-005
3	0	1.279916380904760E+003	2.3006989E-001	4.2035979E-005
3	0	1.280416380892129E+003	2.2993033E-001	-7.2477276E-005
3	0	1.280916380879498E+003	2.2978814E-001	2.2950437E-005
3	0	1.281416380866867E+003	2.2964513E-001	-3.4306191E-005
3	0	1.281916380854236E+003	2.2949342E-001	-1.1064836E-004
3	0	1.282416380841605E+003	2.2932073E-001	-9.1562819E-005
3	0	1.282916380828974E+003	2.2914363E-001	3.8648941E-006
3	0	1.283416380816343E+003	2.2901163E-001	-5.3391734E-005
3	0	1.283916380803712E+003	2.2888936E-001	-7.2477276E-005
3	0	1.284416380791081E+003	2.2876295E-001	-3.4306191E-005
3	0	1.284916380778450E+003	2.2863382E-001	2.2950437E-005
3	0	1.285416380765819E+003	2.2850390E-001	2.2950437E-005
3	0	1.285916380753188E+003	2.2835670E-001	-1.2973390E-004
3	0	1.286416380740557E+003	2.2819811E-001	-7.2477276E-005
3	0	1.286916380727926E+003	2.2803150E-001	-7.2477276E-005
3	0	1.287416380715295E+003	2.2790280E-001	3.8648941E-006
3	0	1.287916380702663E+003	2.2778602E-001	2.2950437E-005
3	0	1.288416380690032E+003	2.2766548E-001	-1.2973390E-004
3	0	1.288916380677401E+003	2.2753957E-001	2.2950437E-005
3	0	1.289416380664770E+003	2.2741804E-001	-3.4306191E-005
3	0	1.289916380652139E+003	2.2727723E-001	-5.3391734E-005
3	0	1.290416380639508E+003	2.2712052E-001	-1.4881945E-004
3	0	1.290916380626877E+003	2.2696540E-001	-7.2477276E-005
3	0	1.291416380614246E+003	2.2685042E-001	4.2035979E-005
3	0	1.291916380601615E+003	2.2674689E-001	8.0207064E-005
3	0	1.292416380588984E+003	2.2663896E-001	-7.2477276E-005
3	0	1.292916380576353E+003	2.2652708E-001	-1.5220648E-005
3	0	1.293416380563722E+003	2.2641559E-001	2.2950437E-005
3	0	1.293916380551091E+003	2.2629181E-001	-2.6333271E-004
3	0	1.294416380538460E+003	2.2614966E-001	-1.5220648E-005
3	0	1.294916380525829E+003	2.2600006E-001	3.8648941E-006
3	0	1.295416380513198E+003	2.2589909E-001	-7.2477276E-005
3	0	1.295916380500566E+003	2.2579999E-001	-9.1562819E-005
3	0	1.296416380487935E+003	2.2569732E-001	-9.1562819E-005
3	0	1.296916380475304E+003	2.2559850E-001	-7.2477276E-005
3	0	1.297416380462673E+003	2.2549520E-001	-3.4306191E-005
3	0	1.297916380450042E+003	2.2538368E-001	-7.2477276E-005
3	0	1.298416380437411E+003	2.2524628E-001	-1.2973390E-004
3	0	1.298916380424780E+003	2.2510289E-001	-1.1064836E-004
3	0	1.299416380412149E+003	2.2500741E-001	-7.2477276E-005
3	0	1.299916380399518E+003	2.2492376E-001	-5.3391734E-005
3	0	1.300416380386887E+003	2.2484046E-001	-1.1064836E-004
3	0	1.300916380374256E+003	2.2474450E-001	-1.1064836E-004
3	0	1.301416380361625E+003	2.2465023E-001	-5.3391734E-005
3	0	1.301916380348994E+003	2.2453900E-001	-1.2973390E-004
3	0	1.302416380336363E+003	2.2439989E-001	4.2035979E-005
3	0	1.302916380323732E+003	2.2427075E-001	-1.5220648E-005
3	0	1.303416380311101E+003	2.2418043E-001	-7.2477276E-005
3	0	1.303916380298469E+003	2.2409391E-001	-1.4881945E-004
3	0	1.304416380285838E+003	2.2400762E-001	-5.3391734E-005
3	0	1.304916380273207E+003	2.2391796E-001	-3.4306191E-005
3	0	1.305416380260576E+003	2.2382730E-001	9.9292607E-005
3	0	1.305916380247945E+003	2.2372350E-001	-9.1562819E-005
3	0	1.306416380235314E+003	2.2360021E-001	9.9292607E-005
3	0	1.306916380222683E+003	2.2346920E-001	-9.1562819E-005
3	0	1.307416380210052E+003	2.2338054E-001	-9.1562819E-005
3	0	1.307916380197421E+003	2.2330223E-001	-5.3391734E-005
3	0	1.308416380184790E+003	2.2321080E-001	-1.6790499E-004
3	0	1.308916380172159E+003	2.2311966E-001	-1.5220648E-005
3	0	1.309416380159528E+003	2.2302833E-001	-1.5220648E-005
3	0	1.309916380146897E+003	2.2293031E-001	6.1121522E-005
3	0	1.310416380134266E+003	2.2280160E-001	-1.1064836E-004
3	0	1.310916380121635E+003	2.2267692E-001	3.8648941E-006
3	0	1.311416380109004E+003	2.2259478E-001	-9.1562819E-005
3	0	1.311916380096372E+003	2.2252455E-001	-3.4306191E-005
3	0	1.312416380083741E+003	2.2245243E-001	-1.1064836E-004
3	0	1.312916380071110E+003	2.2237657E-001	-5.3391734E-005
3	0	1.313416380058479E+003	2.2229621E-001	-7.2477276E-005
3	0	1.313916380045848E+003	2.2220646E-001	-3.4306191E-005
3	0	1.314416380033217E+003	2.2209445E-001	-9.1562819E-005
3	0	1.314916380020586E+003	2.2197369E-001	4.2035979E-005
3	0	1.315416380007955E+003	2.2189726E-001	3.8648941E-006
3	0	1.315916379995324E+003	2.2182909E-001	-7.2477276E-005
3	0	1.316416379982693E+003	2.2175844E-001	-5.3391734E-005
3	0	1.316916379970062E+003	2.2167890E-001	-7.2477276E-005
3	0	1.317416379957431E+003	2.2160020E-001	4.2035979E-005
3	0	1.317916379944800E+003	2.2151464E-001	-3.4306191E-005
3	0	1.318416379932169E+003	2.2140472E-001	-1.8699054E-004
3	0	1.318916379919538E+003	2.2129039E-001	-7.2477276E-005
3	0	1.319416379906907E+003	2.2122386E-001	4.2035979E-005
3	0	1.319916379894275E+003	2.2116098E-001	8.0207064E-005
3	0	1.320416379881644E+003	2.2109313E-001	-9.1562819E-005
3	0	1.320916379869013E+003	2.2102886E-001	-1.4881945E-004
3	0	1.321416379856382E+003	2.2095856E-001	-7.2477276E-005
3	0	1.321916379843751E+003	2.2087799E-001	-1.4881945E-004
3	0	1.321950379842892E+003	2.2082570E-001	-5.3391734E-005