EC-Lab ASCII FILE
Nb header lines : 48                          

Open Circuit Voltage

Run on channel : 1 (SN 81504)
User : 
CE vs. WE compliance from -10 V to 10 V
Electrode connection : standard
Potential control : Ewe
Ewe ctrl range : min = -2.50 V, max = 2.50 V
Safety Limits :
	Do not start on E overload
Acquisition started on : 05/10/2026 05:54:37.151
Loaded Setting File :  C:\PEM-WE_measurements\2026\372_IV_IV IrOx, 5 min Pt, 30 min C, etched cathode\new station\Loopeis new\1,46 V different time gaps closed cell\Loopeis 1,46V_120s_2_PEIS from 65kHz to 10kHz.mps
Saved on :
	File : L_22_Loopeis 1,46V_120s_2_PEIS from 65kHz to 10kHz_08_OCV_C01.mpr
	Directory : C:\PEM-WE_measurements\2026\372_IV_IV IrOx, 5 min Pt, 30 min C, etched cathode\new station\Loopeis new\1,46 V different time gaps closed cell\
	Host : 192.168.0.2
Device : SP-150e (SN .005491)
Address : 192.168.0.91
EC-LAB for windows v11.71 (software)
Internet server v28.00 (firmware)
Command interpretor v14.01 (firmware)
Electrode material : 
Initial state : 
Electrolyte : 
Comments : 
Current amplifier : SP-150eB-20A
Electrode surface area : 0.001 cm²
Characteristic mass : 0.001 g
Equivalent Weight : 0.000 g/eq.
Density : 0.000 g/cm3
Volume (V) : 0.001 cm³
Record Analogic IN 1
Text export
   Mode : Standard
   Time format : Elapsed
Cycle Definition : Charge/Discharge alternance
tR (h:m:s)          0:02:0.0000         
dER/dt (mV/h)       1.0                 
record              <Ewe>               
dER (mV)            10.00               
dtR (s)             0.5000              
E range min (V)     -2.500              
E range max (V)     2.500               

mode	error	time/s	<Ewe/V>	Analog IN 1/V	
3	0	5.415961929485638E+002	1.1237746E+000	-5.3391734E-005
3	0	5.420961929359328E+002	1.2596016E+000	-7.2477276E-005
3	0	5.425961929233017E+002	1.2584634E+000	-5.3391734E-005
3	0	5.430961929106707E+002	1.2524741E+000	3.8648941E-006
3	0	5.435961928980396E+002	1.2395815E+000	-1.8699054E-004
3	0	5.440961928854085E+002	1.2168355E+000	4.2035979E-005
3	0	5.445961928727775E+002	1.1795213E+000	3.8648941E-006
3	0	5.450961928601464E+002	1.1153513E+000	3.8648941E-006
3	0	5.455961928475153E+002	9.6198606E-001	-3.4306191E-005
3	0	5.460961928348843E+002	6.2241590E-001	-1.4881945E-004
3	0	5.465961928222532E+002	4.6380690E-001	-5.3391734E-005
3	0	5.470961928096222E+002	4.0907788E-001	-9.1562819E-005
3	0	5.475961927969911E+002	3.9243194E-001	2.2950437E-005
3	0	5.480961927843600E+002	3.8621113E-001	-5.3391734E-005
3	0	5.485961927717290E+002	3.8320017E-001	-5.3391734E-005
3	0	5.490961927590979E+002	3.8132739E-001	3.8648941E-006
3	0	5.495961927464668E+002	3.7931892E-001	-7.2477276E-005
3	0	5.500961927338358E+002	3.7761644E-001	-1.1064836E-004
3	0	5.505961927212047E+002	3.7614509E-001	-1.1064836E-004
3	0	5.510961927085737E+002	3.7491694E-001	2.2950437E-005
3	0	5.515961926959426E+002	3.7369773E-001	9.9292607E-005
3	0	5.520961926833115E+002	3.7274981E-001	-9.1562819E-005
3	0	5.525961926706805E+002	3.7258059E-001	-1.1064836E-004
3	0	5.530961926580494E+002	3.7300286E-001	-9.1562819E-005
3	0	5.535961926454183E+002	3.7326092E-001	4.2035979E-005
3	0	5.540961926327873E+002	3.7370428E-001	2.2950437E-005
3	0	5.545961926201562E+002	3.7413803E-001	-5.3391734E-005
3	0	5.550961926075252E+002	3.7460095E-001	4.2035979E-005
3	0	5.555961925948941E+002	3.7477347E-001	3.8648941E-006
3	0	5.560961925822630E+002	3.7481374E-001	-5.3391734E-005
3	0	5.565961925696320E+002	3.7533468E-001	-7.2477276E-005
3	0	5.570961925570009E+002	3.7619144E-001	-1.5220648E-005
3	0	5.575961925443698E+002	3.7671578E-001	-1.8699054E-004
3	0	5.580961925317388E+002	3.7719786E-001	-5.3391734E-005
3	0	5.585961925191077E+002	3.7763432E-001	9.9292607E-005
3	0	5.590961925064767E+002	3.7797147E-001	-3.4306191E-005
3	0	5.595961924938456E+002	3.7807408E-001	-7.2477276E-005
3	0	5.600961924812145E+002	3.7798771E-001	-9.1562819E-005
3	0	5.605961924685835E+002	3.7833345E-001	-9.1562819E-005
3	0	5.610961924559524E+002	3.7899664E-001	-9.1562819E-005
3	0	5.615961924433213E+002	3.7931183E-001	-1.1064836E-004
3	0	5.620961924306903E+002	3.7962890E-001	-7.2477276E-005
3	0	5.625961924180592E+002	3.7986416E-001	2.2950437E-005
3	0	5.630961924054282E+002	3.7994552E-001	-1.2973390E-004
3	0	5.635961923927971E+002	3.7979841E-001	-3.4306191E-005
3	0	5.640961923801660E+002	3.7954822E-001	-1.6790499E-004
3	0	5.645961923675350E+002	3.7970638E-001	-3.4306191E-005
3	0	5.650961923549039E+002	3.8020959E-001	4.2035979E-005
3	0	5.655961923422728E+002	3.8035968E-001	-9.1562819E-005
3	0	5.660961923296418E+002	3.8047394E-001	-1.1064836E-004
3	0	5.665961923170107E+002	3.8047379E-001	-1.1064836E-004
3	0	5.670961923043797E+002	3.8037628E-001	-9.1562819E-005
3	0	5.675961922917486E+002	3.8001347E-001	-9.1562819E-005
3	0	5.680961922791175E+002	3.7948632E-001	-7.2477276E-005
3	0	5.685961922664865E+002	3.7945652E-001	-7.2477276E-005
3	0	5.690961922538554E+002	3.7972438E-001	-1.5220648E-005
3	0	5.695961922412243E+002	3.7970901E-001	-1.4881945E-004
3	0	5.700961922285933E+002	3.7970072E-001	-1.2973390E-004
3	0	5.705961922159622E+002	3.7959439E-001	-1.5220648E-005
3	0	5.710961922033312E+002	3.7947562E-001	-1.1064836E-004
3	0	5.715961921907001E+002	3.7914217E-001	4.2035979E-005
3	0	5.720961921780690E+002	3.7882328E-001	-5.3391734E-005
3	0	5.725961921654380E+002	3.7905940E-001	-1.8699054E-004
3	0	5.730961921528069E+002	3.7972391E-001	-9.1562819E-005
3	0	5.735961921401758E+002	3.8022023E-001	2.2950437E-005
3	0	5.740961921275448E+002	3.8084972E-001	-7.2477276E-005
3	0	5.745961921149137E+002	3.8144988E-001	6.1121522E-005
3	0	5.750961921022827E+002	3.8204437E-001	2.2950437E-005
3	0	5.755961920896516E+002	3.8240767E-001	3.8648941E-006
3	0	5.760961920770205E+002	3.8259619E-001	-1.4881945E-004
3	0	5.765961920643895E+002	3.8315031E-001	-9.1562819E-005
3	0	5.770961920517584E+002	3.8399896E-001	-7.2477276E-005
3	0	5.775961920391273E+002	3.8450459E-001	-7.2477276E-005
3	0	5.780961920264963E+002	3.8496560E-001	-9.1562819E-005
3	0	5.785961920138652E+002	3.8528439E-001	-1.5220648E-005
3	0	5.790961920012342E+002	3.8547534E-001	-1.2973390E-004
3	0	5.795961919886031E+002	3.8512570E-001	-7.2477276E-005
3	0	5.800961919759720E+002	3.8478383E-001	2.2950437E-005
3	0	5.805961919633410E+002	3.8494015E-001	3.8648941E-006
3	0	5.810961919507099E+002	3.8528970E-001	6.1121522E-005
3	0	5.815961919380788E+002	3.8537788E-001	-7.2477276E-005
3	0	5.820961919254478E+002	3.8545653E-001	-5.3391734E-005
3	0	5.825961919128167E+002	3.8536522E-001	3.8648941E-006
3	0	5.830961919001857E+002	3.8518739E-001	-1.1064836E-004
3	0	5.835961918875546E+002	3.8480479E-001	-1.4881945E-004
3	0	5.840961918749235E+002	3.8419533E-001	-1.6790499E-004
3	0	5.845961918622925E+002	3.8400990E-001	6.1121522E-005
3	0	5.850961918496614E+002	3.8404930E-001	-1.2973390E-004
3	0	5.855961918370303E+002	3.8383576E-001	2.2950437E-005
3	0	5.860961918243993E+002	3.8360766E-001	-1.5220648E-005
3	0	5.865961918117682E+002	3.8322711E-001	-1.5220648E-005
3	0	5.870961917991372E+002	3.8279319E-001	-1.1064836E-004
3	0	5.875961917865061E+002	3.8215321E-001	6.1121522E-005
3	0	5.880961917738750E+002	3.8140178E-001	9.9292607E-005
3	0	5.885961917612440E+002	3.8105211E-001	2.2950437E-005
3	0	5.890961917486129E+002	3.8095915E-001	-1.4881945E-004
3	0	5.895961917359818E+002	3.8062409E-001	-1.2973390E-004
3	0	5.900961917233508E+002	3.8024476E-001	4.2035979E-005
3	0	5.905961917107197E+002	3.7971956E-001	-9.1562819E-005
3	0	5.910961916980887E+002	3.7918136E-001	-2.2516162E-004
3	0	5.915961916854576E+002	3.7855285E-001	-1.1064836E-004
3	0	5.920961916728265E+002	3.7791464E-001	-1.1064836E-004
3	0	5.925961916601955E+002	3.7785289E-001	-9.1562819E-005
3	0	5.930961916475644E+002	3.7810877E-001	-5.3391734E-005
3	0	5.935961916349333E+002	3.7827641E-001	-7.2477276E-005
3	0	5.940961916223023E+002	3.7854582E-001	-1.8699054E-004
3	0	5.945961916096712E+002	3.7876266E-001	-7.2477276E-005
3	0	5.950961915970402E+002	3.7895060E-001	-7.2477276E-005
3	0	5.955961915844091E+002	3.7896425E-001	-3.4306191E-005
3	0	5.960961915717780E+002	3.7877724E-001	-1.5220648E-005
3	0	5.965961915591470E+002	3.7893644E-001	-7.2477276E-005
3	0	5.970961915465159E+002	3.7930965E-001	-1.1064836E-004
3	0	5.975961915338848E+002	3.7943098E-001	-5.3391734E-005
3	0	5.980961915212538E+002	3.7952217E-001	-5.3391734E-005
3	0	5.985961915086227E+002	3.7945995E-001	-1.4881945E-004
3	0	5.990961914959917E+002	3.7926412E-001	2.2950437E-005
3	0	5.995961914833606E+002	3.7890887E-001	-1.1064836E-004
3	0	6.000961914707295E+002	3.7841684E-001	-1.1064836E-004
3	0	6.005961914580985E+002	3.7824786E-001	-7.2477276E-005
3	0	6.010961914454674E+002	3.7830120E-001	-7.2477276E-005
3	0	6.015961914328363E+002	3.7812164E-001	-9.1562819E-005
3	0	6.020961914202053E+002	3.7797269E-001	-1.4881945E-004
3	0	6.025961914075742E+002	3.7768263E-001	2.2950437E-005
3	0	6.030961913949432E+002	3.7731156E-001	1.3746369E-004
3	0	6.035961913823121E+002	3.7679607E-001	-7.2477276E-005
3	0	6.040961913696810E+002	3.7607911E-001	-1.6790499E-004
3	0	6.045961913570500E+002	3.7575573E-001	-7.2477276E-005
3	0	6.050961913444189E+002	3.7565708E-001	-1.1064836E-004
3	0	6.055961913317879E+002	3.7533844E-001	3.8648941E-006
3	0	6.060961913191568E+002	3.7501690E-001	-5.3391734E-005
3	0	6.065961913065257E+002	3.7460163E-001	-9.1562819E-005
3	0	6.070961912938947E+002	3.7414828E-001	3.8648941E-006
3	0	6.075961912812636E+002	3.7353224E-001	-1.8699054E-004
3	0	6.080961912686325E+002	3.7277067E-001	-1.6790499E-004
3	0	6.085961912560015E+002	3.7236768E-001	-5.3391734E-005
3	0	6.090961912433704E+002	3.7220380E-001	-9.1562819E-005
3	0	6.095961912307394E+002	3.7187770E-001	-3.4306191E-005
3	0	6.100961912181083E+002	3.7153077E-001	3.8648941E-006
3	0	6.105961912054772E+002	3.7112024E-001	-1.6790499E-004
3	0	6.110961911928462E+002	3.7068212E-001	2.2950437E-005
3	0	6.115961911802151E+002	3.7009647E-001	3.8648941E-006
3	0	6.120961911675840E+002	3.6951032E-001	-1.1064836E-004
3	0	6.125961911549530E+002	3.6933398E-001	-1.1064836E-004
3	0	6.130961911423219E+002	3.6949873E-001	-1.2973390E-004
3	0	6.135961911296909E+002	3.6958900E-001	-2.0607607E-004
3	0	6.140961911170598E+002	3.6974064E-001	-1.4881945E-004
3	0	6.145961911044287E+002	3.6989596E-001	-1.5220648E-005
3	0	6.150961910917977E+002	3.7000278E-001	-1.1064836E-004
3	0	6.155961910791666E+002	3.6998433E-001	-1.2973390E-004
3	0	6.160961910665355E+002	3.6983901E-001	-7.2477276E-005
3	0	6.165961910539045E+002	3.6997822E-001	-3.4306191E-005
3	0	6.170961910412734E+002	3.7027720E-001	9.9292607E-005
3	0	6.175961910286424E+002	3.7034494E-001	-3.4306191E-005
3	0	6.180961910160113E+002	3.7038082E-001	-1.5220648E-005
3	0	6.185961910033802E+002	3.7030694E-001	-1.4881945E-004
3	0	6.190961909907492E+002	3.7015548E-001	-1.2973390E-004
3	0	6.195961909781181E+002	3.6984167E-001	-7.2477276E-005
3	0	6.200961909654870E+002	3.6936605E-001	-2.0607607E-004
3	0	6.205961909528560E+002	3.6919510E-001	-1.4881945E-004
3	0	6.210961909402249E+002	3.6921725E-001	-1.6790499E-004
3	0	6.215961909275939E+002	3.6903632E-001	-1.4881945E-004
3	0	6.220961909149628E+002	3.6885926E-001	-3.4306191E-005
3	0	6.225961909023317E+002	3.6859474E-001	-7.2477276E-005
3	0	6.230961908897007E+002	3.6828235E-001	-1.6790499E-004
3	0	6.235961908770696E+002	3.6784464E-001	-9.1562819E-005
3	0	6.240961908644385E+002	3.6726743E-001	-3.4306191E-005
3	0	6.245961908518075E+002	3.6695153E-001	-7.2477276E-005
3	0	6.250961908391764E+002	3.6685109E-001	-9.1562819E-005
3	0	6.255961908265454E+002	3.6660174E-001	-1.2973390E-004
3	0	6.260961908139143E+002	3.6633933E-001	-9.1562819E-005
3	0	6.265961908012832E+002	3.6594957E-001	-9.1562819E-005
3	0	6.270961907886522E+002	3.6530855E-001	-3.4306191E-005
3	0	6.275961907760211E+002	3.6488894E-001	-3.4306191E-005
3	0	6.280961907633900E+002	3.6448449E-001	-7.2477276E-005
3	0	6.285961907507590E+002	3.6422631E-001	-3.4306191E-005
3	0	6.290961907381279E+002	3.6413881E-001	-7.2477276E-005
3	0	6.295961907254969E+002	3.6383662E-001	-1.1064836E-004
3	0	6.300961907128658E+002	3.6347225E-001	3.8648941E-006
3	0	6.305961907002347E+002	3.6311412E-001	-1.2973390E-004
3	0	6.310961906876037E+002	3.6268243E-001	-1.4881945E-004
3	0	6.315961906749726E+002	3.6208946E-001	-3.4306191E-005
3	0	6.320961906623415E+002	3.6148700E-001	-1.5220648E-005
3	0	6.325961906497105E+002	3.6129224E-001	-3.4306191E-005
3	0	6.330961906370794E+002	3.6145377E-001	3.8648941E-006
3	0	6.335961906244484E+002	3.6154869E-001	-1.6790499E-004
3	0	6.340961906118173E+002	3.6159095E-001	3.8648941E-006
3	0	6.345961905991862E+002	3.6167416E-001	-1.1064836E-004
3	0	6.350961905865552E+002	3.6173201E-001	3.8648941E-006
3	0	6.355961905739241E+002	3.6165991E-001	-1.4881945E-004
3	0	6.360961905612930E+002	3.6149356E-001	-1.8699054E-004
3	0	6.365961905486620E+002	3.6155805E-001	-1.5220648E-005
3	0	6.370961905360309E+002	3.6182755E-001	-1.5220648E-005
3	0	6.375961905233999E+002	3.6190748E-001	3.8648941E-006
3	0	6.380961905107688E+002	3.6184481E-001	2.2950437E-005
3	0	6.385961904981377E+002	3.6172014E-001	-1.2973390E-004
3	0	6.390961904855067E+002	3.6153656E-001	-5.3391734E-005
3	0	6.395961904728756E+002	3.6116543E-001	-3.4306191E-005
3	0	6.400961904602445E+002	3.6069310E-001	2.2950437E-005
3	0	6.405961904476135E+002	3.6053354E-001	-3.4306191E-005
3	0	6.410961904349824E+002	3.6057311E-001	-1.6790499E-004
3	0	6.415961904223514E+002	3.6047369E-001	-1.4881945E-004
3	0	6.420961904097203E+002	3.6019731E-001	-1.5220648E-005
3	0	6.425961903970892E+002	3.5990372E-001	-7.2477276E-005
3	0	6.430961903844582E+002	3.5956967E-001	-7.2477276E-005
3	0	6.435961903718271E+002	3.5910940E-001	9.9292607E-005
3	0	6.440961903591960E+002	3.5850811E-001	4.2035979E-005
3	0	6.445961903465650E+002	3.5817388E-001	-9.1562819E-005
3	0	6.450961903339339E+002	3.5811085E-001	-5.3391734E-005
3	0	6.455961903213029E+002	3.5793966E-001	-9.1562819E-005
3	0	6.460961903086718E+002	3.5771036E-001	-7.2477276E-005
3	0	6.465961902960407E+002	3.5751498E-001	6.1121522E-005
3	0	6.470961902834097E+002	3.5736030E-001	2.2950437E-005
3	0	6.475961902707786E+002	3.5712534E-001	-9.1562819E-005
3	0	6.480961902581475E+002	3.5678264E-001	3.8648941E-006
3	0	6.485961902455165E+002	3.5660329E-001	-9.1562819E-005
3	0	6.490961902328854E+002	3.5664484E-001	-9.1562819E-005
3	0	6.495961902202544E+002	3.5653061E-001	-1.1064836E-004
3	0	6.500961902076233E+002	3.5626823E-001	-1.2973390E-004
3	0	6.505961901949922E+002	3.5600510E-001	6.1121522E-005
3	0	6.510961901823612E+002	3.5563934E-001	-7.2477276E-005
3	0	6.515961901697301E+002	3.5503912E-001	3.8648941E-006
3	0	6.520961901570990E+002	3.5438046E-001	-5.3391734E-005
3	0	6.525961901444680E+002	3.5406870E-001	3.8648941E-006
3	0	6.530961901318369E+002	3.5408905E-001	8.0207064E-005
3	0	6.535961901192059E+002	3.5410142E-001	-1.1064836E-004
3	0	6.540961901065748E+002	3.5410634E-001	6.1121522E-005
3	0	6.545961900939437E+002	3.5417843E-001	6.1121522E-005
3	0	6.550961900813127E+002	3.5423136E-001	-7.2477276E-005
3	0	6.555961900686816E+002	3.5419357E-001	-1.1064836E-004
3	0	6.560961900560505E+002	3.5403404E-001	-9.1562819E-005
3	0	6.565961900434195E+002	3.5406488E-001	-1.1064836E-004
3	0	6.570961900307884E+002	3.5429963E-001	4.2035979E-005
3	0	6.575961900181574E+002	3.5439289E-001	-1.8699054E-004
3	0	6.580961900055263E+002	3.5433358E-001	-1.5220648E-005
3	0	6.585961899928952E+002	3.5420156E-001	3.8648941E-006
3	0	6.590961899802642E+002	3.5402739E-001	8.0207064E-005
3	0	6.595961899676331E+002	3.5373145E-001	4.2035979E-005
3	0	6.600961899550020E+002	3.5332003E-001	-7.2477276E-005
3	0	6.605961899423710E+002	3.5310158E-001	-3.4306191E-005
3	0	6.610961899297399E+002	3.5313797E-001	-9.1562819E-005
3	0	6.611307899288659E+002	3.5313088E-001	-9.1562819E-005