EC-Lab ASCII FILE
Nb header lines : 55                          

Open Circuit Voltage

Run on channel : 1 (SN 81504)
User : 
CE vs. WE compliance from -10 V to 10 V
Electrode connection : standard
Potential control : Ewe
Ewe ctrl range : min = -2.50 V, max = 2.50 V
Safety Limits :
	Do not start on E overload
Acquisition started on : 05/09/2026 23:59:42.806
Loaded Setting File :  C:\PEM-WE_measurements\2026\372_IV_IV IrOx, 5 min Pt, 30 min C, etched cathode\new station\Loopeis new\1,46 V different time gaps closed cell\Loopeis 1,46V_30s_4_PEIS from 650Hz to 100Hz.mps
Saved on :
	File : L_04_Loopeis 1,46V_30s_4_PEIS from 650Hz to 100Hz_06_OCV_C01.mpr
	Directory : C:\PEM-WE_measurements\2026\372_IV_IV IrOx, 5 min Pt, 30 min C, etched cathode\new station\Loopeis new\1,46 V different time gaps closed cell\
	Host : 192.168.0.2
Device : SP-150e (SN .005491)
Address : 192.168.0.91
EC-LAB for windows v11.71 (software)
Internet server v28.00 (firmware)
Command interpretor v14.01 (firmware)
Electrode material : 
Initial state : 
Electrolyte : 
Comments : 
Current amplifier : SP-150eB-20A
Electrode surface area : 0.001 cm²
Characteristic mass : 0.001 g
Equivalent Weight : 0.000 g/eq.
Density : 0.000 g/cm3
Volume (V) : 0.001 cm³
Record Analogic IN 1
Text export
   Mode : Standard
   Time format : Elapsed
Cycle Definition : Charge/Discharge alternance
External device configuration :
   device type : Temperature Probe
   device name : Other
   Analog IN 1 : 
      unit : T/Â°C
      max : 100.000 at 2.000 V
      min : 0.000 at 1.460 V
tR (h:m:s)          0:00:30.0000        
dER/dt (mV/h)       1.0                 
record              <Ewe>               
dER (mV)            10.00               
dtR (s)             0.5000              
E range min (V)     -2.500              
E range max (V)     2.500               

mode	error	time/s	<Ewe/V>	Analog IN 1/V	
3	0	1.960045983592863E+002	1.4204630E+000	-2.7036972E+002
3	0	1.965045983466553E+002	1.4125526E+000	-2.7038742E+002
3	0	1.970045983340242E+002	1.4070494E+000	-2.7035205E+002
3	0	1.975045983213931E+002	1.4030743E+000	-2.7035559E+002
3	0	1.980045983087621E+002	1.3999480E+000	-2.7039093E+002
3	0	1.985045982961310E+002	1.3973845E+000	-2.7037677E+002
3	0	1.990045982834999E+002	1.3951924E+000	-2.7038385E+002
3	0	1.995045982708689E+002	1.3932825E+000	-2.7036267E+002
3	0	2.000045982582378E+002	1.3915118E+000	-2.7038385E+002
3	0	2.005045982456068E+002	1.3898789E+000	-2.7038031E+002
3	0	2.010045982329757E+002	1.3883756E+000	-2.7041919E+002
3	0	2.015045982203446E+002	1.3870484E+000	-2.7038742E+002
3	0	2.020045982077136E+002	1.3858246E+000	-2.7037677E+002
3	0	2.025045981950825E+002	1.3846987E+000	-2.7038385E+002
3	0	2.030045981824514E+002	1.3836514E+000	-2.7037677E+002
3	0	2.035045981698204E+002	1.3826648E+000	-2.7039447E+002
3	0	2.040045981571893E+002	1.3817060E+000	-2.7037326E+002
3	0	2.045045981445583E+002	1.3807325E+000	-2.7037326E+002
3	0	2.050045981319272E+002	1.3797709E+000	-2.7038385E+002
3	0	2.055045981192961E+002	1.3789264E+000	-2.7036267E+002
3	0	2.060045981066651E+002	1.3781050E+000	-2.7037677E+002
3	0	2.065045980940340E+002	1.3773264E+000	-2.7038742E+002
3	0	2.070045980814029E+002	1.3765681E+000	-2.7036972E+002
3	0	2.075045980687719E+002	1.3758413E+000	-2.7039093E+002
3	0	2.080045980561408E+002	1.3751048E+000	-2.7038385E+002
3	0	2.085045980435098E+002	1.3743314E+000	-2.7036618E+002
3	0	2.090045980308787E+002	1.3735423E+000	-2.7037677E+002
3	0	2.095045980182476E+002	1.3728565E+000	-2.7039093E+002
3	0	2.100045980056166E+002	1.3721867E+000	-2.7036267E+002
3	0	2.105045979929855E+002	1.3715409E+000	-2.7037677E+002
3	0	2.110045979803544E+002	1.3709141E+000	-2.7036267E+002
3	0	2.115045979677234E+002	1.3703054E+000	-2.7038385E+002
3	0	2.120045979550923E+002	1.3696936E+000	-2.7036618E+002
3	0	2.125045979424613E+002	1.3690119E+000	-2.7035913E+002
3	0	2.130045979298302E+002	1.3683314E+000	-2.7038742E+002
3	0	2.135045979171991E+002	1.3677292E+000	-2.7037326E+002
3	0	2.140045979045681E+002	1.3671359E+000	-2.7039447E+002
3	0	2.145045978919370E+002	1.3665558E+000	-2.7036267E+002
3	0	2.150045978793059E+002	1.3659875E+000	-2.7039447E+002
3	0	2.155045978666749E+002	1.3654307E+000	-2.7036618E+002
3	0	2.160045978540438E+002	1.3648574E+000	-2.7038385E+002
3	0	2.165045978414128E+002	1.3642350E+000	-2.7038031E+002
3	0	2.170045978287817E+002	1.3635792E+000	-2.7038031E+002
3	0	2.175045978161506E+002	1.3630174E+000	-2.7037326E+002
3	0	2.180045978035196E+002	1.3624474E+000	-2.7038031E+002
3	0	2.185045977908885E+002	1.3618994E+000	-2.7038031E+002
3	0	2.190045977782574E+002	1.3613511E+000	-2.7036972E+002
3	0	2.195045977656264E+002	1.3608148E+000	-2.7037677E+002
3	0	2.200045977529953E+002	1.3602509E+000	-2.7039093E+002
3	0	2.205045977403643E+002	1.3596309E+000	-2.7039447E+002
3	0	2.210045977277332E+002	1.3589848E+000	-2.7038031E+002
3	0	2.215045977151021E+002	1.3584163E+000	-2.7038385E+002
3	0	2.220045977024711E+002	1.3578569E+000	-2.7035205E+002
3	0	2.225045976898400E+002	1.3573046E+000	-2.7041214E+002
3	0	2.230045976772089E+002	1.3567472E+000	-2.7037677E+002
3	0	2.235045976645779E+002	1.3561277E+000	-2.7038031E+002
3	0	2.240045976519468E+002	1.3555202E+000	-2.7036618E+002
3	0	2.245045976393158E+002	1.3549168E+000	-2.7038031E+002
3	0	2.250045976266847E+002	1.3542818E+000	-2.7039801E+002
3	0	2.255045976140536E+002	1.3537235E+000	-2.7036267E+002
3	0	2.255049976140435E+002	1.3534693E+000	-2.7039801E+002