EC-Lab ASCII FILE
Nb header lines : 55                          

Open Circuit Voltage

Run on channel : 1 (SN 81504)
User : 
CE vs. WE compliance from -10 V to 10 V
Electrode connection : standard
Potential control : Ewe
Ewe ctrl range : min = -2.50 V, max = 2.50 V
Safety Limits :
	Do not start on E overload
Acquisition started on : 05/07/2026 17:34:11.611
Loaded Setting File :  C:\PEM-WE_measurements\2026\372_IV_IV IrOx, 5 min Pt, 30 min C, etched cathode\new station\Loopeis new\1,46 V different time gaps open cell\Loopeis 1,46V_60s_4_PEIS from 650Hz to 100Hz.mps
Saved on :
	File : L_14_Loopeis 1,46V_60s_4_PEIS from 650Hz to 100Hz_14_OCV_C01.mpr
	Directory : C:\PEM-WE_measurements\2026\372_IV_IV IrOx, 5 min Pt, 30 min C, etched cathode\new station\Loopeis new\1,46 V different time gaps open cell\
	Host : 192.168.0.2
Device : SP-150e (SN .005491)
Address : 192.168.0.91
EC-LAB for windows v11.71 (software)
Internet server v28.00 (firmware)
Command interpretor v14.01 (firmware)
Electrode material : 
Initial state : 
Electrolyte : 
Comments : 
Current amplifier : SP-150eB-20A
Electrode surface area : 0.001 cm²
Characteristic mass : 0.001 g
Equivalent Weight : 0.000 g/eq.
Density : 0.000 g/cm3
Volume (V) : 0.001 cm³
Record Analogic IN 1
Text export
   Mode : Standard
   Time format : Elapsed
Cycle Definition : Charge/Discharge alternance
External device configuration :
   device type : Temperature Probe
   device name : Other
   Analog IN 1 : 
      unit : T/Â°C
      max : 100.000 at 2.000 V
      min : 0.000 at 1.460 V
tR (h:m:s)          0:01:0.0000         
dER/dt (mV/h)       1.0                 
record              <Ewe>               
dER (mV)            10.00               
dtR (s)             0.5000              
E range min (V)     -2.500              
E range max (V)     2.500               

mode	error	time/s	<Ewe/V>	Analog IN 1/V	
3	0	6.776441928594431E+002	1.2759002E+000	-2.7039447E+002
3	0	6.781441928468121E+002	1.2692716E+000	-2.7036972E+002
3	0	6.786441928341810E+002	1.2320703E+000	-2.7037326E+002
3	0	6.791441928215500E+002	1.1577178E+000	-2.7039447E+002
3	0	6.796441928089189E+002	9.3872494E-001	-2.7039801E+002
3	0	6.801441927962878E+002	4.9028820E-001	-2.7036618E+002
3	0	6.806441927836568E+002	3.5302266E-001	-2.7037326E+002
3	0	6.811441927710257E+002	3.3397090E-001	-2.7039093E+002
3	0	6.816441927583946E+002	3.2522488E-001	-2.7037326E+002
3	0	6.821441927457636E+002	3.1820485E-001	-2.7036972E+002
3	0	6.826441927331325E+002	3.1283364E-001	-2.7037326E+002
3	0	6.831441927205015E+002	3.0871078E-001	-2.7036618E+002
3	0	6.836441927078704E+002	3.0546564E-001	-2.7039447E+002
3	0	6.841441926952393E+002	3.0284166E-001	-2.7040155E+002
3	0	6.846441926826083E+002	3.0069816E-001	-2.7034851E+002
3	0	6.851441926699772E+002	2.9891402E-001	-2.7036618E+002
3	0	6.856441926573461E+002	2.9739478E-001	-2.7037326E+002
3	0	6.861441926447151E+002	2.9605171E-001	-2.7036618E+002
3	0	6.866441926320840E+002	2.9486090E-001	-2.7040155E+002
3	0	6.871441926194530E+002	2.9378349E-001	-2.7034143E+002
3	0	6.876441926068219E+002	2.9278359E-001	-2.7037677E+002
3	0	6.881441925941908E+002	2.9182968E-001	-2.7037326E+002
3	0	6.886441925815598E+002	2.9095370E-001	-2.7040155E+002
3	0	6.891441925689287E+002	2.9015243E-001	-2.7037677E+002
3	0	6.896441925562976E+002	2.8939262E-001	-2.7037326E+002
3	0	6.901441925436666E+002	2.8867483E-001	-2.7039447E+002
3	0	6.906441925310355E+002	2.8797394E-001	-2.7040860E+002
3	0	6.911441925184045E+002	2.8729406E-001	-2.7035913E+002
3	0	6.916441925057734E+002	2.8661299E-001	-2.7037326E+002
3	0	6.921441924931423E+002	2.8592700E-001	-2.7035913E+002
3	0	6.926441924805113E+002	2.8527394E-001	-2.7036618E+002
3	0	6.931441924678802E+002	2.8466433E-001	-2.7035559E+002
3	0	6.936441924552491E+002	2.8407294E-001	-2.7039447E+002
3	0	6.941441924426181E+002	2.8347799E-001	-2.7037677E+002
3	0	6.946441924299870E+002	2.8289378E-001	-2.7037677E+002
3	0	6.951441924173560E+002	2.8231296E-001	-2.7039093E+002
3	0	6.956441924047249E+002	2.8172693E-001	-2.7039801E+002
3	0	6.961441923920938E+002	2.8111941E-001	-2.7038742E+002
3	0	6.966441923794628E+002	2.8054971E-001	-2.7038031E+002
3	0	6.971441923668317E+002	2.8000578E-001	-2.7038742E+002
3	0	6.976441923542006E+002	2.7947059E-001	-2.7037677E+002
3	0	6.981441923415696E+002	2.7894127E-001	-2.7035559E+002
3	0	6.986441923289385E+002	2.7840760E-001	-2.7038031E+002
3	0	6.991441923163075E+002	2.7788183E-001	-2.7036618E+002
3	0	6.996441923036764E+002	2.7733579E-001	-2.7038385E+002
3	0	7.001441922910453E+002	2.7678466E-001	-2.7038031E+002
3	0	7.006441922784143E+002	2.7626410E-001	-2.7037677E+002
3	0	7.011441922657832E+002	2.7577147E-001	-2.7036972E+002
3	0	7.016441922531521E+002	2.7527523E-001	-2.7038742E+002
3	0	7.021441922405211E+002	2.7478322E-001	-2.7039093E+002
3	0	7.026441922278900E+002	2.7430740E-001	-2.7034497E+002
3	0	7.031441922152590E+002	2.7382085E-001	-2.7036972E+002
3	0	7.036441922026279E+002	2.7332056E-001	-2.7039801E+002
3	0	7.041441921899968E+002	2.7280995E-001	-2.7038385E+002
3	0	7.046441921773658E+002	2.7232519E-001	-2.7039801E+002
3	0	7.051441921647347E+002	2.7187675E-001	-2.7038385E+002
3	0	7.056441921521036E+002	2.7141351E-001	-2.7037677E+002
3	0	7.061441921394726E+002	2.7095324E-001	-2.7037326E+002
3	0	7.066441921268415E+002	2.7050421E-001	-2.7040155E+002
3	0	7.071441921142105E+002	2.7004567E-001	-2.7037326E+002
3	0	7.076441921015794E+002	2.6958507E-001	-2.7037326E+002
3	0	7.081441920889483E+002	2.6911083E-001	-2.7036618E+002
3	0	7.086441920763173E+002	2.6865289E-001	-2.7037677E+002
3	0	7.091441920636862E+002	2.6822641E-001	-2.7038385E+002
3	0	7.096441920510551E+002	2.6779890E-001	-2.7038385E+002
3	0	7.101441920384241E+002	2.6736912E-001	-2.7038385E+002
3	0	7.106441920257930E+002	2.6695353E-001	-2.7038742E+002
3	0	7.111441920131620E+002	2.6652578E-001	-2.7036972E+002
3	0	7.116441920005309E+002	2.6608923E-001	-2.7036618E+002
3	0	7.121441919878998E+002	2.6564193E-001	-2.7036618E+002
3	0	7.126441919752688E+002	2.6521525E-001	-2.7038742E+002
3	0	7.131441919626377E+002	2.6482081E-001	-2.7036972E+002
3	0	7.136441919500066E+002	2.6443371E-001	-2.7037326E+002
3	0	7.141441919373756E+002	2.6403955E-001	-2.7039801E+002
3	0	7.146441919247445E+002	2.6365101E-001	-2.7036267E+002
3	0	7.151441919121135E+002	2.6325524E-001	-2.7036267E+002
3	0	7.156441918994824E+002	2.6284173E-001	-2.7038031E+002
3	0	7.161441918868513E+002	2.6242727E-001	-2.7039093E+002
3	0	7.166441918742203E+002	2.6203248E-001	-2.7036972E+002
3	0	7.171441918615892E+002	2.6166898E-001	-2.7038742E+002
3	0	7.176441918489581E+002	2.6130170E-001	-2.7039093E+002
3	0	7.181441918363271E+002	2.6093888E-001	-2.7039093E+002
3	0	7.186441918236960E+002	2.6058596E-001	-2.7040155E+002
3	0	7.191441918110650E+002	2.6022378E-001	-2.7038742E+002
3	0	7.196441917984339E+002	2.5985196E-001	-2.7038385E+002
3	0	7.201441917858028E+002	2.5946927E-001	-2.7039447E+002
3	0	7.206441917731718E+002	2.5911596E-001	-2.7036618E+002
3	0	7.211441917605407E+002	2.5879025E-001	-2.7038385E+002
3	0	7.216441917479096E+002	2.5845233E-001	-2.7042981E+002
3	0	7.221441917352786E+002	2.5811651E-001	-2.7034497E+002
3	0	7.226441917226475E+002	2.5778314E-001	-2.7035913E+002
3	0	7.231441917100165E+002	2.5745326E-001	-2.7038385E+002
3	0	7.236441916973854E+002	2.5710830E-001	-2.7037677E+002
3	0	7.241441916847543E+002	2.5674939E-001	-2.7038742E+002
3	0	7.246441916721233E+002	2.5642231E-001	-2.7035913E+002
3	0	7.251441916594922E+002	2.5612316E-001	-2.7035913E+002
3	0	7.256441916468611E+002	2.5580847E-001	-2.7037326E+002
3	0	7.261441916342301E+002	2.5550458E-001	-2.7039447E+002
3	0	7.266441916215990E+002	2.5519675E-001	-2.7039093E+002
3	0	7.271441916089680E+002	2.5489438E-001	-2.7035559E+002
3	0	7.276441915963369E+002	2.5458053E-001	-2.7039447E+002
3	0	7.281441915837058E+002	2.5425169E-001	-2.7038031E+002
3	0	7.286441915710748E+002	2.5394946E-001	-2.7038385E+002
3	0	7.291441915584437E+002	2.5367782E-001	-2.7037326E+002
3	0	7.296441915458126E+002	2.5339341E-001	-2.7038385E+002
3	0	7.301441915331816E+002	2.5311235E-001	-2.7039447E+002
3	0	7.306441915205505E+002	2.5283816E-001	-2.7037677E+002
3	0	7.311441915079195E+002	2.5255218E-001	-2.7035205E+002
3	0	7.316441914952884E+002	2.5226459E-001	-2.7040155E+002
3	0	7.321441914826573E+002	2.5195050E-001	-2.7037677E+002
3	0	7.326441914700263E+002	2.5167602E-001	-2.7040506E+002
3	0	7.331441914573952E+002	2.5142074E-001	-2.7037326E+002
3	0	7.336441914447641E+002	2.5116086E-001	-2.7036618E+002
3	0	7.341441914321331E+002	2.5090164E-001	-2.7037326E+002
3	0	7.346441914195020E+002	2.5064713E-001	-2.7036972E+002
3	0	7.351441914068710E+002	2.5039798E-001	-2.7036972E+002
3	0	7.356441913942399E+002	2.5012293E-001	-2.7039093E+002
3	0	7.361441913816088E+002	2.4984381E-001	-2.7040506E+002
3	0	7.366441913689778E+002	2.4959227E-001	-2.7038742E+002
3	0	7.371441913563467E+002	2.4936071E-001	-2.7037677E+002
3	0	7.371445913563366E+002	2.4921440E-001	-2.7039093E+002