EC-Lab ASCII FILE
Nb header lines : 55                          

Open Circuit Voltage

Run on channel : 1 (SN 81504)
User : 
CE vs. WE compliance from -10 V to 10 V
Electrode connection : standard
Potential control : Ewe
Ewe ctrl range : min = -2.50 V, max = 2.50 V
Safety Limits :
	Do not start on E overload
Acquisition started on : 05/10/2026 00:56:49.563
Loaded Setting File :  C:\PEM-WE_measurements\2026\372_IV_IV IrOx, 5 min Pt, 30 min C, etched cathode\new station\Loopeis new\1,46 V different time gaps closed cell\Loopeis 1,46V_45s_3_PEIS from 6500Hz to 1000Hz.mps
Saved on :
	File : L_08_Loopeis 1,46V_45s_3_PEIS from 6500Hz to 1000Hz_14_OCV_C01.mpr
	Directory : C:\PEM-WE_measurements\2026\372_IV_IV IrOx, 5 min Pt, 30 min C, etched cathode\new station\Loopeis new\1,46 V different time gaps closed cell\
	Host : 192.168.0.2
Device : SP-150e (SN .005491)
Address : 192.168.0.91
EC-LAB for windows v11.71 (software)
Internet server v28.00 (firmware)
Command interpretor v14.01 (firmware)
Electrode material : 
Initial state : 
Electrolyte : 
Comments : 
Current amplifier : SP-150eB-20A
Electrode surface area : 0.001 cm²
Characteristic mass : 0.001 g
Equivalent Weight : 0.000 g/eq.
Density : 0.000 g/cm3
Volume (V) : 0.001 cm³
Record Analogic IN 1
Text export
   Mode : Standard
   Time format : Elapsed
Cycle Definition : Charge/Discharge alternance
External device configuration :
   device type : Temperature Probe
   device name : Other
   Analog IN 1 : 
      unit : T/Â°C
      max : 100.000 at 2.000 V
      min : 0.000 at 1.460 V
tR (h:m:s)          0:00:45.0000        
dER/dt (mV/h)       1.0                 
record              <Ewe>               
dER (mV)            10.00               
dtR (s)             0.5000              
E range min (V)     -2.500              
E range max (V)     2.500               

mode	error	time/s	<Ewe/V>	Analog IN 1/V	
3	0	5.889611951955885E+002	1.4192253E+000	-2.7038031E+002
3	0	5.894611951829575E+002	1.4108921E+000	-2.7038742E+002
3	0	5.899611951703264E+002	1.4052452E+000	-2.7039093E+002
3	0	5.904611951576953E+002	1.4011710E+000	-2.7038385E+002
3	0	5.909611951450643E+002	1.3979520E+000	-2.7036618E+002
3	0	5.914611951324332E+002	1.3952640E+000	-2.7035913E+002
3	0	5.919611951198021E+002	1.3929657E+000	-2.7035559E+002
3	0	5.924611951071711E+002	1.3909209E+000	-2.7039093E+002
3	0	5.929611950945400E+002	1.3890229E+000	-2.7040155E+002
3	0	5.934611950819090E+002	1.3872101E+000	-2.7039093E+002
3	0	5.939611950692779E+002	1.3855902E+000	-2.7036267E+002
3	0	5.944611950566468E+002	1.3841469E+000	-2.7038385E+002
3	0	5.949611950440158E+002	1.3827966E+000	-2.7039093E+002
3	0	5.954611950313847E+002	1.3815346E+000	-2.7038385E+002
3	0	5.959611950187536E+002	1.3803546E+000	-2.7038385E+002
3	0	5.964611950061226E+002	1.3792279E+000	-2.7035913E+002
3	0	5.969611949934915E+002	1.3780909E+000	-2.7037326E+002
3	0	5.974611949808605E+002	1.3769405E+000	-2.7036267E+002
3	0	5.979611949682294E+002	1.3758959E+000	-2.7038031E+002
3	0	5.984611949555983E+002	1.3749588E+000	-2.7038385E+002
3	0	5.989611949429673E+002	1.3740771E+000	-2.7038742E+002
3	0	5.994611949303362E+002	1.3732173E+000	-2.7037677E+002
3	0	5.999611949177051E+002	1.3724025E+000	-2.7039447E+002
3	0	6.004611949050741E+002	1.3716007E+000	-2.7037677E+002
3	0	6.009611948924430E+002	1.3707542E+000	-2.7037326E+002
3	0	6.014611948798120E+002	1.3698775E+000	-2.7036267E+002
3	0	6.019611948671809E+002	1.3690737E+000	-2.7039093E+002
3	0	6.024611948545498E+002	1.3683501E+000	-2.7040506E+002
3	0	6.029611948419188E+002	1.3676473E+000	-2.7039093E+002
3	0	6.034611948292877E+002	1.3669604E+000	-2.7034497E+002
3	0	6.039611948166566E+002	1.3663037E+000	-2.7037326E+002
3	0	6.044611948040256E+002	1.3656504E+000	-2.7040155E+002
3	0	6.049611947913945E+002	1.3649681E+000	-2.7037326E+002
3	0	6.054611947787635E+002	1.3642281E+000	-2.7037326E+002
3	0	6.059611947661324E+002	1.3635753E+000	-2.7037326E+002
3	0	6.064611947535013E+002	1.3630079E+000	-2.7036267E+002
3	0	6.069611947408703E+002	1.3624587E+000	-2.7037677E+002
3	0	6.074611947282392E+002	1.3619330E+000	-2.7036267E+002
3	0	6.079611947156081E+002	1.3614212E+000	-2.7038031E+002
3	0	6.084611947029771E+002	1.3609153E+000	-2.7038031E+002
3	0	6.089611946903460E+002	1.3603718E+000	-2.7037677E+002
3	0	6.094611946777150E+002	1.3597717E+000	-2.7038385E+002
3	0	6.099611946650839E+002	1.3592427E+000	-2.7037326E+002
3	0	6.104611946524528E+002	1.3587759E+000	-2.7038742E+002
3	0	6.109611946398218E+002	1.3583170E+000	-2.7037677E+002
3	0	6.114611946271907E+002	1.3578603E+000	-2.7036267E+002
3	0	6.119611946145596E+002	1.3574265E+000	-2.7038742E+002
3	0	6.124611946019286E+002	1.3569918E+000	-2.7037677E+002
3	0	6.129611945892975E+002	1.3564882E+000	-2.7037326E+002
3	0	6.134611945766665E+002	1.3559408E+000	-2.7036972E+002
3	0	6.139611945640354E+002	1.3554734E+000	-2.7037677E+002
3	0	6.144611945514043E+002	1.3550560E+000	-2.7036267E+002
3	0	6.149611945387733E+002	1.3546283E+000	-2.7036618E+002
3	0	6.154611945261422E+002	1.3542132E+000	-2.7036972E+002
3	0	6.159611945135111E+002	1.3537930E+000	-2.7036618E+002
3	0	6.164611945008801E+002	1.3533609E+000	-2.7038385E+002
3	0	6.169611944882490E+002	1.3528680E+000	-2.7036618E+002
3	0	6.174611944756180E+002	1.3523229E+000	-2.7038742E+002
3	0	6.179611944629869E+002	1.3518482E+000	-2.7038031E+002
3	0	6.184611944503558E+002	1.3514190E+000	-2.7037677E+002
3	0	6.189611944377248E+002	1.3509926E+000	-2.7037677E+002
3	0	6.194611944250937E+002	1.3505691E+000	-2.7037326E+002
3	0	6.199611944124626E+002	1.3501396E+000	-2.7036972E+002
3	0	6.204611943998316E+002	1.3497058E+000	-2.7035559E+002
3	0	6.209611943872005E+002	1.3492104E+000	-2.7038385E+002
3	0	6.214611943745695E+002	1.3486569E+000	-2.7038031E+002
3	0	6.219611943619384E+002	1.3481680E+000	-2.7041568E+002
3	0	6.224611943493073E+002	1.3477246E+000	-2.7036267E+002
3	0	6.229611943366763E+002	1.3472890E+000	-2.7036267E+002
3	0	6.234611943240452E+002	1.3468505E+000	-2.7037326E+002
3	0	6.239611943114141E+002	1.3464121E+000	-2.7038031E+002
3	0	6.244611942987831E+002	1.3459612E+000	-2.7039801E+002
3	0	6.249611942861520E+002	1.3454654E+000	-2.7036972E+002
3	0	6.254611942735210E+002	1.3449105E+000	-2.7038385E+002
3	0	6.259611942608899E+002	1.3444363E+000	-2.7038031E+002
3	0	6.264611942482588E+002	1.3440232E+000	-2.7038031E+002
3	0	6.269611942356278E+002	1.3436099E+000	-2.7036972E+002
3	0	6.274611942229967E+002	1.3432076E+000	-2.7037326E+002
3	0	6.279611942103656E+002	1.3428208E+000	-2.7035559E+002
3	0	6.284611941977346E+002	1.3424238E+000	-2.7035913E+002
3	0	6.289611941851035E+002	1.3419802E+000	-2.7039447E+002
3	0	6.294611941724725E+002	1.3414735E+000	-2.7037677E+002
3	0	6.299611941598414E+002	1.3410405E+000	-2.7039093E+002
3	0	6.304611941472103E+002	1.3406594E+000	-2.7035913E+002
3	0	6.309611941345793E+002	1.3402734E+000	-2.7037326E+002
3	0	6.314611941219482E+002	1.3398839E+000	-2.7038385E+002
3	0	6.319611941093171E+002	1.3395127E+000	-2.7039801E+002
3	0	6.324611940966861E+002	1.3391207E+000	-2.7037326E+002
3	0	6.329611940840550E+002	1.3386668E+000	-2.7037677E+002
3	0	6.334611940714240E+002	1.3381615E+000	-2.7038385E+002
3	0	6.334615940714139E+002	1.3379351E+000	-2.7038742E+002