EC-Lab ASCII FILE
Nb header lines : 55                          

Open Circuit Voltage

Run on channel : 1 (SN 81504)
User : 
CE vs. WE compliance from -10 V to 10 V
Electrode connection : standard
Potential control : Ewe
Ewe ctrl range : min = -2.50 V, max = 2.50 V
Safety Limits :
	Do not start on E overload
Acquisition started on : 05/08/2026 00:43:10.981
Loaded Setting File :  C:\PEM-WE_measurements\2026\372_IV_IV IrOx, 5 min Pt, 30 min C, etched cathode\new station\Loopeis new\1,46 V different time gaps open cell\Loopeis 1,46V_180s_4_PEIS from 650Hz to 100Hz.mps
Saved on :
	File : L_29_Loopeis 1,46V_180s_4_PEIS from 650Hz to 100Hz_12_OCV_C01.mpr
	Directory : C:\PEM-WE_measurements\2026\372_IV_IV IrOx, 5 min Pt, 30 min C, etched cathode\new station\Loopeis new\1,46 V different time gaps open cell\
	Host : 192.168.0.2
Device : SP-150e (SN .005491)
Address : 192.168.0.91
EC-LAB for windows v11.71 (software)
Internet server v28.00 (firmware)
Command interpretor v14.01 (firmware)
Electrode material : 
Initial state : 
Electrolyte : 
Comments : 
Current amplifier : SP-150eB-20A
Electrode surface area : 0.001 cm²
Characteristic mass : 0.001 g
Equivalent Weight : 0.000 g/eq.
Density : 0.000 g/cm3
Volume (V) : 0.001 cm³
Record Analogic IN 1
Text export
   Mode : Standard
   Time format : Elapsed
Cycle Definition : Charge/Discharge alternance
External device configuration :
   device type : Temperature Probe
   device name : Other
   Analog IN 1 : 
      unit : T/Â°C
      max : 100.000 at 2.000 V
      min : 0.000 at 1.460 V
tR (h:m:s)          0:03:0.0000         
dER/dt (mV/h)       1.0                 
record              <Ewe>               
dER (mV)            10.00               
dtR (s)             0.5000              
E range min (V)     -2.500              
E range max (V)     2.500               

mode	error	time/s	<Ewe/V>	Analog IN 1/V	
3	0	1.172606980354758E+003	9.4474190E-001	-2.7038031E+002
3	0	1.173106980342127E+003	1.1303036E+000	-2.7039093E+002
3	0	1.173606980329496E+003	7.6085144E-001	-2.7038031E+002
3	0	1.174106980316865E+003	3.9193535E-001	-2.7038385E+002
3	0	1.174606980304234E+003	3.2117921E-001	-2.7036618E+002
3	0	1.175106980291603E+003	3.1164104E-001	-2.7035913E+002
3	0	1.175606980278972E+003	3.0518118E-001	-2.7038385E+002
3	0	1.176106980266341E+003	2.9976714E-001	-2.7038031E+002
3	0	1.176606980253709E+003	2.9549819E-001	-2.7038385E+002
3	0	1.177106980241078E+003	2.9216129E-001	-2.7037677E+002
3	0	1.177606980228447E+003	2.8950682E-001	-2.7035205E+002
3	0	1.178106980215816E+003	2.8733480E-001	-2.7034497E+002
3	0	1.178606980203185E+003	2.8550860E-001	-2.7036267E+002
3	0	1.179106980190554E+003	2.8396511E-001	-2.7036618E+002
3	0	1.179606980177923E+003	2.8265569E-001	-2.7037326E+002
3	0	1.180106980165292E+003	2.8149432E-001	-2.7038385E+002
3	0	1.180606980152661E+003	2.8045392E-001	-2.7039093E+002
3	0	1.181106980140030E+003	2.7950588E-001	-2.7038742E+002
3	0	1.181606980127399E+003	2.7863866E-001	-2.7038742E+002
3	0	1.182106980114768E+003	2.7782038E-001	-2.7039093E+002
3	0	1.182606980102137E+003	2.7703169E-001	-2.7040860E+002
3	0	1.183106980089506E+003	2.7628678E-001	-2.7038031E+002
3	0	1.183606980076875E+003	2.7561486E-001	-2.7039093E+002
3	0	1.184106980064244E+003	2.7496308E-001	-2.7038742E+002
3	0	1.184606980051612E+003	2.7433968E-001	-2.7038031E+002
3	0	1.185106980038981E+003	2.7372912E-001	-2.7037677E+002
3	0	1.185606980026350E+003	2.7314100E-001	-2.7036972E+002
3	0	1.186106980013719E+003	2.7254853E-001	-2.7039093E+002
3	0	1.186606980001088E+003	2.7195376E-001	-2.7036972E+002
3	0	1.187106979988457E+003	2.7136847E-001	-2.7039093E+002
3	0	1.187606979975826E+003	2.7083436E-001	-2.7039093E+002
3	0	1.188106979963195E+003	2.7029696E-001	-2.7036972E+002
3	0	1.188606979950564E+003	2.6977494E-001	-2.7039801E+002
3	0	1.189106979937933E+003	2.6926151E-001	-2.7036972E+002
3	0	1.189606979925302E+003	2.6875189E-001	-2.7038031E+002
3	0	1.190106979912671E+003	2.6823956E-001	-2.7037326E+002
3	0	1.190606979900040E+003	2.6770940E-001	-2.7038742E+002
3	0	1.191106979887409E+003	2.6719028E-001	-2.7037677E+002
3	0	1.191606979874778E+003	2.6671845E-001	-2.7039801E+002
3	0	1.192106979862147E+003	2.6623634E-001	-2.7037326E+002
3	0	1.192606979849515E+003	2.6576766E-001	-2.7038385E+002
3	0	1.193106979836884E+003	2.6529294E-001	-2.7036972E+002
3	0	1.193606979824253E+003	2.6483026E-001	-2.7038031E+002
3	0	1.194106979811622E+003	2.6435819E-001	-2.7036618E+002
3	0	1.194606979798991E+003	2.6386926E-001	-2.7035913E+002
3	0	1.195106979786360E+003	2.6339567E-001	-2.7038385E+002
3	0	1.195606979773729E+003	2.6295593E-001	-2.7037326E+002
3	0	1.196106979761098E+003	2.6250589E-001	-2.7035913E+002
3	0	1.196606979748467E+003	2.6206329E-001	-2.7038031E+002
3	0	1.197106979735836E+003	2.6162621E-001	-2.7038742E+002
3	0	1.197606979723205E+003	2.6119041E-001	-2.7038742E+002
3	0	1.198106979710574E+003	2.6074386E-001	-2.7036267E+002
3	0	1.198606979697943E+003	2.6028073E-001	-2.7036972E+002
3	0	1.199106979685312E+003	2.5984123E-001	-2.7038742E+002
3	0	1.199606979672681E+003	2.5943762E-001	-2.7040860E+002
3	0	1.200106979660050E+003	2.5902498E-001	-2.7038385E+002
3	0	1.200606979647418E+003	2.5861636E-001	-2.7042273E+002
3	0	1.201106979634787E+003	2.5820932E-001	-2.7037677E+002
3	0	1.201606979622156E+003	2.5780830E-001	-2.7036618E+002
3	0	1.202106979609525E+003	2.5739291E-001	-2.7040860E+002
3	0	1.202606979596894E+003	2.5696504E-001	-2.7037326E+002
3	0	1.203106979584263E+003	2.5656027E-001	-2.7040155E+002
3	0	1.203606979571632E+003	2.5618795E-001	-2.7038385E+002
3	0	1.204106979559001E+003	2.5580451E-001	-2.7038385E+002
3	0	1.204606979546370E+003	2.5542942E-001	-2.7039447E+002
3	0	1.205106979533739E+003	2.5506204E-001	-2.7038385E+002
3	0	1.205606979521108E+003	2.5469407E-001	-2.7039093E+002
3	0	1.206106979508477E+003	2.5431642E-001	-2.7038742E+002
3	0	1.206606979495846E+003	2.5391835E-001	-2.7036972E+002
3	0	1.207106979483215E+003	2.5354904E-001	-2.7040860E+002
3	0	1.207606979470584E+003	2.5320616E-001	-2.7038031E+002
3	0	1.208106979457953E+003	2.5285795E-001	-2.7038742E+002
3	0	1.208606979445321E+003	2.5251102E-001	-2.7037326E+002
3	0	1.209106979432690E+003	2.5216919E-001	-2.7039093E+002
3	0	1.209606979420059E+003	2.5182790E-001	-2.7038031E+002
3	0	1.210106979407428E+003	2.5147489E-001	-2.7037677E+002
3	0	1.210606979394797E+003	2.5110605E-001	-2.7035913E+002
3	0	1.211106979382166E+003	2.5075856E-001	-2.7038031E+002
3	0	1.211606979369535E+003	2.5044584E-001	-2.7038385E+002
3	0	1.212106979356904E+003	2.5011939E-001	-2.7036618E+002
3	0	1.212606979344273E+003	2.4980578E-001	-2.7038031E+002
3	0	1.213106979331642E+003	2.4949445E-001	-2.7036618E+002
3	0	1.213606979319011E+003	2.4918549E-001	-2.7039093E+002
3	0	1.214106979306380E+003	2.4885792E-001	-2.7036618E+002
3	0	1.214606979293749E+003	2.4851857E-001	-2.7035913E+002
3	0	1.215106979281118E+003	2.4819712E-001	-2.7035205E+002
3	0	1.215606979268487E+003	2.4791442E-001	-2.7039447E+002
3	0	1.216106979255856E+003	2.4761277E-001	-2.7035559E+002
3	0	1.216606979243224E+003	2.4732117E-001	-2.7038385E+002
3	0	1.217106979230593E+003	2.4702513E-001	-2.7036972E+002
3	0	1.217606979217962E+003	2.4674240E-001	-2.7037677E+002
3	0	1.218106979205331E+003	2.4643619E-001	-2.7038385E+002
3	0	1.218606979192700E+003	2.4611856E-001	-2.7034851E+002
3	0	1.219106979180069E+003	2.4582171E-001	-2.7035559E+002
3	0	1.219606979167438E+003	2.4556492E-001	-2.7039801E+002
3	0	1.220106979154807E+003	2.4529889E-001	-2.7038385E+002
3	0	1.220606979142176E+003	2.4503167E-001	-2.7037326E+002
3	0	1.221106979129545E+003	2.4476419E-001	-2.7040860E+002
3	0	1.221606979116914E+003	2.4449722E-001	-2.7037677E+002
3	0	1.222106979104283E+003	2.4421671E-001	-2.7039447E+002
3	0	1.222606979091652E+003	2.4392301E-001	-2.7038385E+002
3	0	1.223106979079021E+003	2.4365035E-001	-2.7037677E+002
3	0	1.223606979066390E+003	2.4341112E-001	-2.7036972E+002
3	0	1.224106979053759E+003	2.4316470E-001	-2.7037326E+002
3	0	1.224606979041127E+003	2.4292140E-001	-2.7038385E+002
3	0	1.225106979028496E+003	2.4268235E-001	-2.7039093E+002
3	0	1.225606979015865E+003	2.4243881E-001	-2.7039093E+002
3	0	1.226106979003234E+003	2.4218675E-001	-2.7039093E+002
3	0	1.226606978990603E+003	2.4191359E-001	-2.7038385E+002
3	0	1.227106978977972E+003	2.4166994E-001	-2.7036618E+002
3	0	1.227606978965341E+003	2.4144593E-001	-2.7038031E+002
3	0	1.228106978952710E+003	2.4121988E-001	-2.7037677E+002
3	0	1.228606978940079E+003	2.4099652E-001	-2.7037677E+002
3	0	1.229106978927448E+003	2.4077965E-001	-2.7039447E+002
3	0	1.229606978914817E+003	2.4056114E-001	-2.7039093E+002
3	0	1.230106978902186E+003	2.4032576E-001	-2.7036618E+002
3	0	1.230606978889555E+003	2.4008219E-001	-2.7038031E+002
3	0	1.231106978876924E+003	2.3984967E-001	-2.7038031E+002
3	0	1.231606978864293E+003	2.3965494E-001	-2.7039093E+002
3	0	1.232106978851662E+003	2.3945318E-001	-2.7036972E+002
3	0	1.232606978839030E+003	2.3924337E-001	-2.7037677E+002
3	0	1.233106978826399E+003	2.3904441E-001	-2.7036267E+002
3	0	1.233606978813768E+003	2.3883934E-001	-2.7034497E+002
3	0	1.234106978801137E+003	2.3861808E-001	-2.7035559E+002
3	0	1.234606978788506E+003	2.3838177E-001	-2.7039093E+002
3	0	1.235106978775875E+003	2.3817186E-001	-2.7037326E+002
3	0	1.235606978763244E+003	2.3798595E-001	-2.7040506E+002
3	0	1.236106978750613E+003	2.3779628E-001	-2.7038742E+002
3	0	1.236606978737982E+003	2.3761229E-001	-2.7038385E+002
3	0	1.237106978725351E+003	2.3742069E-001	-2.7039093E+002
3	0	1.237606978712720E+003	2.3723510E-001	-2.7036267E+002
3	0	1.238106978700089E+003	2.3703197E-001	-2.7039447E+002
3	0	1.238606978687458E+003	2.3681307E-001	-2.7038031E+002
3	0	1.239106978674827E+003	2.3661302E-001	-2.7039093E+002
3	0	1.239606978662196E+003	2.3644513E-001	-2.7040155E+002
3	0	1.240106978649565E+003	2.3626469E-001	-2.7038031E+002
3	0	1.240606978636933E+003	2.3608531E-001	-2.7038031E+002
3	0	1.241106978624302E+003	2.3591016E-001	-2.7040155E+002
3	0	1.241606978611671E+003	2.3573664E-001	-2.7037326E+002
3	0	1.242106978599040E+003	2.3555098E-001	-2.7037326E+002
3	0	1.242606978586409E+003	2.3534715E-001	-2.7037326E+002
3	0	1.243106978573778E+003	2.3515941E-001	-2.7037326E+002
3	0	1.243606978561147E+003	2.3500751E-001	-2.7036618E+002
3	0	1.244106978548516E+003	2.3483780E-001	-2.7038031E+002
3	0	1.244606978535885E+003	2.3468405E-001	-2.7036618E+002
3	0	1.245106978523254E+003	2.3452535E-001	-2.7036618E+002
3	0	1.245606978510623E+003	2.3436664E-001	-2.7039801E+002
3	0	1.246106978497992E+003	2.3419015E-001	-2.7038385E+002
3	0	1.246606978485361E+003	2.3399882E-001	-2.7036267E+002
3	0	1.247106978472730E+003	2.3382631E-001	-2.7037677E+002
3	0	1.247606978460099E+003	2.3368502E-001	-2.7039093E+002
3	0	1.248106978447468E+003	2.3353268E-001	-2.7039093E+002
3	0	1.248606978434836E+003	2.3338895E-001	-2.7035913E+002
3	0	1.249106978422205E+003	2.3324965E-001	-2.7036972E+002
3	0	1.249606978409574E+003	2.3310409E-001	-2.7037326E+002
3	0	1.250106978396943E+003	2.3294406E-001	-2.7039093E+002
3	0	1.250606978384312E+003	2.3276329E-001	-2.7036972E+002
3	0	1.251106978371681E+003	2.3260298E-001	-2.7037677E+002
3	0	1.251606978359050E+003	2.3247242E-001	-2.7038385E+002
3	0	1.252106978346419E+003	2.3233226E-001	-2.7038385E+002
3	0	1.252606978333788E+003	2.3220155E-001	-2.7038031E+002
3	0	1.253106978321157E+003	2.3206452E-001	-2.7040155E+002
3	0	1.253606978308526E+003	2.3192723E-001	-2.7039447E+002
3	0	1.254106978295895E+003	2.3177533E-001	-2.7037677E+002
3	0	1.254606978283264E+003	2.3161215E-001	-2.7037326E+002
3	0	1.255106978270633E+003	2.3146033E-001	-2.7036618E+002
3	0	1.255606978258002E+003	2.3133840E-001	-2.7035205E+002
3	0	1.256106978245371E+003	2.3121749E-001	-2.7039093E+002
3	0	1.256606978232739E+003	2.3109247E-001	-2.7034851E+002
3	0	1.257106978220108E+003	2.3096730E-001	-2.7037326E+002
3	0	1.257606978207477E+003	2.3083510E-001	-2.7036972E+002
3	0	1.258106978194846E+003	2.3068537E-001	-2.7040506E+002
3	0	1.258606978182215E+003	2.3052143E-001	-2.7037677E+002
3	0	1.259106978169584E+003	2.3037891E-001	-2.7036618E+002
3	0	1.259606978156953E+003	2.3026739E-001	-2.7034851E+002
3	0	1.260106978144322E+003	2.3014440E-001	-2.7036972E+002
3	0	1.260606978131691E+003	2.3002608E-001	-2.7036618E+002
3	0	1.261106978119060E+003	2.2990331E-001	-2.7036618E+002
3	0	1.261606978106429E+003	2.2977743E-001	-2.7040860E+002
3	0	1.262106978093798E+003	2.2963741E-001	-2.7035559E+002
3	0	1.262606978081167E+003	2.2947565E-001	-2.7038031E+002
3	0	1.263106978068536E+003	2.2933289E-001	-2.7035913E+002
3	0	1.263606978055905E+003	2.2922206E-001	-2.7037677E+002
3	0	1.264106978043274E+003	2.2911349E-001	-2.7036618E+002
3	0	1.264606978030642E+003	2.2900596E-001	-2.7038742E+002
3	0	1.265106978018011E+003	2.2889577E-001	-2.7039093E+002
3	0	1.265606978005380E+003	2.2878228E-001	-2.7037326E+002
3	0	1.266106977992749E+003	2.2865140E-001	-2.7036972E+002
3	0	1.266606977980118E+003	2.2850005E-001	-2.7039093E+002
3	0	1.267106977967487E+003	2.2836344E-001	-2.7039093E+002
3	0	1.267606977954856E+003	2.2827108E-001	-2.7038385E+002
3	0	1.268106977942225E+003	2.2816963E-001	-2.7039447E+002
3	0	1.268606977929594E+003	2.2807470E-001	-2.7036972E+002
3	0	1.269106977916963E+003	2.2797911E-001	-2.7037326E+002
3	0	1.269606977904332E+003	2.2787333E-001	-2.7036618E+002
3	0	1.270106977891701E+003	2.2775757E-001	-2.7039093E+002
3	0	1.270606977879070E+003	2.2761033E-001	-2.7038385E+002
3	0	1.271106977866439E+003	2.2748531E-001	-2.7037677E+002
3	0	1.271606977853808E+003	2.2739530E-001	-2.7038742E+002
3	0	1.272106977841177E+003	2.2730041E-001	-2.7039447E+002
3	0	1.272606977828546E+003	2.2720671E-001	-2.7038385E+002
3	0	1.273106977815914E+003	2.2711305E-001	-2.7038742E+002
3	0	1.273606977803283E+003	2.2701427E-001	-2.7035559E+002
3	0	1.274106977790652E+003	2.2690070E-001	-2.7038742E+002
3	0	1.274606977778021E+003	2.2676620E-001	-2.7039447E+002
3	0	1.275106977765390E+003	2.2664760E-001	-2.7040155E+002
3	0	1.275606977752759E+003	2.2656126E-001	-2.7035559E+002
3	0	1.276106977740128E+003	2.2646989E-001	-2.7035913E+002
3	0	1.276606977727497E+003	2.2637843E-001	-2.7036267E+002
3	0	1.277106977714866E+003	2.2628573E-001	-2.7040506E+002
3	0	1.277606977702235E+003	2.2618802E-001	-2.7039447E+002
3	0	1.278106977689604E+003	2.2608143E-001	-2.7038742E+002
3	0	1.278606977676973E+003	2.2595263E-001	-2.7035913E+002
3	0	1.279106977664342E+003	2.2583894E-001	-2.7037326E+002
3	0	1.279606977651711E+003	2.2575580E-001	-2.7039447E+002
3	0	1.280106977639080E+003	2.2566956E-001	-2.7038742E+002
3	0	1.280606977626449E+003	2.2558109E-001	-2.7038742E+002
3	0	1.281106977613817E+003	2.2548832E-001	-2.7040506E+002
3	0	1.281606977601186E+003	2.2536498E-001	-2.7037677E+002
3	0	1.282106977588555E+003	2.2526354E-001	-2.7035205E+002
3	0	1.282606977575924E+003	2.2515516E-001	-2.7038385E+002
3	0	1.283106977563293E+003	2.2505724E-001	-2.7038031E+002
3	0	1.283606977550662E+003	2.2499362E-001	-2.7038385E+002
3	0	1.284106977538031E+003	2.2491866E-001	-2.7038031E+002
3	0	1.284606977525400E+003	2.2483778E-001	-2.7037326E+002
3	0	1.285106977512769E+003	2.2475494E-001	-2.7040860E+002
3	0	1.285606977500138E+003	2.2466747E-001	-2.7040860E+002
3	0	1.286106977487507E+003	2.2455192E-001	-2.7037326E+002
3	0	1.286606977474876E+003	2.2442269E-001	-2.7036618E+002
3	0	1.287106977462245E+003	2.2432113E-001	-2.7038031E+002
3	0	1.287606977449614E+003	2.2425810E-001	-2.7035205E+002
3	0	1.288106977436983E+003	2.2418861E-001	-2.7039447E+002
3	0	1.288606977424352E+003	2.2411275E-001	-2.7037326E+002
3	0	1.289106977411720E+003	2.2403280E-001	-2.7036618E+002
3	0	1.289606977399089E+003	2.2394527E-001	-2.7038031E+002
3	0	1.290106977386458E+003	2.2383651E-001	-2.7038031E+002
3	0	1.290606977373827E+003	2.2371617E-001	-2.7037326E+002
3	0	1.291106977361196E+003	2.2361673E-001	-2.7035205E+002
3	0	1.291606977348565E+003	2.2355466E-001	-2.7036267E+002
3	0	1.292106977335934E+003	2.2349356E-001	-2.7038385E+002
3	0	1.292606977323303E+003	2.2341451E-001	-2.7040506E+002
3	0	1.293106977310672E+003	2.2333860E-001	-2.7034143E+002
3	0	1.293606977298041E+003	2.2326306E-001	-2.7038385E+002
3	0	1.294106977285410E+003	2.2315820E-001	-2.7036972E+002
3	0	1.294606977272779E+003	2.2303768E-001	-2.7037326E+002
3	0	1.295106977260148E+003	2.2293478E-001	-2.7035913E+002
3	0	1.295606977247517E+003	2.2287276E-001	-2.7039801E+002
3	0	1.296106977234886E+003	2.2280644E-001	-2.7036618E+002
3	0	1.296606977222255E+003	2.2272779E-001	-2.7040506E+002
3	0	1.297106977209623E+003	2.2265577E-001	-2.7036267E+002
3	0	1.297606977196992E+003	2.2257499E-001	-2.7039093E+002
3	0	1.298106977184361E+003	2.2248384E-001	-2.7040506E+002
3	0	1.298606977171730E+003	2.2236444E-001	-2.7035559E+002
3	0	1.299106977159099E+003	2.2226053E-001	-2.7037326E+002
3	0	1.299606977146468E+003	2.2219831E-001	-2.7036972E+002
3	0	1.300106977133837E+003	2.2213073E-001	-2.7036267E+002
3	0	1.300606977121206E+003	2.2205614E-001	-2.7037326E+002
3	0	1.301106977108575E+003	2.2197516E-001	-2.7039093E+002
3	0	1.301606977095944E+003	2.2189826E-001	-2.7037677E+002
3	0	1.302106977083313E+003	2.2179498E-001	-2.7035913E+002
3	0	1.302606977070682E+003	2.2167562E-001	-2.7037326E+002
3	0	1.303106977058051E+003	2.2157453E-001	-2.7037677E+002
3	0	1.303606977045420E+003	2.2151862E-001	-2.7038742E+002
3	0	1.304106977032789E+003	2.2146639E-001	-2.7039093E+002
3	0	1.304606977020158E+003	2.2141056E-001	-2.7038031E+002
3	0	1.305106977007526E+003	2.2135469E-001	-2.7034497E+002
3	0	1.305606976994895E+003	2.2128554E-001	-2.7036618E+002
3	0	1.306106976982264E+003	2.2119884E-001	-2.7039093E+002
3	0	1.306606976969633E+003	2.2108740E-001	-2.7038031E+002
3	0	1.307106976957002E+003	2.2099906E-001	-2.7040860E+002
3	0	1.307606976944371E+003	2.2095421E-001	-2.7035913E+002
3	0	1.308106976931740E+003	2.2089753E-001	-2.7039093E+002
3	0	1.308606976919109E+003	2.2083910E-001	-2.7037677E+002
3	0	1.309106976906478E+003	2.2077248E-001	-2.7036972E+002
3	0	1.309606976893847E+003	2.2071451E-001	-2.7038385E+002
3	0	1.310106976881216E+003	2.2063053E-001	-2.7038031E+002
3	0	1.310606976868585E+003	2.2053002E-001	-2.7038742E+002
3	0	1.311106976855954E+003	2.2044550E-001	-2.7033789E+002
3	0	1.311606976843323E+003	2.2039919E-001	-2.7038385E+002
3	0	1.312106976830692E+003	2.2034752E-001	-2.7038031E+002
3	0	1.312606976818061E+003	2.2029157E-001	-2.7038742E+002
3	0	1.313106976805429E+003	2.2022726E-001	-2.7038742E+002
3	0	1.313606976792798E+003	2.2016957E-001	-2.7036267E+002
3	0	1.314106976780167E+003	2.2008678E-001	-2.7037326E+002
3	0	1.314606976767536E+003	2.1999227E-001	-2.7036972E+002
3	0	1.315106976754905E+003	2.1990436E-001	-2.7037677E+002
3	0	1.315606976742274E+003	2.1986136E-001	-2.7038742E+002
3	0	1.316106976729643E+003	2.1981737E-001	-2.7040506E+002
3	0	1.316606976717012E+003	2.1976349E-001	-2.7036618E+002
3	0	1.317106976704381E+003	2.1970816E-001	-2.7038742E+002
3	0	1.317606976691750E+003	2.1964848E-001	-2.7037326E+002
3	0	1.318106976679119E+003	2.1956535E-001	-2.7037677E+002
3	0	1.318606976666488E+003	2.1946248E-001	-2.7038385E+002
3	0	1.319106976653857E+003	2.1938317E-001	-2.7037326E+002
3	0	1.319606976641226E+003	2.1933964E-001	-2.7038031E+002
3	0	1.320106976628595E+003	2.1929601E-001	-2.7035205E+002
3	0	1.320606976615964E+003	2.1923824E-001	-2.7037677E+002
3	0	1.321106976603332E+003	2.1918106E-001	-2.7036972E+002
3	0	1.321606976590701E+003	2.1911956E-001	-2.7040860E+002
3	0	1.322106976578070E+003	2.1903603E-001	-2.7039093E+002
3	0	1.322606976565439E+003	2.1892655E-001	-2.7038385E+002
3	0	1.323106976552808E+003	2.1883748E-001	-2.7039093E+002
3	0	1.323606976540177E+003	2.1879232E-001	-2.7038742E+002
3	0	1.324106976527546E+003	2.1874849E-001	-2.7036972E+002
3	0	1.324606976514915E+003	2.1869223E-001	-2.7036618E+002
3	0	1.325106976502284E+003	2.1863651E-001	-2.7036972E+002
3	0	1.325606976489653E+003	2.1857652E-001	-2.7040155E+002
3	0	1.326106976477022E+003	2.1850121E-001	-2.7036972E+002
3	0	1.326606976464391E+003	2.1840414E-001	-2.7040155E+002
3	0	1.327106976451760E+003	2.1832150E-001	-2.7038385E+002
3	0	1.327606976439129E+003	2.1827924E-001	-2.7038385E+002
3	0	1.328106976426498E+003	2.1824105E-001	-2.7039801E+002
3	0	1.328606976413867E+003	2.1818708E-001	-2.7039447E+002
3	0	1.329106976401235E+003	2.1814547E-001	-2.7037326E+002
3	0	1.329606976388604E+003	2.1808593E-001	-2.7039093E+002
3	0	1.330106976375973E+003	2.1800880E-001	-2.7038742E+002
3	0	1.330606976363342E+003	2.1791242E-001	-2.7039801E+002
3	0	1.331106976350711E+003	2.1782918E-001	-2.7038385E+002
3	0	1.331606976338080E+003	2.1778913E-001	-2.7040506E+002
3	0	1.332106976325449E+003	2.1774298E-001	-2.7034497E+002
3	0	1.332606976312818E+003	2.1769591E-001	-2.7034851E+002
3	0	1.333106976300187E+003	2.1765207E-001	-2.7036267E+002
3	0	1.333606976287556E+003	2.1759459E-001	-2.7035913E+002
3	0	1.334106976274925E+003	2.1752423E-001	-2.7037677E+002
3	0	1.334606976262294E+003	2.1741852E-001	-2.7038742E+002
3	0	1.335106976249663E+003	2.1734171E-001	-2.7038742E+002
3	0	1.335606976237032E+003	2.1731336E-001	-2.7038031E+002
3	0	1.336106976224401E+003	2.1728666E-001	-2.7036267E+002
3	0	1.336606976211770E+003	2.1724994E-001	-2.7035205E+002
3	0	1.337106976199138E+003	2.1720734E-001	-2.7036267E+002
3	0	1.337606976186507E+003	2.1716143E-001	-2.7036618E+002
3	0	1.338106976173876E+003	2.1709894E-001	-2.7037326E+002
3	0	1.338606976161245E+003	2.1701242E-001	-2.7041919E+002
3	0	1.339106976148614E+003	2.1693151E-001	-2.7037326E+002
3	0	1.339606976135983E+003	2.1690328E-001	-2.7039093E+002
3	0	1.340106976123352E+003	2.1687059E-001	-2.7036267E+002
3	0	1.340606976110721E+003	2.1682899E-001	-2.7036618E+002
3	0	1.341106976098090E+003	2.1678677E-001	-2.7039093E+002
3	0	1.341606976085459E+003	2.1673121E-001	-2.7036267E+002
3	0	1.342106976072828E+003	2.1665822E-001	-2.7038385E+002
3	0	1.342606976060197E+003	2.1655899E-001	-2.7038385E+002
3	0	1.343106976047566E+003	2.1648319E-001	-2.7038031E+002
3	0	1.343606976034935E+003	2.1643947E-001	-2.7038031E+002
3	0	1.344106976022304E+003	2.1640436E-001	-2.7039801E+002
3	0	1.344606976009673E+003	2.1636270E-001	-2.7035913E+002
3	0	1.345106975997041E+003	2.1631488E-001	-2.7040860E+002
3	0	1.345606975984410E+003	2.1627271E-001	-2.7039093E+002
3	0	1.346106975971779E+003	2.1620150E-001	-2.7038031E+002
3	0	1.346606975959148E+003	2.1611021E-001	-2.7038385E+002
3	0	1.347106975946517E+003	2.1603552E-001	-2.7037326E+002
3	0	1.347606975933886E+003	2.1600211E-001	-2.7036618E+002
3	0	1.348106975921255E+003	2.1597360E-001	-2.7039447E+002
3	0	1.348606975908624E+003	2.1593478E-001	-2.7038385E+002
3	0	1.349106975895993E+003	2.1589299E-001	-2.7039093E+002
3	0	1.349606975883362E+003	2.1585287E-001	-2.7037677E+002
3	0	1.350106975870731E+003	2.1579105E-001	-2.7038031E+002
3	0	1.350606975858100E+003	2.1570621E-001	-2.7036618E+002
3	0	1.351106975845469E+003	2.1563616E-001	-2.7038385E+002
3	0	1.351606975832838E+003	2.1560308E-001	-2.7039447E+002
3	0	1.352106975820207E+003	2.1557444E-001	-2.7038742E+002
3	0	1.352131575819585E+003	2.1556240E-001	-2.7038385E+002