EC-Lab ASCII FILE
Nb header lines : 55                          

Open Circuit Voltage

Run on channel : 1 (SN 81504)
User : 
CE vs. WE compliance from -10 V to 10 V
Electrode connection : standard
Potential control : Ewe
Ewe ctrl range : min = -2.50 V, max = 2.50 V
Safety Limits :
	Do not start on E overload
Acquisition started on : 05/09/2026 23:59:42.806
Loaded Setting File :  C:\PEM-WE_measurements\2026\372_IV_IV IrOx, 5 min Pt, 30 min C, etched cathode\new station\Loopeis new\1,46 V different time gaps closed cell\Loopeis 1,46V_30s_4_PEIS from 650Hz to 100Hz.mps
Saved on :
	File : L_04_Loopeis 1,46V_30s_4_PEIS from 650Hz to 100Hz_16_OCV_C01.mpr
	Directory : C:\PEM-WE_measurements\2026\372_IV_IV IrOx, 5 min Pt, 30 min C, etched cathode\new station\Loopeis new\1,46 V different time gaps closed cell\
	Host : 192.168.0.2
Device : SP-150e (SN .005491)
Address : 192.168.0.91
EC-LAB for windows v11.71 (software)
Internet server v28.00 (firmware)
Command interpretor v14.01 (firmware)
Electrode material : 
Initial state : 
Electrolyte : 
Comments : 
Current amplifier : SP-150eB-20A
Electrode surface area : 0.001 cm²
Characteristic mass : 0.001 g
Equivalent Weight : 0.000 g/eq.
Density : 0.000 g/cm3
Volume (V) : 0.001 cm³
Record Analogic IN 1
Text export
   Mode : Standard
   Time format : Elapsed
Cycle Definition : Charge/Discharge alternance
External device configuration :
   device type : Temperature Probe
   device name : Other
   Analog IN 1 : 
      unit : T/Â°C
      max : 100.000 at 2.000 V
      min : 0.000 at 1.460 V
tR (h:m:s)          0:00:30.0000        
dER/dt (mV/h)       1.0                 
record              <Ewe>               
dER (mV)            10.00               
dtR (s)             0.5000              
E range min (V)     -2.500              
E range max (V)     2.500               

mode	error	time/s	<Ewe/V>	Analog IN 1/V	
3	0	5.762187989576341E+002	1.2145990E+000	-2.7038385E+002
3	0	5.767187989450031E+002	1.2506189E+000	-2.7038031E+002
3	0	5.772187989323720E+002	1.2551769E+000	-2.7041214E+002
3	0	5.777187989197409E+002	1.2579995E+000	-2.7039093E+002
3	0	5.782187989071099E+002	1.2600214E+000	-2.7037677E+002
3	0	5.787187988944788E+002	1.2615790E+000	-2.7039801E+002
3	0	5.792187988818478E+002	1.2628081E+000	-2.7037677E+002
3	0	5.797187988692167E+002	1.2637837E+000	-2.7038031E+002
3	0	5.802187988565856E+002	1.2645403E+000	-2.7038742E+002
3	0	5.807187988439546E+002	1.2652090E+000	-2.7039093E+002
3	0	5.812187988313235E+002	1.2658203E+000	-2.7038385E+002
3	0	5.817187988186924E+002	1.2663263E+000	-2.7035913E+002
3	0	5.822187988060614E+002	1.2667632E+000	-2.7039801E+002
3	0	5.827187987934303E+002	1.2671468E+000	-2.7038031E+002
3	0	5.832187987807993E+002	1.2674729E+000	-2.7037677E+002
3	0	5.837187987681682E+002	1.2677029E+000	-2.7038385E+002
3	0	5.842187987555371E+002	1.2678488E+000	-2.7038031E+002
3	0	5.847187987429061E+002	1.2680036E+000	-2.7039801E+002
3	0	5.852187987302750E+002	1.2681651E+000	-2.7036618E+002
3	0	5.857187987176439E+002	1.2682862E+000	-2.7039093E+002
3	0	5.862187987050129E+002	1.2683866E+000	-2.7040506E+002
3	0	5.867187986923818E+002	1.2684712E+000	-2.7036972E+002
3	0	5.872187986797508E+002	1.2685274E+000	-2.7035559E+002
3	0	5.877187986671197E+002	1.2685128E+000	-2.7038742E+002
3	0	5.882187986544886E+002	1.2684134E+000	-2.7038742E+002
3	0	5.887187986418576E+002	1.2683419E+000	-2.7039093E+002
3	0	5.892187986292265E+002	1.2683015E+000	-2.7040506E+002
3	0	5.897187986165955E+002	1.2682177E+000	-2.7041214E+002
3	0	5.902187986039644E+002	1.2681224E+000	-2.7038385E+002
3	0	5.907187985913333E+002	1.2680216E+000	-2.7038031E+002
3	0	5.912187985787023E+002	1.2679014E+000	-2.7038031E+002
3	0	5.917187985660712E+002	1.2677248E+000	-2.7036972E+002
3	0	5.922187985534401E+002	1.2674968E+000	-2.7037326E+002
3	0	5.927187985408091E+002	1.2673008E+000	-2.7037677E+002
3	0	5.932187985281780E+002	1.2671367E+000	-2.7038742E+002
3	0	5.937187985155470E+002	1.2669511E+000	-2.7038031E+002
3	0	5.942187985029159E+002	1.2667633E+000	-2.7039093E+002
3	0	5.947187984902848E+002	1.2665765E+000	-2.7038031E+002
3	0	5.952187984776538E+002	1.2663791E+000	-2.7039093E+002
3	0	5.957187984650227E+002	1.2661245E+000	-2.7039801E+002
3	0	5.962187984523916E+002	1.2658138E+000	-2.7037326E+002
3	0	5.967187984397606E+002	1.2655311E+000	-2.7038385E+002
3	0	5.972187984271295E+002	1.2652887E+000	-2.7036618E+002
3	0	5.977187984144985E+002	1.2650253E+000	-2.7036972E+002
3	0	5.982187984018674E+002	1.2647636E+000	-2.7037677E+002
3	0	5.987187983892363E+002	1.2645029E+000	-2.7039093E+002
3	0	5.992187983766053E+002	1.2642328E+000	-2.7036267E+002
3	0	5.997187983639742E+002	1.2639130E+000	-2.7041214E+002
3	0	6.002187983513431E+002	1.2635306E+000	-2.7038031E+002
3	0	6.007187983387121E+002	1.2631800E+000	-2.7039447E+002
3	0	6.012187983260810E+002	1.2628800E+000	-2.7040155E+002
3	0	6.017187983134500E+002	1.2625586E+000	-2.7036618E+002
3	0	6.022187983008189E+002	1.2622365E+000	-2.7038031E+002
3	0	6.027187982881878E+002	1.2619168E+000	-2.7038031E+002
3	0	6.032187982755568E+002	1.2615881E+000	-2.7034497E+002
3	0	6.037187982629257E+002	1.2612131E+000	-2.7038031E+002
3	0	6.042187982502946E+002	1.2607716E+000	-2.7038385E+002
3	0	6.047187982376636E+002	1.2603678E+000	-2.7040155E+002
3	0	6.052187982250325E+002	1.2600161E+000	-2.7037677E+002
3	0	6.057187982124015E+002	1.2596471E+000	-2.7038031E+002
3	0	6.057433982117800E+002	1.2594589E+000	-2.7039093E+002