EC-Lab ASCII FILE
Nb header lines : 48                          

Open Circuit Voltage

Run on channel : 1 (SN 81504)
User : 
CE vs. WE compliance from -10 V to 10 V
Electrode connection : standard
Potential control : Ewe
Ewe ctrl range : min = -2.50 V, max = 2.50 V
Safety Limits :
	Do not start on E overload
Acquisition started on : 05/07/2026 14:16:32.051
Loaded Setting File :  C:\PEM-WE_measurements\2026\372_IV_IV IrOx, 5 min Pt, 30 min C, etched cathode\new station\Loopeis new\1,46 V different time gaps open cell\Loopeis 1,46V_30s_2_PEIS from 65kHz to 10kHz.mps
Saved on :
	File : L_02_Loopeis 1,46V_30s_2_PEIS from 65kHz to 10kHz_06_OCV_C01.mpr
	Directory : C:\PEM-WE_measurements\2026\372_IV_IV IrOx, 5 min Pt, 30 min C, etched cathode\new station\Loopeis new\1,46 V different time gaps open cell\
	Host : 192.168.0.2
Device : SP-150e (SN .005491)
Address : 192.168.0.91
EC-LAB for windows v11.71 (software)
Internet server v28.00 (firmware)
Command interpretor v14.01 (firmware)
Electrode material : 
Initial state : 
Electrolyte : 
Comments : 
Current amplifier : SP-150eB-20A
Electrode surface area : 0.001 cm²
Characteristic mass : 0.001 g
Equivalent Weight : 0.000 g/eq.
Density : 0.000 g/cm3
Volume (V) : 0.001 cm³
Record Analogic IN 1
Text export
   Mode : Standard
   Time format : Elapsed
Cycle Definition : Charge/Discharge alternance
tR (h:m:s)          0:00:30.0000        
dER/dt (mV/h)       1.0                 
record              <Ewe>               
dER (mV)            10.00               
dtR (s)             0.5000              
E range min (V)     -2.500              
E range max (V)     2.500               

mode	error	time/s	<Ewe/V>	Analog IN 1/V	
3	0	1.958885983537766E+002	1.2459712E+000	-7.2477276E-005
3	0	1.963885983411456E+002	1.2126969E+000	-7.2477276E-005
3	0	1.968885983285145E+002	1.0530765E+000	-7.2477276E-005
3	0	1.973885983158834E+002	5.6669647E-001	2.2950437E-005
3	0	1.978885983032524E+002	3.5917106E-001	-3.4306191E-005
3	0	1.983885982906213E+002	3.3205241E-001	4.2035979E-005
3	0	1.988885982779902E+002	3.2366854E-001	2.2950437E-005
3	0	1.993885982653592E+002	3.1710514E-001	8.0207064E-005
3	0	1.998885982527281E+002	3.1214115E-001	-1.4881945E-004
3	0	2.003885982400971E+002	3.0841637E-001	-1.4881945E-004
3	0	2.008885982274660E+002	3.0555129E-001	-9.1562819E-005
3	0	2.013885982148349E+002	3.0329809E-001	-5.3391734E-005
3	0	2.018885982022039E+002	3.0149814E-001	-7.2477276E-005
3	0	2.023885981895728E+002	2.9999593E-001	4.2035979E-005
3	0	2.028885981769417E+002	2.9871303E-001	-3.4306191E-005
3	0	2.033885981643107E+002	2.9759458E-001	-5.3391734E-005
3	0	2.038885981516796E+002	2.9660040E-001	-1.5220648E-005
3	0	2.043885981390486E+002	2.9568085E-001	-7.2477276E-005
3	0	2.048885981264175E+002	2.9481658E-001	2.2950437E-005
3	0	2.053885981137864E+002	2.9400402E-001	-1.1064836E-004
3	0	2.058885981011554E+002	2.9328796E-001	8.0207064E-005
3	0	2.063885980885243E+002	2.9259789E-001	1.1837815E-004
3	0	2.068885980758932E+002	2.9193771E-001	-7.2477276E-005
3	0	2.073885980632622E+002	2.9130378E-001	2.2950437E-005
3	0	2.078885980506311E+002	2.9069251E-001	-1.5220648E-005
3	0	2.083885980380001E+002	2.9008776E-001	3.8648941E-006
3	0	2.088885980253690E+002	2.8946429E-001	-5.3391734E-005
3	0	2.093885980127379E+002	2.8886163E-001	-9.1562819E-005
3	0	2.098885980001069E+002	2.8830063E-001	9.9292607E-005
3	0	2.103885979874758E+002	2.8773588E-001	-1.1064836E-004
3	0	2.108885979748447E+002	2.8719121E-001	9.9292607E-005
3	0	2.113885979622137E+002	2.8664991E-001	-1.5220648E-005
3	0	2.118885979495826E+002	2.8611547E-001	-5.3391734E-005
3	0	2.123885979369516E+002	2.8558221E-001	-5.3391734E-005
3	0	2.128885979243205E+002	2.8503454E-001	-9.1562819E-005
3	0	2.133885979116894E+002	2.8448194E-001	-9.1562819E-005
3	0	2.138885978990584E+002	2.8397113E-001	-1.1064836E-004
3	0	2.143885978864273E+002	2.8345892E-001	-1.6790499E-004
3	0	2.148885978737962E+002	2.8281260E-001	3.8648941E-006
3	0	2.153885978611652E+002	2.8209856E-001	-5.3391734E-005
3	0	2.158885978485341E+002	2.8154159E-001	3.8648941E-006
3	0	2.163885978359031E+002	2.8103054E-001	3.8648941E-006
3	0	2.168885978232720E+002	2.8051713E-001	-1.5220648E-005
3	0	2.173885978106409E+002	2.8001595E-001	3.8648941E-006
3	0	2.178885977980099E+002	2.7955869E-001	-5.3391734E-005
3	0	2.183885977853788E+002	2.7910179E-001	1.3746369E-004
3	0	2.188885977727477E+002	2.7864742E-001	-9.1562819E-005
3	0	2.193885977601167E+002	2.7819291E-001	-1.1064836E-004
3	0	2.198885977474856E+002	2.7771425E-001	6.1121522E-005
3	0	2.203885977348546E+002	2.7726224E-001	-9.1562819E-005
3	0	2.208885977222235E+002	2.7679732E-001	-1.6790499E-004
3	0	2.213885977095924E+002	2.7632844E-001	-5.3391734E-005
3	0	2.218885976969614E+002	2.7591112E-001	-3.4306191E-005
3	0	2.223885976843303E+002	2.7548331E-001	-1.6790499E-004
3	0	2.228885976716992E+002	2.7504787E-001	-3.4306191E-005
3	0	2.233885976590682E+002	2.7462980E-001	-1.1064836E-004
3	0	2.238885976464371E+002	2.7420539E-001	-5.3391734E-005
3	0	2.243885976338061E+002	2.7377278E-001	3.8648941E-006
3	0	2.248885976211750E+002	2.7331701E-001	-3.4306191E-005
3	0	2.253885976085439E+002	2.7287686E-001	-1.1064836E-004
3	0	2.253889976085338E+002	2.7268752E-001	-1.4881945E-004