EC-Lab ASCII FILE
Nb header lines : 55                          

Open Circuit Voltage

Run on channel : 1 (SN 81504)
User : 
CE vs. WE compliance from -10 V to 10 V
Electrode connection : standard
Potential control : Ewe
Ewe ctrl range : min = -2.50 V, max = 2.50 V
Safety Limits :
	Do not start on E overload
Acquisition started on : 05/07/2026 15:46:26.830
Loaded Setting File :  C:\PEM-WE_measurements\2026\372_IV_IV IrOx, 5 min Pt, 30 min C, etched cathode\new station\Loopeis new\1,46 V different time gaps open cell\Loopeis 1,46V_45s_3_PEIS from 6500Hz to 1000Hz.mps
Saved on :
	File : L_08_Loopeis 1,46V_45s_3_PEIS from 6500Hz to 1000Hz_06_OCV_C01.mpr
	Directory : C:\PEM-WE_measurements\2026\372_IV_IV IrOx, 5 min Pt, 30 min C, etched cathode\new station\Loopeis new\1,46 V different time gaps open cell\
	Host : 192.168.0.2
Device : SP-150e (SN .005491)
Address : 192.168.0.91
EC-LAB for windows v11.71 (software)
Internet server v28.00 (firmware)
Command interpretor v14.01 (firmware)
Electrode material : 
Initial state : 
Electrolyte : 
Comments : 
Current amplifier : SP-150eB-20A
Electrode surface area : 0.001 cm²
Characteristic mass : 0.001 g
Equivalent Weight : 0.000 g/eq.
Density : 0.000 g/cm3
Volume (V) : 0.001 cm³
Record Analogic IN 1
Text export
   Mode : Standard
   Time format : Elapsed
Cycle Definition : Charge/Discharge alternance
External device configuration :
   device type : Temperature Probe
   device name : Other
   Analog IN 1 : 
      unit : T/Â°C
      max : 100.000 at 2.000 V
      min : 0.000 at 1.460 V
tR (h:m:s)          0:00:45.0000        
dER/dt (mV/h)       1.0                 
record              <Ewe>               
dER (mV)            10.00               
dtR (s)             0.5000              
E range min (V)     -2.500              
E range max (V)     2.500               

mode	error	time/s	<Ewe/V>	Analog IN 1/V	
3	0	2.256875975863659E+002	1.2770516E+000	-2.7039447E+002
3	0	2.261875975737348E+002	1.2723125E+000	-2.7038742E+002
3	0	2.266875975611038E+002	1.2370853E+000	-2.7036618E+002
3	0	2.271875975484727E+002	1.1635413E+000	-2.7035205E+002
3	0	2.276875975358416E+002	9.2071813E-001	-2.7038742E+002
3	0	2.281875975232106E+002	4.7165596E-001	-2.7037677E+002
3	0	2.286875975105795E+002	3.5832796E-001	-2.7038385E+002
3	0	2.291875974979484E+002	3.4256059E-001	-2.7036972E+002
3	0	2.296875974853174E+002	3.3351722E-001	-2.7039801E+002
3	0	2.301875974726863E+002	3.2647029E-001	-2.7040506E+002
3	0	2.306875974600553E+002	3.2118618E-001	-2.7036618E+002
3	0	2.311875974474242E+002	3.1717637E-001	-2.7038031E+002
3	0	2.316875974347931E+002	3.1405354E-001	-2.7035913E+002
3	0	2.321875974221621E+002	3.1155080E-001	-2.7036618E+002
3	0	2.326875974095310E+002	3.0947477E-001	-2.7036972E+002
3	0	2.331875973968999E+002	3.0771920E-001	-2.7037326E+002
3	0	2.336875973842689E+002	3.0618039E-001	-2.7035205E+002
3	0	2.341875973716378E+002	3.0482045E-001	-2.7038385E+002
3	0	2.346875973590068E+002	3.0364183E-001	-2.7037677E+002
3	0	2.351875973463757E+002	3.0257800E-001	-2.7036267E+002
3	0	2.356875973337446E+002	3.0159256E-001	-2.7037326E+002
3	0	2.361875973211136E+002	3.0069250E-001	-2.7036618E+002
3	0	2.366875973084825E+002	2.9983962E-001	-2.7038031E+002
3	0	2.371875972958514E+002	2.9901561E-001	-2.7034851E+002
3	0	2.376875972832204E+002	2.9822198E-001	-2.7037326E+002
3	0	2.381875972705893E+002	2.9745376E-001	-2.7035559E+002
3	0	2.386875972579583E+002	2.9675198E-001	-2.7038031E+002
3	0	2.391875972453272E+002	2.9606742E-001	-2.7040155E+002
3	0	2.396875972326961E+002	2.9540455E-001	-2.7036972E+002
3	0	2.401875972200651E+002	2.9476458E-001	-2.7036267E+002
3	0	2.406875972074340E+002	2.9414445E-001	-2.7037677E+002
3	0	2.411875971948029E+002	2.9352456E-001	-2.7035559E+002
3	0	2.416875971821719E+002	2.9289469E-001	-2.7039093E+002
3	0	2.421875971695408E+002	2.9226837E-001	-2.7038385E+002
3	0	2.426875971569098E+002	2.9168615E-001	-2.7038742E+002
3	0	2.431875971442787E+002	2.9110307E-001	-2.7037326E+002
3	0	2.436875971316476E+002	2.9053435E-001	-2.7037677E+002
3	0	2.441875971190166E+002	2.8997666E-001	-2.7039801E+002
3	0	2.446875971063855E+002	2.8942722E-001	-2.7037326E+002
3	0	2.451875970937544E+002	2.8887495E-001	-2.7037677E+002
3	0	2.456875970811234E+002	2.8831023E-001	-2.7038742E+002
3	0	2.461875970684923E+002	2.8773847E-001	-2.7039447E+002
3	0	2.466875970558613E+002	2.8720725E-001	-2.7038742E+002
3	0	2.471875970432302E+002	2.8667817E-001	-2.7036972E+002
3	0	2.476875970305991E+002	2.8615797E-001	-2.7035559E+002
3	0	2.481875970179681E+002	2.8564489E-001	-2.7039801E+002
3	0	2.486875970053370E+002	2.8513873E-001	-2.7035913E+002
3	0	2.491875969927059E+002	2.8461614E-001	-2.7035913E+002
3	0	2.496875969800749E+002	2.8408882E-001	-2.7037326E+002
3	0	2.501875969674438E+002	2.8356010E-001	-2.7038031E+002
3	0	2.506875969548128E+002	2.8307134E-001	-2.7037677E+002
3	0	2.511875969421817E+002	2.8257874E-001	-2.7036972E+002
3	0	2.516875969295506E+002	2.8209937E-001	-2.7037677E+002
3	0	2.521875969169196E+002	2.8161880E-001	-2.7035559E+002
3	0	2.526875969042885E+002	2.8114593E-001	-2.7036972E+002
3	0	2.531875968916574E+002	2.8066674E-001	-2.7037326E+002
3	0	2.536875968790264E+002	2.8017178E-001	-2.7039093E+002
3	0	2.541875968663953E+002	2.7967748E-001	-2.7036618E+002
3	0	2.546875968537643E+002	2.7922678E-001	-2.7038742E+002
3	0	2.551875968411332E+002	2.7877215E-001	-2.7036972E+002
3	0	2.556875968285021E+002	2.7832431E-001	-2.7036972E+002
3	0	2.561875968158711E+002	2.7787820E-001	-2.7037326E+002
3	0	2.566875968032400E+002	2.7743763E-001	-2.7038385E+002
3	0	2.571875967906090E+002	2.7698439E-001	-2.7037326E+002
3	0	2.576875967779779E+002	2.7652040E-001	-2.7037677E+002
3	0	2.581875967653468E+002	2.7605939E-001	-2.7037326E+002
3	0	2.586875967527158E+002	2.7564168E-001	-2.7037677E+002
3	0	2.591875967400847E+002	2.7521968E-001	-2.7038742E+002
3	0	2.596875967274536E+002	2.7481112E-001	-2.7037677E+002
3	0	2.601875967148226E+002	2.7440223E-001	-2.7038031E+002
3	0	2.606875967021915E+002	2.7397230E-001	-2.7038031E+002
3	0	2.611875966895605E+002	2.7356401E-001	-2.7038385E+002
3	0	2.616875966769294E+002	2.7314445E-001	-2.7040860E+002
3	0	2.621875966642983E+002	2.7272198E-001	-2.7040506E+002
3	0	2.626875966516673E+002	2.7235064E-001	-2.7041568E+002
3	0	2.631875966390362E+002	2.7196544E-001	-2.7035913E+002
3	0	2.636875966264051E+002	2.7157608E-001	-2.7038742E+002
3	0	2.641875966137741E+002	2.7119121E-001	-2.7036267E+002
3	0	2.646875966011430E+002	2.7082127E-001	-2.7037326E+002
3	0	2.651875965885120E+002	2.7043644E-001	-2.7036972E+002
3	0	2.656875965758809E+002	2.7003604E-001	-2.7036267E+002
3	0	2.661875965632498E+002	2.6964366E-001	-2.7036972E+002
3	0	2.666875965506188E+002	2.6929060E-001	-2.7035205E+002
3	0	2.671875965379877E+002	2.6893893E-001	-2.7035559E+002
3	0	2.676875965253566E+002	2.6858401E-001	-2.7036267E+002
3	0	2.681875965127256E+002	2.6823500E-001	-2.7038031E+002
3	0	2.686875965000945E+002	2.6788837E-001	-2.7038385E+002
3	0	2.691875964874635E+002	2.6753071E-001	-2.7035559E+002
3	0	2.696875964748324E+002	2.6716527E-001	-2.7036618E+002
3	0	2.701875964622013E+002	2.6679900E-001	-2.7035913E+002
3	0	2.701879964621912E+002	2.6664749E-001	-2.7039447E+002