EC-Lab ASCII FILE
Nb header lines : 55                          

Open Circuit Voltage

Run on channel : 1 (SN 81504)
User : 
CE vs. WE compliance from -10 V to 10 V
Electrode connection : standard
Potential control : Ewe
Ewe ctrl range : min = -2.50 V, max = 2.50 V
Safety Limits :
	Do not start on E overload
Acquisition started on : 05/07/2026 21:17:54.184
Loaded Setting File :  C:\PEM-WE_measurements\2026\372_IV_IV IrOx, 5 min Pt, 30 min C, etched cathode\new station\Loopeis new\1,46 V different time gaps open cell\Loopeis 1,46V_120s_3_PEIS from 6500Hz to 1000Hz.mps
Saved on :
	File : L_23_Loopeis 1,46V_120s_3_PEIS from 6500Hz to 1000Hz_14_OCV_C01.mpr
	Directory : C:\PEM-WE_measurements\2026\372_IV_IV IrOx, 5 min Pt, 30 min C, etched cathode\new station\Loopeis new\1,46 V different time gaps open cell\
	Host : 192.168.0.2
Device : SP-150e (SN .005491)
Address : 192.168.0.91
EC-LAB for windows v11.71 (software)
Internet server v28.00 (firmware)
Command interpretor v14.01 (firmware)
Electrode material : 
Initial state : 
Electrolyte : 
Comments : 
Current amplifier : SP-150eB-20A
Electrode surface area : 0.001 cm²
Characteristic mass : 0.001 g
Equivalent Weight : 0.000 g/eq.
Density : 0.000 g/cm3
Volume (V) : 0.001 cm³
Record Analogic IN 1
Text export
   Mode : Standard
   Time format : Elapsed
Cycle Definition : Charge/Discharge alternance
External device configuration :
   device type : Temperature Probe
   device name : Other
   Analog IN 1 : 
      unit : T/Â°C
      max : 100.000 at 2.000 V
      min : 0.000 at 1.460 V
tR (h:m:s)          0:02:0.0000         
dER/dt (mV/h)       1.0                 
record              <Ewe>               
dER (mV)            10.00               
dtR (s)             0.5000              
E range min (V)     -2.500              
E range max (V)     2.500               

mode	error	time/s	<Ewe/V>	Analog IN 1/V	
3	0	1.037648183765268E+003	1.2276165E+000	-2.7036267E+002
3	0	1.038148183752637E+003	1.1848624E+000	-2.7036618E+002
3	0	1.038648183740006E+003	8.7529546E-001	-2.7037677E+002
3	0	1.039148183727375E+003	4.4631779E-001	-2.7036267E+002
3	0	1.039648183714744E+003	3.4748411E-001	-2.7040155E+002
3	0	1.040148183702113E+003	3.3372396E-001	-2.7036972E+002
3	0	1.040648183689482E+003	3.2574040E-001	-2.7038742E+002
3	0	1.041148183676851E+003	3.1938934E-001	-2.7037326E+002
3	0	1.041648183664220E+003	3.1453666E-001	-2.7037326E+002
3	0	1.042148183651589E+003	3.1081602E-001	-2.7036618E+002
3	0	1.042648183638958E+003	3.0788282E-001	-2.7037677E+002
3	0	1.043148183626327E+003	3.0551583E-001	-2.7039801E+002
3	0	1.043648183613695E+003	3.0354604E-001	-2.7037326E+002
3	0	1.044148183601064E+003	3.0186537E-001	-2.7036972E+002
3	0	1.044648183588433E+003	3.0039123E-001	-2.7039093E+002
3	0	1.045148183575802E+003	2.9911262E-001	-2.7038742E+002
3	0	1.045648183563171E+003	2.9799923E-001	-2.7036267E+002
3	0	1.046148183550540E+003	2.9698139E-001	-2.7040860E+002
3	0	1.046648183537909E+003	2.9604140E-001	-2.7039447E+002
3	0	1.047148183525278E+003	2.9516631E-001	-2.7036618E+002
3	0	1.047648183512647E+003	2.9434672E-001	-2.7038385E+002
3	0	1.048148183500016E+003	2.9354677E-001	-2.7039447E+002
3	0	1.048648183487385E+003	2.9276261E-001	-2.7036972E+002
3	0	1.049148183474754E+003	2.9203913E-001	-2.7038742E+002
3	0	1.049648183462123E+003	2.9136664E-001	-2.7038385E+002
3	0	1.050148183449492E+003	2.9070970E-001	-2.7036972E+002
3	0	1.050648183436861E+003	2.9008088E-001	-2.7038031E+002
3	0	1.051148183424230E+003	2.8946254E-001	-2.7038031E+002
3	0	1.051648183411598E+003	2.8885335E-001	-2.7036618E+002
3	0	1.052148183398967E+003	2.8823429E-001	-2.7036618E+002
3	0	1.052648183386336E+003	2.8760722E-001	-2.7035559E+002
3	0	1.053148183373705E+003	2.8702411E-001	-2.7038385E+002
3	0	1.053648183361074E+003	2.8646678E-001	-2.7038742E+002
3	0	1.054148183348443E+003	2.8591302E-001	-2.7038742E+002
3	0	1.054648183335812E+003	2.8536862E-001	-2.7039801E+002
3	0	1.055148183323181E+003	2.8483549E-001	-2.7040155E+002
3	0	1.055648183310550E+003	2.8430301E-001	-2.7036267E+002
3	0	1.056148183297919E+003	2.8375012E-001	-2.7038031E+002
3	0	1.056648183285288E+003	2.8318906E-001	-2.7040155E+002
3	0	1.057148183272657E+003	2.8266084E-001	-2.7038385E+002
3	0	1.057648183260026E+003	2.8216687E-001	-2.7036972E+002
3	0	1.058148183247395E+003	2.8166881E-001	-2.7040155E+002
3	0	1.058648183234764E+003	2.8117251E-001	-2.7037677E+002
3	0	1.059148183222133E+003	2.8068334E-001	-2.7036972E+002
3	0	1.059648183209501E+003	2.8019127E-001	-2.7037326E+002
3	0	1.060148183196870E+003	2.7968553E-001	-2.7039093E+002
3	0	1.060648183184239E+003	2.7917296E-001	-2.7036618E+002
3	0	1.061148183171608E+003	2.7869737E-001	-2.7038031E+002
3	0	1.061648183158977E+003	2.7823269E-001	-2.7036267E+002
3	0	1.062148183146346E+003	2.7777287E-001	-2.7038742E+002
3	0	1.062648183133715E+003	2.7732068E-001	-2.7038742E+002
3	0	1.063148183121084E+003	2.7686954E-001	-2.7034497E+002
3	0	1.063648183108453E+003	2.7641514E-001	-2.7038031E+002
3	0	1.064148183095822E+003	2.7594575E-001	-2.7036618E+002
3	0	1.064648183083191E+003	2.7546889E-001	-2.7038742E+002
3	0	1.065148183070560E+003	2.7502459E-001	-2.7039447E+002
3	0	1.065648183057929E+003	2.7461541E-001	-2.7038031E+002
3	0	1.066148183045298E+003	2.7420187E-001	-2.7036618E+002
3	0	1.066648183032667E+003	2.7378461E-001	-2.7038385E+002
3	0	1.067148183020036E+003	2.7336684E-001	-2.7035913E+002
3	0	1.067648183007404E+003	2.7295008E-001	-2.7036267E+002
3	0	1.068148182994773E+003	2.7251381E-001	-2.7038031E+002
3	0	1.068648182982142E+003	2.7207983E-001	-2.7038385E+002
3	0	1.069148182969511E+003	2.7166608E-001	-2.7036267E+002
3	0	1.069648182956880E+003	2.7128002E-001	-2.7036267E+002
3	0	1.070148182944249E+003	2.7090320E-001	-2.7037677E+002
3	0	1.070648182931618E+003	2.7051693E-001	-2.7038385E+002
3	0	1.071148182918987E+003	2.7013063E-001	-2.7038031E+002
3	0	1.071648182906356E+003	2.6974910E-001	-2.7039093E+002
3	0	1.072148182893725E+003	2.6935464E-001	-2.7040860E+002
3	0	1.072648182881094E+003	2.6894328E-001	-2.7035205E+002
3	0	1.073148182868463E+003	2.6856741E-001	-2.7036618E+002
3	0	1.073648182855832E+003	2.6821232E-001	-2.7038031E+002
3	0	1.074148182843201E+003	2.6786080E-001	-2.7038385E+002
3	0	1.074648182830570E+003	2.6750040E-001	-2.7039093E+002
3	0	1.075148182817939E+003	2.6715752E-001	-2.7035913E+002
3	0	1.075648182805307E+003	2.6680055E-001	-2.7038385E+002
3	0	1.076148182792676E+003	2.6642957E-001	-2.7036972E+002
3	0	1.076648182780045E+003	2.6604819E-001	-2.7037326E+002
3	0	1.077148182767414E+003	2.6570490E-001	-2.7037677E+002
3	0	1.077648182754783E+003	2.6538032E-001	-2.7035559E+002
3	0	1.078148182742152E+003	2.6505491E-001	-2.7037326E+002
3	0	1.078648182729521E+003	2.6473260E-001	-2.7038385E+002
3	0	1.079148182716890E+003	2.6441237E-001	-2.7038385E+002
3	0	1.079648182704259E+003	2.6408598E-001	-2.7039093E+002
3	0	1.080148182691628E+003	2.6374352E-001	-2.7036267E+002
3	0	1.080648182678997E+003	2.6339263E-001	-2.7038385E+002
3	0	1.081148182666366E+003	2.6307142E-001	-2.7038385E+002
3	0	1.081648182653735E+003	2.6277938E-001	-2.7037326E+002
3	0	1.082148182641104E+003	2.6248750E-001	-2.7036618E+002
3	0	1.082648182628473E+003	2.6218891E-001	-2.7037326E+002
3	0	1.083148182615842E+003	2.6190117E-001	-2.7038385E+002
3	0	1.083648182603210E+003	2.6159865E-001	-2.7035559E+002
3	0	1.084148182590579E+003	2.6128006E-001	-2.7035205E+002
3	0	1.084648182577948E+003	2.6095742E-001	-2.7040860E+002
3	0	1.085148182565317E+003	2.6066893E-001	-2.7040860E+002
3	0	1.085648182552686E+003	2.6040280E-001	-2.7038385E+002
3	0	1.086148182540055E+003	2.6013324E-001	-2.7037326E+002
3	0	1.086648182527424E+003	2.5986865E-001	-2.7038385E+002
3	0	1.087148182514793E+003	2.5960755E-001	-2.7039447E+002
3	0	1.087648182502162E+003	2.5933960E-001	-2.7037677E+002
3	0	1.088148182489531E+003	2.5905555E-001	-2.7036618E+002
3	0	1.088648182476900E+003	2.5875342E-001	-2.7038742E+002
3	0	1.089148182464269E+003	2.5849208E-001	-2.7036972E+002
3	0	1.089648182451638E+003	2.5825140E-001	-2.7038031E+002
3	0	1.090148182439007E+003	2.5800723E-001	-2.7036618E+002
3	0	1.090648182426376E+003	2.5776652E-001	-2.7037677E+002
3	0	1.091148182413745E+003	2.5751826E-001	-2.7036972E+002
3	0	1.091648182401113E+003	2.5726736E-001	-2.7037326E+002
3	0	1.092148182388482E+003	2.5699964E-001	-2.7037677E+002
3	0	1.092648182375851E+003	2.5672138E-001	-2.7036972E+002
3	0	1.093148182363220E+003	2.5647530E-001	-2.7037677E+002
3	0	1.093648182350589E+003	2.5625956E-001	-2.7039801E+002
3	0	1.094148182337958E+003	2.5604317E-001	-2.7038742E+002
3	0	1.094648182325327E+003	2.5581372E-001	-2.7038742E+002
3	0	1.095148182312696E+003	2.5559339E-001	-2.7036972E+002
3	0	1.095648182300065E+003	2.5535658E-001	-2.7037326E+002
3	0	1.096148182287434E+003	2.5510329E-001	-2.7038031E+002
3	0	1.096648182274803E+003	2.5484627E-001	-2.7038385E+002
3	0	1.097148182262172E+003	2.5462213E-001	-2.7038031E+002
3	0	1.097648182249541E+003	2.5441799E-001	-2.7039093E+002
3	0	1.098148182236910E+003	2.5421655E-001	-2.7036267E+002
3	0	1.098648182224279E+003	2.5400195E-001	-2.7037677E+002
3	0	1.099148182211648E+003	2.5378764E-001	-2.7038385E+002
3	0	1.099648182199016E+003	2.5356922E-001	-2.7037326E+002
3	0	1.100148182186385E+003	2.5332636E-001	-2.7040860E+002
3	0	1.100648182173754E+003	2.5308588E-001	-2.7036618E+002
3	0	1.101148182161123E+003	2.5287685E-001	-2.7039801E+002
3	0	1.101648182148492E+003	2.5268495E-001	-2.7035205E+002
3	0	1.102148182135861E+003	2.5249478E-001	-2.7039447E+002
3	0	1.102648182123230E+003	2.5230578E-001	-2.7038385E+002
3	0	1.103148182110599E+003	2.5210962E-001	-2.7040506E+002
3	0	1.103648182097968E+003	2.5191075E-001	-2.7038385E+002
3	0	1.104148182085337E+003	2.5170273E-001	-2.7040860E+002
3	0	1.104648182072706E+003	2.5147635E-001	-2.7038385E+002
3	0	1.105148182060075E+003	2.5128800E-001	-2.7040860E+002
3	0	1.105648182047444E+003	2.5112557E-001	-2.7036618E+002
3	0	1.106148182034813E+003	2.5095409E-001	-2.7036267E+002
3	0	1.106648182022182E+003	2.5078452E-001	-2.7036972E+002
3	0	1.107148182009551E+003	2.5061664E-001	-2.7038031E+002
3	0	1.107648181996919E+003	2.5043643E-001	-2.7038385E+002
3	0	1.108148181984288E+003	2.5023174E-001	-2.7036267E+002
3	0	1.108648181971657E+003	2.5002322E-001	-2.7036972E+002
3	0	1.109148181959026E+003	2.4985175E-001	-2.7037326E+002
3	0	1.109648181946395E+003	2.4969918E-001	-2.7037677E+002
3	0	1.110148181933764E+003	2.4954103E-001	-2.7035913E+002
3	0	1.110648181921133E+003	2.4938199E-001	-2.7036972E+002
3	0	1.111148181908502E+003	2.4922650E-001	-2.7036618E+002
3	0	1.111648181895871E+003	2.4906676E-001	-2.7036618E+002
3	0	1.112148181883240E+003	2.4887359E-001	-2.7036618E+002
3	0	1.112648181870609E+003	2.4867791E-001	-2.7039447E+002
3	0	1.113148181857978E+003	2.4851635E-001	-2.7040506E+002
3	0	1.113648181845347E+003	2.4837334E-001	-2.7037677E+002
3	0	1.114148181832716E+003	2.4822865E-001	-2.7038385E+002
3	0	1.114648181820085E+003	2.4808358E-001	-2.7037677E+002
3	0	1.115148181807454E+003	2.4793798E-001	-2.7038742E+002
3	0	1.115648181794822E+003	2.4778183E-001	-2.7036618E+002
3	0	1.116148181782191E+003	2.4760646E-001	-2.7038385E+002
3	0	1.116648181769560E+003	2.4741367E-001	-2.7039447E+002
3	0	1.117148181756929E+003	2.4726129E-001	-2.7038031E+002
3	0	1.117648181744298E+003	2.4712846E-001	-2.7038031E+002
3	0	1.118148181731667E+003	2.4699569E-001	-2.7038385E+002
3	0	1.118648181719036E+003	2.4685304E-001	-2.7038031E+002
3	0	1.119148181706405E+003	2.4671499E-001	-2.7039093E+002
3	0	1.119648181693774E+003	2.4657340E-001	-2.7037326E+002
3	0	1.120148181681143E+003	2.4640206E-001	-2.7038031E+002
3	0	1.120648181668512E+003	2.4621558E-001	-2.7038031E+002
3	0	1.121148181655881E+003	2.4606986E-001	-2.7040860E+002
3	0	1.121648181643250E+003	2.4595097E-001	-2.7037677E+002
3	0	1.122148181630619E+003	2.4582875E-001	-2.7038385E+002
3	0	1.122648181617988E+003	2.4569567E-001	-2.7038385E+002
3	0	1.123148181605357E+003	2.4556965E-001	-2.7038031E+002
3	0	1.123648181592725E+003	2.4544235E-001	-2.7038742E+002
3	0	1.124148181580094E+003	2.4529362E-001	-2.7037677E+002
3	0	1.124648181567463E+003	2.4512506E-001	-2.7038742E+002
3	0	1.125148181554832E+003	2.4499066E-001	-2.7037326E+002
3	0	1.125648181542201E+003	2.4488415E-001	-2.7039093E+002
3	0	1.126148181529570E+003	2.4476913E-001	-2.7035913E+002
3	0	1.126648181516939E+003	2.4464513E-001	-2.7039093E+002
3	0	1.127148181504308E+003	2.4452658E-001	-2.7038385E+002
3	0	1.127648181491677E+003	2.4441019E-001	-2.7038031E+002
3	0	1.128148181479046E+003	2.4426961E-001	-2.7038385E+002
3	0	1.128648181466415E+003	2.4411090E-001	-2.7037677E+002
3	0	1.129148181453784E+003	2.4398071E-001	-2.7035559E+002
3	0	1.129648181441153E+003	2.4387796E-001	-2.7039447E+002
3	0	1.130148181428522E+003	2.4377750E-001	-2.7036267E+002
3	0	1.130648181415891E+003	2.4366356E-001	-2.7036267E+002
3	0	1.131148181403260E+003	2.4355346E-001	-2.7038031E+002
3	0	1.131648181390628E+003	2.4343812E-001	-2.7035913E+002
3	0	1.132148181377997E+003	2.4330337E-001	-2.7038031E+002
3	0	1.132648181365366E+003	2.4314775E-001	-2.7037326E+002
3	0	1.133148181352735E+003	2.4303004E-001	-2.7037326E+002
3	0	1.133648181340104E+003	2.4293245E-001	-2.7037677E+002
3	0	1.134148181327473E+003	2.4283534E-001	-2.7041214E+002
3	0	1.134648181314842E+003	2.4273522E-001	-2.7038031E+002
3	0	1.135148181302211E+003	2.4263175E-001	-2.7036618E+002
3	0	1.135648181289580E+003	2.4252707E-001	-2.7038742E+002
3	0	1.136148181276949E+003	2.4239674E-001	-2.7036267E+002
3	0	1.136648181264318E+003	2.4224810E-001	-2.7038031E+002
3	0	1.137148181251687E+003	2.4213922E-001	-2.7036972E+002
3	0	1.137648181239056E+003	2.4204689E-001	-2.7036972E+002
3	0	1.138148181226425E+003	2.4195597E-001	-2.7040860E+002
3	0	1.138648181213794E+003	2.4185784E-001	-2.7035559E+002
3	0	1.139148181201163E+003	2.4175753E-001	-2.7036972E+002
3	0	1.139648181188531E+003	2.4164739E-001	-2.7038031E+002
3	0	1.140148181175900E+003	2.4151918E-001	-2.7036972E+002
3	0	1.140648181163269E+003	2.4137506E-001	-2.7039801E+002
3	0	1.141148181150638E+003	2.4126390E-001	-2.7037677E+002
3	0	1.141648181138007E+003	2.4117677E-001	-2.7038031E+002
3	0	1.142148181125376E+003	2.4109095E-001	-2.7039093E+002
3	0	1.142648181112745E+003	2.4099901E-001	-2.7038742E+002
3	0	1.143148181100114E+003	2.4090743E-001	-2.7038742E+002
3	0	1.143648181087483E+003	2.4081416E-001	-2.7037326E+002
3	0	1.144148181074852E+003	2.4069495E-001	-2.7039801E+002
3	0	1.144648181062221E+003	2.4055736E-001	-2.7037677E+002
3	0	1.145148181049590E+003	2.4046329E-001	-2.7036618E+002
3	0	1.145648181036959E+003	2.4038202E-001	-2.7036972E+002
3	0	1.146148181024328E+003	2.4030223E-001	-2.7039447E+002
3	0	1.146648181011697E+003	2.4022086E-001	-2.7036972E+002
3	0	1.147148180999066E+003	2.4014170E-001	-2.7036972E+002
3	0	1.147648180986434E+003	2.4005365E-001	-2.7038031E+002
3	0	1.148148180973803E+003	2.3993966E-001	-2.7037326E+002
3	0	1.148648180961172E+003	2.3980959E-001	-2.7037677E+002
3	0	1.149148180948541E+003	2.3971522E-001	-2.7038031E+002
3	0	1.149648180935910E+003	2.3964413E-001	-2.7038385E+002
3	0	1.150148180923279E+003	2.3957115E-001	-2.7037677E+002
3	0	1.150648180910648E+003	2.3949359E-001	-2.7036618E+002
3	0	1.151148180898017E+003	2.3941068E-001	-2.7036618E+002
3	0	1.151648180885386E+003	2.3931730E-001	-2.7038385E+002
3	0	1.152148180872755E+003	2.3920822E-001	-2.7037326E+002
3	0	1.152648180860124E+003	2.3908547E-001	-2.7037677E+002
3	0	1.153148180847493E+003	2.3899996E-001	-2.7038742E+002
3	0	1.153648180834862E+003	2.3893043E-001	-2.7038031E+002
3	0	1.154148180822231E+003	2.3885821E-001	-2.7038385E+002
3	0	1.154648180809600E+003	2.3877965E-001	-2.7037677E+002
3	0	1.155148180796969E+003	2.3871207E-001	-2.7035559E+002
3	0	1.155648180784337E+003	2.3862399E-001	-2.7036618E+002
3	0	1.156148180771706E+003	2.3851940E-001	-2.7036267E+002
3	0	1.156648180759075E+003	2.3839726E-001	-2.7039801E+002
3	0	1.157148180746444E+003	2.3831576E-001	-2.7038031E+002
3	0	1.157148580746434E+003	2.3825072E-001	-2.7038031E+002