EC-Lab ASCII FILE
Nb header lines : 48                          

Open Circuit Voltage

Run on channel : 1 (SN 81504)
User : 
CE vs. WE compliance from -10 V to 10 V
Electrode connection : standard
Potential control : Ewe
Ewe ctrl range : min = -2.50 V, max = 2.50 V
Safety Limits :
	Do not start on E overload
Acquisition started on : 05/07/2026 15:31:18.757
Loaded Setting File :  C:\PEM-WE_measurements\2026\372_IV_IV IrOx, 5 min Pt, 30 min C, etched cathode\new station\Loopeis new\1,46 V different time gaps open cell\Loopeis 1,46V_45s_2_PEIS from 65kHz to 10kHz.mps
Saved on :
	File : L_07_Loopeis 1,46V_45s_2_PEIS from 65kHz to 10kHz_08_OCV_C01.mpr
	Directory : C:\PEM-WE_measurements\2026\372_IV_IV IrOx, 5 min Pt, 30 min C, etched cathode\new station\Loopeis new\1,46 V different time gaps open cell\
	Host : 192.168.0.2
Device : SP-150e (SN .005491)
Address : 192.168.0.91
EC-LAB for windows v11.71 (software)
Internet server v28.00 (firmware)
Command interpretor v14.01 (firmware)
Electrode material : 
Initial state : 
Electrolyte : 
Comments : 
Current amplifier : SP-150eB-20A
Electrode surface area : 0.001 cm²
Characteristic mass : 0.001 g
Equivalent Weight : 0.000 g/eq.
Density : 0.000 g/cm3
Volume (V) : 0.001 cm³
Record Analogic IN 1
Text export
   Mode : Standard
   Time format : Elapsed
Cycle Definition : Charge/Discharge alternance
tR (h:m:s)          0:00:45.0000        
dER/dt (mV/h)       1.0                 
record              <Ewe>               
dER (mV)            10.00               
dtR (s)             0.5000              
E range min (V)     -2.500              
E range max (V)     2.500               

mode	error	time/s	<Ewe/V>	Analog IN 1/V	
3	0	3.162381986155378E+002	1.0651997E+000	-1.1064836E-004
3	0	3.167381986029068E+002	1.2247027E+000	-7.2477276E-005
3	0	3.172381985902757E+002	1.1877954E+000	-7.2477276E-005
3	0	3.177381985776447E+002	1.1072015E+000	-9.1562819E-005
3	0	3.182381985650136E+002	8.2895583E-001	3.8648941E-006
3	0	3.187381985523825E+002	4.2108837E-001	-7.2477276E-005
3	0	3.192381985397515E+002	3.2645726E-001	3.8648941E-006
3	0	3.197381985271204E+002	3.1443053E-001	-1.5220648E-005
3	0	3.202381985144893E+002	3.0672768E-001	-1.1064836E-004
3	0	3.207381985018583E+002	3.0045557E-001	-7.2477276E-005
3	0	3.212381984892272E+002	2.9562798E-001	-1.4881945E-004
3	0	3.217381984765962E+002	2.9190028E-001	4.2035979E-005
3	0	3.222381984639651E+002	2.8897819E-001	4.2035979E-005
3	0	3.227381984513340E+002	2.8665596E-001	-1.5220648E-005
3	0	3.232381984387030E+002	2.8474057E-001	-5.3391734E-005
3	0	3.237381984260719E+002	2.8312969E-001	9.9292607E-005
3	0	3.242381984134408E+002	2.8175303E-001	3.8648941E-006
3	0	3.247381984008098E+002	2.8054357E-001	-1.2973390E-004
3	0	3.252381983881787E+002	2.7945980E-001	-3.4306191E-005
3	0	3.257381983755477E+002	2.7846491E-001	-3.4306191E-005
3	0	3.262381983629166E+002	2.7754390E-001	-7.2477276E-005
3	0	3.267381983502855E+002	2.7671817E-001	9.9292607E-005
3	0	3.272381983376545E+002	2.7594420E-001	3.8648941E-006
3	0	3.277381983250234E+002	2.7521107E-001	6.1121522E-005
3	0	3.282381983123923E+002	2.7452371E-001	8.0207064E-005
3	0	3.287381982997613E+002	2.7386159E-001	4.2035979E-005
3	0	3.292381982871302E+002	2.7321190E-001	-1.1064836E-004
3	0	3.297381982744992E+002	2.7255848E-001	-7.2477276E-005
3	0	3.302381982618681E+002	2.7192974E-001	3.8648941E-006
3	0	3.307381982492370E+002	2.7133775E-001	-1.5220648E-005
3	0	3.312381982366060E+002	2.7075633E-001	-1.5220648E-005
3	0	3.317381982239749E+002	2.7018598E-001	1.1837815E-004
3	0	3.322381982113438E+002	2.6963842E-001	4.2035979E-005
3	0	3.327381981987128E+002	2.6909578E-001	-9.1562819E-005
3	0	3.332381981860817E+002	2.6854169E-001	-1.4881945E-004
3	0	3.337381981734507E+002	2.6797858E-001	-3.4306191E-005
3	0	3.342381981608196E+002	2.6742074E-001	-7.2477276E-005
3	0	3.347381981481885E+002	2.6690462E-001	-5.3391734E-005
3	0	3.352381981355575E+002	2.6639006E-001	-9.1562819E-005
3	0	3.357381981229264E+002	2.6588205E-001	8.0207064E-005
3	0	3.362381981102953E+002	2.6537365E-001	-7.2477276E-005
3	0	3.367381980976643E+002	2.6487088E-001	-7.2477276E-005
3	0	3.372381980850332E+002	2.6436672E-001	-5.3391734E-005
3	0	3.377381980724022E+002	2.6384506E-001	-1.5220648E-005
3	0	3.382381980597711E+002	2.6332507E-001	-1.5220648E-005
3	0	3.387381980471400E+002	2.6284409E-001	3.8648941E-006
3	0	3.392381980345090E+002	2.6235768E-001	-1.5220648E-005
3	0	3.397381980218779E+002	2.6187611E-001	8.0207064E-005
3	0	3.402381980092468E+002	2.6140577E-001	-5.3391734E-005
3	0	3.407381979966158E+002	2.6093617E-001	-1.1064836E-004
3	0	3.412381979839847E+002	2.6045957E-001	8.0207064E-005
3	0	3.417381979713537E+002	2.5996286E-001	2.2950437E-005
3	0	3.422381979587226E+002	2.5948119E-001	4.2035979E-005
3	0	3.427381979460915E+002	2.5903887E-001	-9.1562819E-005
3	0	3.432381979334605E+002	2.5859073E-001	2.2950437E-005
3	0	3.437381979208294E+002	2.5814560E-001	-1.2973390E-004
3	0	3.442381979081983E+002	2.5770491E-001	6.1121522E-005
3	0	3.447381978955673E+002	2.5726500E-001	-5.3391734E-005
3	0	3.452381978829362E+002	2.5682020E-001	-7.2477276E-005
3	0	3.457381978703052E+002	2.5636369E-001	-9.1562819E-005
3	0	3.462381978576741E+002	2.5590888E-001	-5.3391734E-005
3	0	3.467381978450430E+002	2.5549710E-001	-9.1562819E-005
3	0	3.472381978324120E+002	2.5507885E-001	-7.2477276E-005
3	0	3.477381978197809E+002	2.5466645E-001	-3.4306191E-005
3	0	3.482381978071498E+002	2.5426206E-001	-7.2477276E-005
3	0	3.487381977945188E+002	2.5385427E-001	2.2950437E-005
3	0	3.492381977818877E+002	2.5344077E-001	3.8648941E-006
3	0	3.497381977692567E+002	2.5301102E-001	-1.4881945E-004
3	0	3.502381977566256E+002	2.5258109E-001	-5.3391734E-005
3	0	3.507381977439945E+002	2.5219804E-001	-5.3391734E-005
3	0	3.512381977313635E+002	2.5180939E-001	6.1121522E-005
3	0	3.517381977187324E+002	2.5142455E-001	4.2035979E-005
3	0	3.522381977061013E+002	2.5104177E-001	3.8648941E-006
3	0	3.527381976934703E+002	2.5066718E-001	2.2950437E-005
3	0	3.532381976808392E+002	2.5028107E-001	-3.4306191E-005
3	0	3.537381976682082E+002	2.4987857E-001	-1.5220648E-005
3	0	3.542381976555771E+002	2.4948084E-001	2.2950437E-005
3	0	3.547381976429460E+002	2.4912924E-001	-7.2477276E-005
3	0	3.552381976303150E+002	2.4876919E-001	-1.2973390E-004
3	0	3.557381976176839E+002	2.4841566E-001	-1.6790499E-004
3	0	3.562381976050528E+002	2.4806708E-001	-3.4306191E-005
3	0	3.567381975924218E+002	2.4771728E-001	-3.4306191E-005
3	0	3.572381975797907E+002	2.4735898E-001	2.2950437E-005
3	0	3.577381975671597E+002	2.4697982E-001	-1.2973390E-004
3	0	3.582381975545286E+002	2.4660933E-001	-3.4306191E-005
3	0	3.587381975418975E+002	2.4628207E-001	9.9292607E-005
3	0	3.592381975292665E+002	2.4594791E-001	3.8648941E-006
3	0	3.597381975166354E+002	2.4562587E-001	-7.2477276E-005
3	0	3.602381975040043E+002	2.4530368E-001	-7.2477276E-005
3	0	3.607381974913733E+002	2.4498065E-001	-1.4881945E-004
3	0	3.607727974904992E+002	2.4480601E-001	-9.1562819E-005