EC-Lab ASCII FILE
Nb header lines : 55                          

Open Circuit Voltage

Run on channel : 1 (SN 81504)
User : 
CE vs. WE compliance from -10 V to 10 V
Electrode connection : standard
Potential control : Ewe
Ewe ctrl range : min = -2.50 V, max = 2.50 V
Safety Limits :
	Do not start on E overload
Acquisition started on : 05/10/2026 01:27:16.117
Loaded Setting File :  C:\PEM-WE_measurements\2026\372_IV_IV IrOx, 5 min Pt, 30 min C, etched cathode\new station\Loopeis new\1,46 V different time gaps closed cell\Loopeis 1,46V_45s_5_PEIS from 65Hz to 10Hz.mps
Saved on :
	File : L_10_Loopeis 1,46V_45s_5_PEIS from 65Hz to 10Hz_06_OCV_C01.mpr
	Directory : C:\PEM-WE_measurements\2026\372_IV_IV IrOx, 5 min Pt, 30 min C, etched cathode\new station\Loopeis new\1,46 V different time gaps closed cell\
	Host : 192.168.0.2
Device : SP-150e (SN .005491)
Address : 192.168.0.91
EC-LAB for windows v11.71 (software)
Internet server v28.00 (firmware)
Command interpretor v14.01 (firmware)
Electrode material : 
Initial state : 
Electrolyte : 
Comments : 
Current amplifier : SP-150eB-20A
Electrode surface area : 0.001 cm²
Characteristic mass : 0.001 g
Equivalent Weight : 0.000 g/eq.
Density : 0.000 g/cm3
Volume (V) : 0.001 cm³
Record Analogic IN 1
Text export
   Mode : Standard
   Time format : Elapsed
Cycle Definition : Charge/Discharge alternance
External device configuration :
   device type : Temperature Probe
   device name : Other
   Analog IN 1 : 
      unit : T/Â°C
      max : 100.000 at 2.000 V
      min : 0.000 at 1.460 V
tR (h:m:s)          0:00:45.0000        
dER/dt (mV/h)       1.0                 
record              <Ewe>               
dER (mV)            10.00               
dtR (s)             0.5000              
E range min (V)     -2.500              
E range max (V)     2.500               

mode	error	time/s	<Ewe/V>	Analog IN 1/V	
3	0	2.257465975891682E+002	1.4186752E+000	-2.7037677E+002
3	0	2.262465975765372E+002	1.4103018E+000	-2.7037677E+002
3	0	2.267465975639061E+002	1.4045000E+000	-2.7037677E+002
3	0	2.272465975512750E+002	1.4001935E+000	-2.7038385E+002
3	0	2.277465975386440E+002	1.3968363E+000	-2.7035913E+002
3	0	2.282465975260129E+002	1.3940269E+000	-2.7036618E+002
3	0	2.287465975133819E+002	1.3916157E+000	-2.7038385E+002
3	0	2.292465975007508E+002	1.3895103E+000	-2.7036972E+002
3	0	2.297465974881197E+002	1.3876252E+000	-2.7038031E+002
3	0	2.302465974754887E+002	1.3858660E+000	-2.7038031E+002
3	0	2.307465974628576E+002	1.3841759E+000	-2.7035913E+002
3	0	2.312465974502265E+002	1.3826075E+000	-2.7037677E+002
3	0	2.317465974375955E+002	1.3812236E+000	-2.7038385E+002
3	0	2.322465974249644E+002	1.3799212E+000	-2.7038385E+002
3	0	2.327465974123334E+002	1.3787222E+000	-2.7036972E+002
3	0	2.332465973997023E+002	1.3775935E+000	-2.7040506E+002
3	0	2.337465973870712E+002	1.3765250E+000	-2.7036267E+002
3	0	2.342465973744402E+002	1.3754690E+000	-2.7035559E+002
3	0	2.347465973618091E+002	1.3743991E+000	-2.7039093E+002
3	0	2.352465973491780E+002	1.3733793E+000	-2.7036618E+002
3	0	2.357465973365470E+002	1.3724800E+000	-2.7038742E+002
3	0	2.362465973239159E+002	1.3716204E+000	-2.7038385E+002
3	0	2.367465973112849E+002	1.3708123E+000	-2.7037326E+002
3	0	2.372465972986538E+002	1.3700519E+000	-2.7036972E+002
3	0	2.377465972860227E+002	1.3693107E+000	-2.7037677E+002
3	0	2.382465972733917E+002	1.3685541E+000	-2.7038031E+002
3	0	2.387465972607606E+002	1.3677529E+000	-2.7039093E+002
3	0	2.392465972481295E+002	1.3669837E+000	-2.7036267E+002
3	0	2.397465972354985E+002	1.3663164E+000	-2.7036618E+002
3	0	2.402465972228674E+002	1.3656635E+000	-2.7035559E+002
3	0	2.407465972102364E+002	1.3650469E+000	-2.7037326E+002
3	0	2.412465971976053E+002	1.3644496E+000	-2.7038031E+002
3	0	2.417465971849742E+002	1.3638685E+000	-2.7035205E+002
3	0	2.422465971723432E+002	1.3632600E+000	-2.7039447E+002
3	0	2.427465971597121E+002	1.3625896E+000	-2.7038742E+002
3	0	2.432465971470810E+002	1.3619468E+000	-2.7035559E+002
3	0	2.437465971344500E+002	1.3613974E+000	-2.7037326E+002
3	0	2.442465971218189E+002	1.3608515E+000	-2.7038031E+002
3	0	2.447465971091879E+002	1.3603305E+000	-2.7038385E+002
3	0	2.452465970965568E+002	1.3598173E+000	-2.7038385E+002
3	0	2.457465970839257E+002	1.3593117E+000	-2.7036972E+002
3	0	2.462465970712947E+002	1.3587666E+000	-2.7038385E+002
3	0	2.467465970586636E+002	1.3581636E+000	-2.7036267E+002
3	0	2.472465970460325E+002	1.3575823E+000	-2.7037326E+002
3	0	2.477465970334015E+002	1.3570946E+000	-2.7036618E+002
3	0	2.482465970207704E+002	1.3566206E+000	-2.7036972E+002
3	0	2.487465970081394E+002	1.3561691E+000	-2.7037677E+002
3	0	2.492465969955083E+002	1.3557310E+000	-2.7037677E+002
3	0	2.497465969828772E+002	1.3553172E+000	-2.7037677E+002
3	0	2.502465969702462E+002	1.3548722E+000	-2.7038385E+002
3	0	2.507465969576151E+002	1.3543633E+000	-2.7035913E+002
3	0	2.512465969449840E+002	1.3538787E+000	-2.7039801E+002
3	0	2.517465969323530E+002	1.3534843E+000	-2.7042273E+002
3	0	2.522465969197219E+002	1.3530893E+000	-2.7038742E+002
3	0	2.527465969070909E+002	1.3527116E+000	-2.7038742E+002
3	0	2.532465968944598E+002	1.3523499E+000	-2.7035205E+002
3	0	2.537465968818287E+002	1.3519938E+000	-2.7037677E+002
3	0	2.542465968691977E+002	1.3515986E+000	-2.7035559E+002
3	0	2.547465968565666E+002	1.3511215E+000	-2.7039093E+002
3	0	2.552465968439355E+002	1.3506737E+000	-2.7036267E+002
3	0	2.557465968313045E+002	1.3503104E+000	-2.7038742E+002
3	0	2.562465968186734E+002	1.3499378E+000	-2.7038031E+002
3	0	2.567465968060424E+002	1.3495787E+000	-2.7039801E+002
3	0	2.572465967934113E+002	1.3492132E+000	-2.7039447E+002
3	0	2.577465967807802E+002	1.3488573E+000	-2.7039093E+002
3	0	2.582465967681492E+002	1.3484539E+000	-2.7036972E+002
3	0	2.587465967555181E+002	1.3479743E+000	-2.7038031E+002
3	0	2.592465967428871E+002	1.3475070E+000	-2.7038385E+002
3	0	2.597465967302560E+002	1.3471270E+000	-2.7038031E+002
3	0	2.602465967176249E+002	1.3467455E+000	-2.7037326E+002
3	0	2.607465967049939E+002	1.3463660E+000	-2.7038031E+002
3	0	2.612465966923628E+002	1.3459924E+000	-2.7036618E+002
3	0	2.617465966797317E+002	1.3456261E+000	-2.7036618E+002
3	0	2.622465966671007E+002	1.3452049E+000	-2.7035205E+002
3	0	2.627465966544696E+002	1.3447032E+000	-2.7036267E+002
3	0	2.632465966418386E+002	1.3442239E+000	-2.7035559E+002
3	0	2.637465966292075E+002	1.3438165E+000	-2.7039447E+002
3	0	2.642465966165764E+002	1.3433990E+000	-2.7037677E+002
3	0	2.647465966039454E+002	1.3429935E+000	-2.7036267E+002
3	0	2.652465965913143E+002	1.3425829E+000	-2.7037326E+002
3	0	2.657465965786832E+002	1.3421818E+000	-2.7038742E+002
3	0	2.662465965660522E+002	1.3417381E+000	-2.7038742E+002
3	0	2.667465965534211E+002	1.3412144E+000	-2.7038742E+002
3	0	2.672465965407901E+002	1.3406997E+000	-2.7038031E+002
3	0	2.677465965281590E+002	1.3402740E+000	-2.7038031E+002
3	0	2.682465965155279E+002	1.3398438E+000	-2.7038742E+002
3	0	2.687465965028969E+002	1.3394423E+000	-2.7036267E+002
3	0	2.692465964902658E+002	1.3390479E+000	-2.7036267E+002
3	0	2.697465964776347E+002	1.3386552E+000	-2.7035913E+002
3	0	2.702465964650037E+002	1.3382388E+000	-2.7039801E+002
3	0	2.702469964649936E+002	1.3380018E+000	-2.7038742E+002