EC-Lab ASCII FILE
Nb header lines : 48                          

Open Circuit Voltage

Run on channel : 1 (SN 81504)
User : 
CE vs. WE compliance from -10 V to 10 V
Electrode connection : standard
Potential control : Ewe
Ewe ctrl range : min = -2.50 V, max = 2.50 V
Safety Limits :
	Do not start on E overload
Acquisition started on : 05/09/2026 23:34:18.990
Loaded Setting File :  C:\PEM-WE_measurements\2026\372_IV_IV IrOx, 5 min Pt, 30 min C, etched cathode\new station\Loopeis new\1,46 V different time gaps closed cell\Loopeis 1,46V_30s_2_PEIS from 65kHz to 10kHz.mps
Saved on :
	File : L_02_Loopeis 1,46V_30s_2_PEIS from 65kHz to 10kHz_02_OCV_C01.mpr
	Directory : C:\PEM-WE_measurements\2026\372_IV_IV IrOx, 5 min Pt, 30 min C, etched cathode\new station\Loopeis new\1,46 V different time gaps closed cell\
	Host : 192.168.0.2
Device : SP-150e (SN .005491)
Address : 192.168.0.91
EC-LAB for windows v11.71 (software)
Internet server v28.00 (firmware)
Command interpretor v14.01 (firmware)
Electrode material : 
Initial state : 
Electrolyte : 
Comments : 
Current amplifier : SP-150eB-20A
Electrode surface area : 0.001 cm²
Characteristic mass : 0.001 g
Equivalent Weight : 0.000 g/eq.
Density : 0.000 g/cm3
Volume (V) : 0.001 cm³
Record Analogic IN 1
Text export
   Mode : Standard
   Time format : Elapsed
Cycle Definition : Charge/Discharge alternance
tR (h:m:s)          0:00:30.0000        
dER/dt (mV/h)       1.0                 
record              <Ewe>               
dER (mV)            10.00               
dtR (s)             0.5000              
E range min (V)     -2.500              
E range max (V)     2.500               

mode	error	time/s	<Ewe/V>	Analog IN 1/V	
3	0	4.549979885057837E+001	1.4218600E+000	-1.1064836E-004
3	0	4.599979883794731E+001	1.4143751E+000	-3.4306191E-005
3	0	4.649979882531625E+001	1.4091486E+000	-3.4306191E-005
3	0	4.699979881268519E+001	1.4053390E+000	4.2035979E-005
3	0	4.749979880005412E+001	1.4023341E+000	3.8648941E-006
3	0	4.799979878742306E+001	1.3998426E+000	-3.4306191E-005
3	0	4.849979877479200E+001	1.3976656E+000	2.2950437E-005
3	0	4.899979876216094E+001	1.3956764E+000	3.8648941E-006
3	0	4.949979874952987E+001	1.3939211E+000	3.8648941E-006
3	0	4.999979873689881E+001	1.3923708E+000	-7.2477276E-005
3	0	5.049979872426775E+001	1.3909565E+000	-1.5220648E-005
3	0	5.099979871163669E+001	1.3896657E+000	-1.5220648E-005
3	0	5.149979869900562E+001	1.3884776E+000	-3.4306191E-005
3	0	5.199979868637456E+001	1.3873483E+000	-1.4881945E-004
3	0	5.249979867374350E+001	1.3862491E+000	-5.3391734E-005
3	0	5.299979866111244E+001	1.3851423E+000	-3.4306191E-005
3	0	5.349979864848137E+001	1.3841150E+000	3.8648941E-006
3	0	5.399979863585031E+001	1.3831809E+000	9.9292607E-005
3	0	5.449979862321925E+001	1.3822818E+000	-1.2973390E-004
3	0	5.499979861058819E+001	1.3814387E+000	-5.3391734E-005
3	0	5.549979859795712E+001	1.3806238E+000	-5.3391734E-005
3	0	5.599979858532606E+001	1.3798301E+000	-9.1562819E-005
3	0	5.649979857269500E+001	1.3790092E+000	2.2950437E-005
3	0	5.699979856006394E+001	1.3781539E+000	-1.5220648E-005
3	0	5.749979854743287E+001	1.3773446E+000	3.8648941E-006
3	0	5.799979853480181E+001	1.3765986E+000	-7.2477276E-005
3	0	5.849979852217075E+001	1.3758640E+000	-3.4306191E-005
3	0	5.899979850953969E+001	1.3751503E+000	6.1121522E-005
3	0	5.949979849690862E+001	1.3744491E+000	-1.5220648E-005
3	0	5.999979848427756E+001	1.3737428E+000	-7.2477276E-005
3	0	6.049979847164650E+001	1.3730066E+000	-9.1562819E-005
3	0	6.099979845901544E+001	1.3722094E+000	-1.5220648E-005
3	0	6.149979844638438E+001	1.3714368E+000	-5.3391734E-005
3	0	6.199979843375331E+001	1.3707261E+000	-3.4306191E-005
3	0	6.249979842112225E+001	1.3700210E+000	-3.4306191E-005
3	0	6.299979840849119E+001	1.3693289E+000	3.8648941E-006
3	0	6.349979839586013E+001	1.3686284E+000	-1.5220648E-005
3	0	6.399979838322906E+001	1.3679338E+000	-7.2477276E-005
3	0	6.449979837059800E+001	1.3671992E+000	-5.3391734E-005
3	0	6.499979835796694E+001	1.3664080E+000	-3.4306191E-005
3	0	6.549979834533588E+001	1.3656447E+000	-1.2973390E-004
3	0	6.599979833270481E+001	1.3649459E+000	-1.2973390E-004
3	0	6.649979832007375E+001	1.3642428E+000	-1.4881945E-004
3	0	6.699979830744269E+001	1.3635392E+000	-1.4881945E-004
3	0	6.749979829481163E+001	1.3628150E+000	-1.5220648E-005
3	0	6.799979828218056E+001	1.3620343E+000	-1.5220648E-005
3	0	6.849979826954950E+001	1.3612901E+000	9.9292607E-005
3	0	6.899979825691844E+001	1.3605143E+000	-1.1064836E-004
3	0	6.949979824428738E+001	1.3597533E+000	-9.1562819E-005
3	0	6.999979823165631E+001	1.3590460E+000	-1.4881945E-004
3	0	7.049979821902525E+001	1.3583319E+000	6.1121522E-005
3	0	7.099979820639419E+001	1.3576096E+000	-1.5220648E-005
3	0	7.149979819376313E+001	1.3569008E+000	-5.3391734E-005
3	0	7.199979818113206E+001	1.3561724E+000	-3.4306191E-005
3	0	7.249979816850100E+001	1.3553985E+000	-7.2477276E-005
3	0	7.299979815586994E+001	1.3545622E+000	-7.2477276E-005
3	0	7.349979814323888E+001	1.3537427E+000	4.2035979E-005
3	0	7.399979813060781E+001	1.3529847E+000	3.8648941E-006
3	0	7.449979811797675E+001	1.3522377E+000	2.2950437E-005
3	0	7.499979810534569E+001	1.3514764E+000	-1.4881945E-004
3	0	7.500019810533558E+001	1.3511220E+000	-1.2973390E-004