EC-Lab ASCII FILE
Nb header lines : 55                          

Open Circuit Voltage

Run on channel : 1 (SN 81504)
User : 
CE vs. WE compliance from -10 V to 10 V
Electrode connection : standard
Potential control : Ewe
Ewe ctrl range : min = -2.50 V, max = 2.50 V
Safety Limits :
	Do not start on E overload
Acquisition started on : 05/10/2026 00:12:25.049
Loaded Setting File :  C:\PEM-WE_measurements\2026\372_IV_IV IrOx, 5 min Pt, 30 min C, etched cathode\new station\Loopeis new\1,46 V different time gaps closed cell\Loopeis 1,46V_30s_5_PEIS from 65Hz to 10Hz.mps
Saved on :
	File : L_05_Loopeis 1,46V_30s_5_PEIS from 65Hz to 10Hz_12_OCV_C01.mpr
	Directory : C:\PEM-WE_measurements\2026\372_IV_IV IrOx, 5 min Pt, 30 min C, etched cathode\new station\Loopeis new\1,46 V different time gaps closed cell\
	Host : 192.168.0.2
Device : SP-150e (SN .005491)
Address : 192.168.0.91
EC-LAB for windows v11.71 (software)
Internet server v28.00 (firmware)
Command interpretor v14.01 (firmware)
Electrode material : 
Initial state : 
Electrolyte : 
Comments : 
Current amplifier : SP-150eB-20A
Electrode surface area : 0.001 cm²
Characteristic mass : 0.001 g
Equivalent Weight : 0.000 g/eq.
Density : 0.000 g/cm3
Volume (V) : 0.001 cm³
Record Analogic IN 1
Text export
   Mode : Standard
   Time format : Elapsed
Cycle Definition : Charge/Discharge alternance
External device configuration :
   device type : Temperature Probe
   device name : Other
   Analog IN 1 : 
      unit : T/Â°C
      max : 100.000 at 2.000 V
      min : 0.000 at 1.460 V
tR (h:m:s)          0:00:30.0000        
dER/dt (mV/h)       1.0                 
record              <Ewe>               
dER (mV)            10.00               
dtR (s)             0.5000              
E range min (V)     -2.500              
E range max (V)     2.500               

mode	error	time/s	<Ewe/V>	Analog IN 1/V	
3	0	4.231759993283777E+002	1.2231934E+000	-2.7038031E+002
3	0	4.236759993157466E+002	1.2344744E+000	-2.7037677E+002
3	0	4.241759993031155E+002	1.2395548E+000	-2.7038031E+002
3	0	4.246759992904845E+002	1.2427567E+000	-2.7038031E+002
3	0	4.251759992778534E+002	1.2450500E+000	-2.7038742E+002
3	0	4.256759992652223E+002	1.2467831E+000	-2.7037677E+002
3	0	4.261759992525913E+002	1.2481349E+000	-2.7038742E+002
3	0	4.266759992399602E+002	1.2492977E+000	-2.7038031E+002
3	0	4.271759992273292E+002	1.2502764E+000	-2.7037326E+002
3	0	4.276759992146981E+002	1.2511085E+000	-2.7038385E+002
3	0	4.281759992020670E+002	1.2518176E+000	-2.7037677E+002
3	0	4.286759991894360E+002	1.2524360E+000	-2.7039447E+002
3	0	4.291759991768049E+002	1.2529424E+000	-2.7039093E+002
3	0	4.296759991641738E+002	1.2533183E+000	-2.7037677E+002
3	0	4.301759991515428E+002	1.2536168E+000	-2.7036972E+002
3	0	4.306759991389117E+002	1.2539178E+000	-2.7038742E+002
3	0	4.311759991262807E+002	1.2541918E+000	-2.7040155E+002
3	0	4.316759991136496E+002	1.2544156E+000	-2.7038385E+002
3	0	4.321759991010185E+002	1.2546136E+000	-2.7035559E+002
3	0	4.326759990883875E+002	1.2547774E+000	-2.7037677E+002
3	0	4.331759990757564E+002	1.2549011E+000	-2.7038385E+002
3	0	4.336759990631253E+002	1.2549418E+000	-2.7035913E+002
3	0	4.341759990504943E+002	1.2549289E+000	-2.7036267E+002
3	0	4.346759990378632E+002	1.2549639E+000	-2.7035913E+002
3	0	4.351759990252322E+002	1.2549907E+000	-2.7038742E+002
3	0	4.356759990126011E+002	1.2549952E+000	-2.7037677E+002
3	0	4.361759989999700E+002	1.2549858E+000	-2.7038385E+002
3	0	4.366759989873390E+002	1.2549716E+000	-2.7036972E+002
3	0	4.371759989747079E+002	1.2549217E+000	-2.7035913E+002
3	0	4.376759989620768E+002	1.2548068E+000	-2.7038385E+002
3	0	4.381759989494458E+002	1.2546328E+000	-2.7037677E+002
3	0	4.386759989368147E+002	1.2545252E+000	-2.7036618E+002
3	0	4.391759989241837E+002	1.2544117E+000	-2.7038742E+002
3	0	4.396759989115526E+002	1.2542926E+000	-2.7039801E+002
3	0	4.401759988989215E+002	1.2541641E+000	-2.7039447E+002
3	0	4.406759988862905E+002	1.2540156E+000	-2.7039801E+002
3	0	4.411759988736594E+002	1.2538478E+000	-2.7037677E+002
3	0	4.416759988610283E+002	1.2536161E+000	-2.7039447E+002
3	0	4.421759988483973E+002	1.2533375E+000	-2.7038742E+002
3	0	4.426759988357662E+002	1.2531163E+000	-2.7038385E+002
3	0	4.431759988231352E+002	1.2529116E+000	-2.7038385E+002
3	0	4.436759988105041E+002	1.2526923E+000	-2.7038385E+002
3	0	4.441759987978730E+002	1.2524685E+000	-2.7036972E+002
3	0	4.446759987852420E+002	1.2522471E+000	-2.7037326E+002
3	0	4.451759987726109E+002	1.2519836E+000	-2.7037677E+002
3	0	4.456759987599798E+002	1.2516546E+000	-2.7035205E+002
3	0	4.461759987473488E+002	1.2512883E+000	-2.7034851E+002
3	0	4.466759987347177E+002	1.2509924E+000	-2.7038031E+002
3	0	4.471759987220867E+002	1.2506816E+000	-2.7039447E+002
3	0	4.476759987094556E+002	1.2503765E+000	-2.7037677E+002
3	0	4.481759986968245E+002	1.2500519E+000	-2.7038031E+002
3	0	4.486759986841935E+002	1.2497400E+000	-2.7037677E+002
3	0	4.491759986715624E+002	1.2493902E+000	-2.7039447E+002
3	0	4.496759986589313E+002	1.2489735E+000	-2.7036267E+002
3	0	4.501759986463003E+002	1.2485099E+000	-2.7037326E+002
3	0	4.506759986336692E+002	1.2481197E+000	-2.7039801E+002
3	0	4.511759986210382E+002	1.2477263E+000	-2.7035913E+002
3	0	4.516759986084071E+002	1.2473296E+000	-2.7038031E+002
3	0	4.521759985957760E+002	1.2469194E+000	-2.7037677E+002
3	0	4.526759985831450E+002	1.2465085E+000	-2.7039801E+002
3	0	4.527005985825235E+002	1.2462920E+000	-2.7039093E+002