EC-Lab ASCII FILE
Nb header lines : 48                          

Open Circuit Voltage

Run on channel : 1 (SN 81504)
User : 
CE vs. WE compliance from -10 V to 10 V
Electrode connection : standard
Potential control : Ewe
Ewe ctrl range : min = -2.50 V, max = 2.50 V
Safety Limits :
	Do not start on E overload
Acquisition started on : 05/07/2026 23:27:51.851
Loaded Setting File :  C:\PEM-WE_measurements\2026\372_IV_IV IrOx, 5 min Pt, 30 min C, etched cathode\new station\Loopeis new\1,46 V different time gaps open cell\Loopeis 1,46V_180s_2_PEIS from 65kHz to 10kHz.mps
Saved on :
	File : L_27_Loopeis 1,46V_180s_2_PEIS from 65kHz to 10kHz_08_OCV_C01.mpr
	Directory : C:\PEM-WE_measurements\2026\372_IV_IV IrOx, 5 min Pt, 30 min C, etched cathode\new station\Loopeis new\1,46 V different time gaps open cell\
	Host : 192.168.0.2
Device : SP-150e (SN .005491)
Address : 192.168.0.91
EC-LAB for windows v11.71 (software)
Internet server v28.00 (firmware)
Command interpretor v14.01 (firmware)
Electrode material : 
Initial state : 
Electrolyte : 
Comments : 
Current amplifier : SP-150eB-20A
Electrode surface area : 0.001 cm²
Characteristic mass : 0.001 g
Equivalent Weight : 0.000 g/eq.
Density : 0.000 g/cm3
Volume (V) : 0.001 cm³
Record Analogic IN 1
Text export
   Mode : Standard
   Time format : Elapsed
Cycle Definition : Charge/Discharge alternance
tR (h:m:s)          0:03:0.0000         
dER/dt (mV/h)       1.0                 
record              <Ewe>               
dER (mV)            10.00               
dtR (s)             0.5000              
E range min (V)     -2.500              
E range max (V)     2.500               

mode	error	time/s	<Ewe/V>	Analog IN 1/V	
3	0	7.214111883925943E+002	9.3374431E-001	-7.2477276E-005
3	0	7.219111883799633E+002	1.1271942E+000	4.2035979E-005
3	0	7.224111883673322E+002	7.4638504E-001	-1.4881945E-004
3	0	7.229111883547012E+002	3.8774744E-001	4.2035979E-005
3	0	7.234111883420701E+002	3.2112688E-001	-9.1562819E-005
3	0	7.239111883294390E+002	3.1176886E-001	-7.2477276E-005
3	0	7.244111883168080E+002	3.0523688E-001	-5.3391734E-005
3	0	7.249111883041769E+002	2.9982471E-001	-1.1064836E-004
3	0	7.254111882915458E+002	2.9558703E-001	-1.6790499E-004
3	0	7.259111882789148E+002	2.9226676E-001	-3.4306191E-005
3	0	7.264111882662837E+002	2.8960460E-001	-3.4306191E-005
3	0	7.269111882536527E+002	2.8745422E-001	-1.4881945E-004
3	0	7.274111882410216E+002	2.8567678E-001	-5.3391734E-005
3	0	7.279111882283905E+002	2.8417024E-001	-7.2477276E-005
3	0	7.284111882157595E+002	2.8285965E-001	-5.3391734E-005
3	0	7.289111882031284E+002	2.8170943E-001	-3.4306191E-005
3	0	7.294111881904973E+002	2.8066877E-001	6.1121522E-005
3	0	7.299111881778663E+002	2.7971274E-001	-7.2477276E-005
3	0	7.304111881652352E+002	2.7881408E-001	3.8648941E-006
3	0	7.309111881526042E+002	2.7798012E-001	-9.1562819E-005
3	0	7.314111881399731E+002	2.7722809E-001	-5.3391734E-005
3	0	7.319111881273420E+002	2.7652031E-001	-1.5220648E-005
3	0	7.324111881147110E+002	2.7584115E-001	-1.5220648E-005
3	0	7.329111881020799E+002	2.7518362E-001	-2.2516162E-004
3	0	7.334111880894488E+002	2.7456218E-001	-3.4306191E-005
3	0	7.339111880768178E+002	2.7393842E-001	-5.3391734E-005
3	0	7.344111880641867E+002	2.7331403E-001	-1.5220648E-005
3	0	7.349111880515557E+002	2.7269790E-001	-9.1562819E-005
3	0	7.354111880389246E+002	2.7214175E-001	-1.2973390E-004
3	0	7.359111880262935E+002	2.7159414E-001	3.8648941E-006
3	0	7.364111880136625E+002	2.7105412E-001	-1.2973390E-004
3	0	7.369111880010314E+002	2.7052140E-001	-1.5220648E-005
3	0	7.374111879884003E+002	2.6998988E-001	-1.2973390E-004
3	0	7.379111879757693E+002	2.6946336E-001	-7.2477276E-005
3	0	7.384111879631382E+002	2.6890951E-001	-3.4306191E-005
3	0	7.389111879505072E+002	2.6837695E-001	-9.1562819E-005
3	0	7.394111879378761E+002	2.6788285E-001	-1.5220648E-005
3	0	7.399111879252450E+002	2.6739568E-001	8.0207064E-005
3	0	7.404111879126140E+002	2.6691186E-001	-1.1064836E-004
3	0	7.409111878999829E+002	2.6642758E-001	8.0207064E-005
3	0	7.414111878873518E+002	2.6595590E-001	-9.1562819E-005
3	0	7.419111878747208E+002	2.6547602E-001	2.2950437E-005
3	0	7.424111878620897E+002	2.6496971E-001	-9.1562819E-005
3	0	7.429111878494587E+002	2.6448148E-001	-9.1562819E-005
3	0	7.434111878368276E+002	2.6403084E-001	-3.4306191E-005
3	0	7.439111878241965E+002	2.6359057E-001	-7.2477276E-005
3	0	7.444111878115655E+002	2.6314446E-001	-5.3391734E-005
3	0	7.449111877989344E+002	2.6270241E-001	3.8648941E-006
3	0	7.454111877863033E+002	2.6225817E-001	-1.5220648E-005
3	0	7.459111877736723E+002	2.6180726E-001	2.2950437E-005
3	0	7.464111877610412E+002	2.6133817E-001	-5.3391734E-005
3	0	7.469111877484102E+002	2.6088446E-001	-9.1562819E-005
3	0	7.474111877357791E+002	2.6046613E-001	1.1837815E-004
3	0	7.479111877231480E+002	2.6005033E-001	-1.4881945E-004
3	0	7.484111877105170E+002	2.5963986E-001	3.8648941E-006
3	0	7.489111876978859E+002	2.5923368E-001	-1.5220648E-005
3	0	7.494111876852548E+002	2.5882676E-001	-1.4881945E-004
3	0	7.499111876726238E+002	2.5840691E-001	-9.1562819E-005
3	0	7.504111876599927E+002	2.5796950E-001	-7.2477276E-005
3	0	7.509111876473617E+002	2.5754356E-001	-7.2477276E-005
3	0	7.514111876347306E+002	2.5715744E-001	-7.2477276E-005
3	0	7.519111876220995E+002	2.5678000E-001	3.8648941E-006
3	0	7.524111876094685E+002	2.5640312E-001	-3.4306191E-005
3	0	7.529111875968374E+002	2.5602379E-001	-1.5220648E-005
3	0	7.534111875842063E+002	2.5564653E-001	-2.0607607E-004
3	0	7.539111875715753E+002	2.5525969E-001	-7.2477276E-005
3	0	7.544111875589442E+002	2.5485954E-001	1.3746369E-004
3	0	7.549111875463132E+002	2.5446886E-001	-5.3391734E-005
3	0	7.554111875336821E+002	2.5411570E-001	-7.2477276E-005
3	0	7.559111875210510E+002	2.5375721E-001	-3.4306191E-005
3	0	7.564111875084200E+002	2.5340658E-001	4.2035979E-005
3	0	7.569111874957889E+002	2.5305712E-001	-9.1562819E-005
3	0	7.574111874831578E+002	2.5270426E-001	2.2950437E-005
3	0	7.579111874705268E+002	2.5234187E-001	-3.4306191E-005
3	0	7.584111874578957E+002	2.5196752E-001	3.8648941E-006
3	0	7.589111874452647E+002	2.5160775E-001	-1.1064836E-004
3	0	7.594111874326336E+002	2.5128573E-001	-1.4881945E-004
3	0	7.599111874200025E+002	2.5096697E-001	-1.6790499E-004
3	0	7.604111874073715E+002	2.5064632E-001	-1.4881945E-004
3	0	7.609111873947404E+002	2.5033173E-001	6.1121522E-005
3	0	7.614111873821093E+002	2.5001448E-001	2.2950437E-005
3	0	7.619111873694783E+002	2.4968795E-001	-5.3391734E-005
3	0	7.624111873568472E+002	2.4933830E-001	-1.5220648E-005
3	0	7.629111873442162E+002	2.4901007E-001	-9.1562819E-005
3	0	7.634111873315851E+002	2.4871217E-001	9.9292607E-005
3	0	7.639111873189540E+002	2.4841608E-001	-7.2477276E-005
3	0	7.644111873063230E+002	2.4811883E-001	-7.2477276E-005
3	0	7.649111872936919E+002	2.4782647E-001	-1.1064836E-004
3	0	7.654111872810608E+002	2.4753524E-001	4.2035979E-005
3	0	7.659111872684298E+002	2.4722950E-001	-3.4306191E-005
3	0	7.664111872557987E+002	2.4691477E-001	-1.2973390E-004
3	0	7.669111872431677E+002	2.4660729E-001	-1.1064836E-004
3	0	7.674111872305366E+002	2.4633776E-001	-9.1562819E-005
3	0	7.679111872179055E+002	2.4606524E-001	-1.2973390E-004
3	0	7.684111872052745E+002	2.4579482E-001	-1.1064836E-004
3	0	7.689111871926434E+002	2.4552533E-001	-1.8699054E-004
3	0	7.694111871800123E+002	2.4525535E-001	-7.2477276E-005
3	0	7.699111871673813E+002	2.4496827E-001	6.1121522E-005
3	0	7.704111871547502E+002	2.4466471E-001	-3.4306191E-005
3	0	7.709111871421192E+002	2.4438047E-001	-1.2973390E-004
3	0	7.714111871294881E+002	2.4413177E-001	-5.3391734E-005
3	0	7.719111871168570E+002	2.4389119E-001	-5.3391734E-005
3	0	7.724111871042260E+002	2.4364083E-001	3.8648941E-006
3	0	7.729111870915949E+002	2.4339637E-001	-7.2477276E-005
3	0	7.734111870789638E+002	2.4315484E-001	-9.1562819E-005
3	0	7.739111870663328E+002	2.4289922E-001	4.2035979E-005
3	0	7.744111870537017E+002	2.4261579E-001	2.2950437E-005
3	0	7.749111870410707E+002	2.4235074E-001	-1.5220648E-005
3	0	7.754111870284396E+002	2.4212523E-001	-3.4306191E-005
3	0	7.759111870158085E+002	2.4190997E-001	-2.2516162E-004
3	0	7.764111870031775E+002	2.4168390E-001	-5.3391734E-005
3	0	7.769111869905464E+002	2.4146327E-001	6.1121522E-005
3	0	7.774111869779153E+002	2.4123566E-001	-1.5220648E-005
3	0	7.779111869652843E+002	2.4099572E-001	-1.8699054E-004
3	0	7.784111869526532E+002	2.4073820E-001	6.1121522E-005
3	0	7.789111869400222E+002	2.4050021E-001	-5.3391734E-005
3	0	7.794111869273911E+002	2.4029340E-001	-1.1064836E-004
3	0	7.799111869147600E+002	2.4009994E-001	-7.2477276E-005
3	0	7.804111869021290E+002	2.3989628E-001	-1.2973390E-004
3	0	7.809111868894979E+002	2.3968905E-001	-7.2477276E-005
3	0	7.814111868768669E+002	2.3948370E-001	-1.1064836E-004
3	0	7.819111868642358E+002	2.3926222E-001	4.2035979E-005
3	0	7.824111868516047E+002	2.3902567E-001	4.2035979E-005
3	0	7.829111868389737E+002	2.3880102E-001	-5.3391734E-005
3	0	7.834111868263426E+002	2.3861061E-001	4.2035979E-005
3	0	7.839111868137115E+002	2.3842166E-001	-9.1562819E-005
3	0	7.844111868010805E+002	2.3823661E-001	3.8648941E-006
3	0	7.849111867884494E+002	2.3804815E-001	-1.5220648E-005
3	0	7.854111867758184E+002	2.3786058E-001	9.9292607E-005
3	0	7.859111867631873E+002	2.3765898E-001	-3.4306191E-005
3	0	7.864111867505562E+002	2.3743455E-001	-1.8699054E-004
3	0	7.869111867379252E+002	2.3722747E-001	-9.1562819E-005
3	0	7.874111867252941E+002	2.3706007E-001	-5.3391734E-005
3	0	7.879111867126630E+002	2.3688228E-001	-1.5220648E-005
3	0	7.884111867000320E+002	2.3670605E-001	-1.1064836E-004
3	0	7.889111866874009E+002	2.3652850E-001	-7.2477276E-005
3	0	7.894111866747699E+002	2.3635449E-001	-3.4306191E-005
3	0	7.899111866621388E+002	2.3616117E-001	3.8648941E-006
3	0	7.904111866495077E+002	2.3594882E-001	-3.4306191E-005
3	0	7.909111866368767E+002	2.3575726E-001	-3.4306191E-005
3	0	7.914111866242456E+002	2.3560372E-001	-7.2477276E-005
3	0	7.919111866116145E+002	2.3544249E-001	6.1121522E-005
3	0	7.924111865989835E+002	2.3528156E-001	-5.3391734E-005
3	0	7.929111865863524E+002	2.3511988E-001	-1.5220648E-005
3	0	7.934111865737214E+002	2.3495997E-001	-1.4881945E-004
3	0	7.939111865610903E+002	2.3478100E-001	-5.3391734E-005
3	0	7.944111865484592E+002	2.3458961E-001	-9.1562819E-005
3	0	7.949111865358282E+002	2.3441054E-001	-9.1562819E-005
3	0	7.954111865231971E+002	2.3427226E-001	3.8648941E-006
3	0	7.959111865105660E+002	2.3412798E-001	-5.3391734E-005
3	0	7.964111864979350E+002	2.3398365E-001	-1.6790499E-004
3	0	7.969111864853039E+002	2.3383419E-001	-3.4306191E-005
3	0	7.974111864726729E+002	2.3368271E-001	3.8648941E-006
3	0	7.979111864600418E+002	2.3351952E-001	4.2035979E-005
3	0	7.984111864474107E+002	2.3333690E-001	8.0207064E-005
3	0	7.989111864347797E+002	2.3317127E-001	-1.5220648E-005
3	0	7.994111864221486E+002	2.3304655E-001	-1.1064836E-004
3	0	7.999111864095175E+002	2.3291072E-001	3.8648941E-006
3	0	8.004111863968865E+002	2.3276800E-001	-1.5220648E-005
3	0	8.009111863842554E+002	2.3263188E-001	-7.2477276E-005
3	0	8.014111863716244E+002	2.3249696E-001	-9.1562819E-005
3	0	8.019111863589933E+002	2.3234095E-001	-3.4306191E-005
3	0	8.024111863463622E+002	2.3217283E-001	4.2035979E-005
3	0	8.029111863337312E+002	2.3201327E-001	3.8648941E-006
3	0	8.034111863211001E+002	2.3189740E-001	-5.3391734E-005
3	0	8.039111863084690E+002	2.3176603E-001	-7.2477276E-005
3	0	8.044111862958380E+002	2.3164418E-001	-1.1064836E-004
3	0	8.049111862832069E+002	2.3151363E-001	-3.4306191E-005
3	0	8.054111862705759E+002	2.3139049E-001	-1.1064836E-004
3	0	8.059111862579448E+002	2.3124954E-001	-7.2477276E-005
3	0	8.064111862453137E+002	2.3108722E-001	3.8648941E-006
3	0	8.069111862326827E+002	2.3093754E-001	-1.5220648E-005
3	0	8.074111862200516E+002	2.3082803E-001	-5.3391734E-005
3	0	8.079111862074205E+002	2.3070836E-001	-7.2477276E-005
3	0	8.084111861947895E+002	2.3058701E-001	-1.1064836E-004
3	0	8.089111861821584E+002	2.3047283E-001	4.2035979E-005
3	0	8.094111861695274E+002	2.3034979E-001	-1.1064836E-004
3	0	8.099111861568963E+002	2.3020965E-001	-3.4306191E-005
3	0	8.104111861442652E+002	2.3005326E-001	-9.1562819E-005
3	0	8.109111861316342E+002	2.2990714E-001	-1.8699054E-004
3	0	8.114111861190031E+002	2.2979903E-001	-3.4306191E-005
3	0	8.119111861063720E+002	2.2968334E-001	-9.1562819E-005
3	0	8.124111860937410E+002	2.2957022E-001	-3.4306191E-005
3	0	8.129111860811099E+002	2.2946212E-001	3.8648941E-006
3	0	8.134111860684789E+002	2.2935082E-001	-5.3391734E-005
3	0	8.139111860558478E+002	2.2922574E-001	3.8648941E-006
3	0	8.144111860432167E+002	2.2908229E-001	-3.4306191E-005
3	0	8.149111860305857E+002	2.2894782E-001	-1.1064836E-004
3	0	8.154111860179546E+002	2.2884601E-001	-1.8699054E-004
3	0	8.159111860053235E+002	2.2874261E-001	9.9292607E-005
3	0	8.164111859926925E+002	2.2863773E-001	3.8648941E-006
3	0	8.169111859800614E+002	2.2853786E-001	-3.4306191E-005
3	0	8.174111859674304E+002	2.2842860E-001	3.8648941E-006
3	0	8.179111859547993E+002	2.2831216E-001	3.8648941E-006
3	0	8.184111859421682E+002	2.2817597E-001	-9.1562819E-005
3	0	8.189111859295372E+002	2.2804797E-001	-1.5220648E-005
3	0	8.194111859169061E+002	2.2796567E-001	-3.4306191E-005
3	0	8.199111859042750E+002	2.2786671E-001	6.1121522E-005
3	0	8.204111858916440E+002	2.2777040E-001	-9.1562819E-005
3	0	8.209111858790129E+002	2.2767615E-001	-1.4881945E-004
3	0	8.214111858663819E+002	2.2758175E-001	-1.5220648E-005
3	0	8.219111858537508E+002	2.2746791E-001	2.2950437E-005
3	0	8.224111858411197E+002	2.2733243E-001	-3.4306191E-005
3	0	8.229111858284887E+002	2.2720663E-001	-7.2477276E-005
3	0	8.234111858158576E+002	2.2712469E-001	-7.2477276E-005
3	0	8.239111858032265E+002	2.2703184E-001	-3.4306191E-005
3	0	8.244111857905955E+002	2.2694413E-001	-5.3391734E-005
3	0	8.249111857779644E+002	2.2685231E-001	-9.1562819E-005
3	0	8.254111857653334E+002	2.2676417E-001	-9.1562819E-005
3	0	8.259111857527023E+002	2.2665212E-001	-1.4881945E-004
3	0	8.264111857400712E+002	2.2651984E-001	4.2035979E-005
3	0	8.269111857274402E+002	2.2639808E-001	-5.3391734E-005
3	0	8.274111857148091E+002	2.2631249E-001	-5.3391734E-005
3	0	8.279111857021780E+002	2.2622357E-001	-1.1064836E-004
3	0	8.284111856895470E+002	2.2613244E-001	3.8648941E-006
3	0	8.289111856769159E+002	2.2604100E-001	2.2950437E-005
3	0	8.294111856642849E+002	2.2594793E-001	-7.2477276E-005
3	0	8.299111856516538E+002	2.2583400E-001	-9.1562819E-005
3	0	8.304111856390227E+002	2.2570026E-001	-7.2477276E-005
3	0	8.309111856263917E+002	2.2558558E-001	-7.2477276E-005
3	0	8.314111856137606E+002	2.2551346E-001	-3.4306191E-005
3	0	8.319111856011295E+002	2.2542205E-001	3.8648941E-006
3	0	8.324111855884985E+002	2.2534010E-001	8.0207064E-005
3	0	8.329111855758674E+002	2.2525601E-001	3.8648941E-006
3	0	8.334111855632364E+002	2.2516464E-001	-3.4306191E-005
3	0	8.339111855506053E+002	2.2506136E-001	-1.5220648E-005
3	0	8.344111855379742E+002	2.2494158E-001	9.9292607E-005
3	0	8.349111855253432E+002	2.2483511E-001	2.2950437E-005
3	0	8.354111855127121E+002	2.2476424E-001	8.0207064E-005
3	0	8.359111855000810E+002	2.2468363E-001	3.8648941E-006
3	0	8.364111854874500E+002	2.2460893E-001	4.2035979E-005
3	0	8.369111854748189E+002	2.2453082E-001	-9.1562819E-005
3	0	8.374111854621879E+002	2.2445020E-001	-3.4306191E-005
3	0	8.379111854495568E+002	2.2435336E-001	-1.1064836E-004
3	0	8.384111854369257E+002	2.2423382E-001	8.0207064E-005
3	0	8.389111854242947E+002	2.2413160E-001	-3.4306191E-005
3	0	8.394111854116636E+002	2.2406195E-001	-2.0607607E-004
3	0	8.399111853990325E+002	2.2398683E-001	-1.5220648E-005
3	0	8.404111853864015E+002	2.2391322E-001	9.9292607E-005
3	0	8.409111853737704E+002	2.2384106E-001	-9.1562819E-005
3	0	8.414111853611394E+002	2.2376637E-001	-5.3391734E-005
3	0	8.419111853485083E+002	2.2367613E-001	3.8648941E-006
3	0	8.424111853358772E+002	2.2356796E-001	1.3746369E-004
3	0	8.429111853232462E+002	2.2346520E-001	-9.1562819E-005
3	0	8.434111853106151E+002	2.2340572E-001	-3.4306191E-005
3	0	8.439111852979840E+002	2.2333837E-001	8.0207064E-005
3	0	8.444111852853530E+002	2.2326739E-001	3.8648941E-006
3	0	8.449111852727219E+002	2.2320126E-001	-9.1562819E-005
3	0	8.454111852600909E+002	2.2312875E-001	-7.2477276E-005
3	0	8.459111852474598E+002	2.2303888E-001	-1.5220648E-005
3	0	8.464111852348287E+002	2.2292958E-001	-1.6790499E-004
3	0	8.469111852221977E+002	2.2282952E-001	-9.1562819E-005
3	0	8.474111852095666E+002	2.2277193E-001	-1.4881945E-004
3	0	8.479111851969355E+002	2.2270112E-001	-1.6790499E-004
3	0	8.484111851843045E+002	2.2263312E-001	-3.4306191E-005
3	0	8.489111851716734E+002	2.2256427E-001	-7.2477276E-005
3	0	8.494111851590424E+002	2.2249484E-001	-9.1562819E-005
3	0	8.499111851464113E+002	2.2240628E-001	-1.2973390E-004
3	0	8.504111851337802E+002	2.2229449E-001	-3.4306191E-005
3	0	8.509111851211492E+002	2.2219767E-001	-3.4306191E-005
3	0	8.514111851085181E+002	2.2213215E-001	3.8648941E-006
3	0	8.519111850958870E+002	2.2206688E-001	-9.1562819E-005
3	0	8.524111850832560E+002	2.2199923E-001	-9.1562819E-005
3	0	8.529111850706249E+002	2.2193532E-001	4.2035979E-005
3	0	8.534111850579939E+002	2.2186974E-001	-7.2477276E-005
3	0	8.539111850453628E+002	2.2178411E-001	-1.2973390E-004
3	0	8.544111850327317E+002	2.2167532E-001	-5.3391734E-005
3	0	8.549111850201007E+002	2.2158641E-001	-5.3391734E-005
3	0	8.554111850074696E+002	2.2153665E-001	-3.4306191E-005
3	0	8.559111849948386E+002	2.2148027E-001	8.0207064E-005
3	0	8.564111849822075E+002	2.2142413E-001	-9.1562819E-005
3	0	8.569111849695764E+002	2.2136520E-001	2.2950437E-005
3	0	8.574111849569454E+002	2.2130387E-001	8.0207064E-005
3	0	8.579111849443143E+002	2.2122511E-001	-9.1562819E-005
3	0	8.584111849316832E+002	2.2112635E-001	6.1121522E-005
3	0	8.589111849190522E+002	2.2103521E-001	-3.4306191E-005
3	0	8.594111849064211E+002	2.2098722E-001	-5.3391734E-005
3	0	8.599111848937901E+002	2.2092962E-001	-1.5220648E-005
3	0	8.604111848811590E+002	2.2087115E-001	-7.2477276E-005
3	0	8.609111848685279E+002	2.2081397E-001	-1.4881945E-004
3	0	8.614111848558969E+002	2.2075175E-001	6.1121522E-005
3	0	8.619111848432658E+002	2.2068357E-001	-1.2973390E-004
3	0	8.624111848306347E+002	2.2058219E-001	-3.4306191E-005
3	0	8.629111848180037E+002	2.2049774E-001	-7.2477276E-005
3	0	8.634111848053726E+002	2.2045375E-001	-3.4306191E-005
3	0	8.639111847927416E+002	2.2039762E-001	-5.3391734E-005
3	0	8.644111847801105E+002	2.2034618E-001	-7.2477276E-005
3	0	8.649111847674794E+002	2.2029549E-001	-9.1562819E-005
3	0	8.654111847548484E+002	2.2024083E-001	-5.3391734E-005
3	0	8.659111847422173E+002	2.2016144E-001	-1.2973390E-004
3	0	8.664111847295862E+002	2.2006759E-001	-3.4306191E-005
3	0	8.669111847169552E+002	2.1998005E-001	3.8648941E-006
3	0	8.674111847043241E+002	2.1993792E-001	-5.3391734E-005
3	0	8.679111846916931E+002	2.1988358E-001	-1.5220648E-005
3	0	8.684111846790620E+002	2.1983194E-001	3.8648941E-006
3	0	8.689111846664309E+002	2.1977653E-001	-7.2477276E-005
3	0	8.694111846537999E+002	2.1972105E-001	-1.2973390E-004
3	0	8.699111846411688E+002	2.1964134E-001	-7.2477276E-005
3	0	8.704111846285377E+002	2.1953492E-001	-3.4306191E-005
3	0	8.709111846159067E+002	2.1944723E-001	-3.4306191E-005
3	0	8.714111846032756E+002	2.1939906E-001	-3.4306191E-005
3	0	8.719111845906446E+002	2.1934202E-001	-9.1562819E-005
3	0	8.724111845780135E+002	2.1928951E-001	-9.1562819E-005
3	0	8.729111845653824E+002	2.1923497E-001	-9.1562819E-005
3	0	8.734111845527514E+002	2.1918556E-001	-5.3391734E-005
3	0	8.739111845401203E+002	2.1911590E-001	-1.5220648E-005
3	0	8.744111845274892E+002	2.1901962E-001	6.1121522E-005
3	0	8.749111845148582E+002	2.1893644E-001	-1.4881945E-004
3	0	8.754111845022271E+002	2.1889244E-001	-1.5220648E-005
3	0	8.759111844895961E+002	2.1884295E-001	3.8648941E-006
3	0	8.764111844769650E+002	2.1879533E-001	-1.8699054E-004
3	0	8.769111844643339E+002	2.1874443E-001	-3.4306191E-005
3	0	8.774111844517029E+002	2.1868937E-001	3.8648941E-006
3	0	8.779111844390718E+002	2.1862589E-001	4.2035979E-005
3	0	8.784111844264407E+002	2.1853617E-001	-1.4881945E-004
3	0	8.789111844138097E+002	2.1845949E-001	1.7563478E-004
3	0	8.794111844011786E+002	2.1842250E-001	4.2035979E-005
3	0	8.799111843885476E+002	2.1837929E-001	4.2035979E-005
3	0	8.804111843759165E+002	2.1833521E-001	-9.1562819E-005
3	0	8.809111843632854E+002	2.1828672E-001	-1.8699054E-004
3	0	8.814111843506544E+002	2.1824124E-001	9.9292607E-005
3	0	8.819111843380233E+002	2.1815997E-001	-3.4306191E-005
3	0	8.824111843253922E+002	2.1806476E-001	-1.5220648E-005
3	0	8.829111843127612E+002	2.1798150E-001	-7.2477276E-005
3	0	8.834111843001301E+002	2.1793889E-001	6.1121522E-005
3	0	8.839111842874991E+002	2.1788999E-001	8.0207064E-005
3	0	8.844111842748680E+002	2.1784241E-001	-3.4306191E-005
3	0	8.849111842622369E+002	2.1779342E-001	-1.2973390E-004
3	0	8.854111842496059E+002	2.1774025E-001	-1.2973390E-004
3	0	8.859111842369748E+002	2.1767035E-001	2.2950437E-005
3	0	8.864111842243437E+002	2.1757860E-001	-1.8699054E-004
3	0	8.869111842117127E+002	2.1750212E-001	-7.2477276E-005
3	0	8.874111841990816E+002	2.1746182E-001	4.2035979E-005
3	0	8.879111841864506E+002	2.1741003E-001	4.2035979E-005
3	0	8.884111841738195E+002	2.1736243E-001	-7.2477276E-005
3	0	8.889111841611884E+002	2.1731524E-001	-9.1562819E-005
3	0	8.894111841485574E+002	2.1726793E-001	2.2950437E-005
3	0	8.899111841359263E+002	2.1720353E-001	4.2035979E-005
3	0	8.904111841232952E+002	2.1711227E-001	-7.2477276E-005
3	0	8.909111841106642E+002	2.1703583E-001	-3.4306191E-005
3	0	8.914111840980331E+002	2.1699271E-001	-1.2973390E-004
3	0	8.919111840854021E+002	2.1694535E-001	-1.4881945E-004
3	0	8.924111840727710E+002	2.1689703E-001	-1.2973390E-004
3	0	8.929111840601399E+002	2.1685047E-001	-5.3391734E-005
3	0	8.934111840475089E+002	2.1679562E-001	-1.1064836E-004
3	0	8.939111840348778E+002	2.1673109E-001	-1.4881945E-004
3	0	8.944111840222467E+002	2.1664225E-001	9.9292607E-005
3	0	8.949111840096157E+002	2.1657172E-001	2.2950437E-005
3	0	8.954111839969846E+002	2.1653597E-001	6.1121522E-005
3	0	8.959111839843536E+002	2.1649271E-001	-9.1562819E-005
3	0	8.964111839717225E+002	2.1644616E-001	-3.4306191E-005
3	0	8.969111839590914E+002	2.1640882E-001	4.2035979E-005
3	0	8.974111839464604E+002	2.1635990E-001	-3.4306191E-005
3	0	8.979111839338293E+002	2.1629722E-001	1.1837815E-004
3	0	8.984111839211982E+002	2.1621442E-001	2.2950437E-005
3	0	8.989111839085672E+002	2.1614203E-001	-1.8699054E-004
3	0	8.994111838959361E+002	2.1611094E-001	-3.4306191E-005
3	0	8.999111838833051E+002	2.1607281E-001	-3.4306191E-005
3	0	9.004111838706740E+002	2.1603560E-001	-5.3391734E-005
3	0	9.009111838580429E+002	2.1599396E-001	-7.2477276E-005
3	0	9.009457838571689E+002	2.1597362E-001	-1.6790499E-004