EC-Lab ASCII FILE
Nb header lines : 55                          

Open Circuit Voltage

Run on channel : 1 (SN 81504)
User : 
CE vs. WE compliance from -10 V to 10 V
Electrode connection : standard
Potential control : Ewe
Ewe ctrl range : min = -2.50 V, max = 2.50 V
Safety Limits :
	Do not start on E overload
Acquisition started on : 05/07/2026 19:27:13.907
Loaded Setting File :  C:\PEM-WE_measurements\2026\372_IV_IV IrOx, 5 min Pt, 30 min C, etched cathode\new station\Loopeis new\1,46 V different time gaps open cell\Loopeis 1,46V_90s_4_PEIS from 650Hz to 100Hz.mps
Saved on :
	File : L_19_Loopeis 1,46V_90s_4_PEIS from 650Hz to 100Hz_20_OCV_C01.mpr
	Directory : C:\PEM-WE_measurements\2026\372_IV_IV IrOx, 5 min Pt, 30 min C, etched cathode\new station\Loopeis new\1,46 V different time gaps open cell\
	Host : 192.168.0.2
Device : SP-150e (SN .005491)
Address : 192.168.0.91
EC-LAB for windows v11.71 (software)
Internet server v28.00 (firmware)
Command interpretor v14.01 (firmware)
Electrode material : 
Initial state : 
Electrolyte : 
Comments : 
Current amplifier : SP-150eB-20A
Electrode surface area : 0.001 cm²
Characteristic mass : 0.001 g
Equivalent Weight : 0.000 g/eq.
Density : 0.000 g/cm3
Volume (V) : 0.001 cm³
Record Analogic IN 1
Text export
   Mode : Standard
   Time format : Elapsed
Cycle Definition : Charge/Discharge alternance
External device configuration :
   device type : Temperature Probe
   device name : Other
   Analog IN 1 : 
      unit : T/Â°C
      max : 100.000 at 2.000 V
      min : 0.000 at 1.460 V
tR (h:m:s)          0:01:30.0000        
dER/dt (mV/h)       1.0                 
record              <Ewe>               
dER (mV)            10.00               
dtR (s)             0.5000              
E range min (V)     -2.500              
E range max (V)     2.500               

mode	error	time/s	<Ewe/V>	Analog IN 1/V	
3	0	1.270435585001105E+003	1.0244234E+000	-2.7037677E+002
3	0	1.270935584988474E+003	1.1972204E+000	-2.7040506E+002
3	0	1.271435584975843E+003	1.1145222E+000	-2.7041568E+002
3	0	1.271935584963212E+003	8.6258435E-001	-2.7038385E+002
3	0	1.272435584950581E+003	4.3454236E-001	-2.7036972E+002
3	0	1.272935584937950E+003	3.1060150E-001	-2.7040155E+002
3	0	1.273435584925319E+003	2.9775500E-001	-2.7038031E+002
3	0	1.273935584912688E+003	2.9110837E-001	-2.7036972E+002
3	0	1.274435584900057E+003	2.8526491E-001	-2.7039801E+002
3	0	1.274935584887426E+003	2.8057194E-001	-2.7036972E+002
3	0	1.275435584874795E+003	2.7693725E-001	-2.7038031E+002
3	0	1.275935584862164E+003	2.7408403E-001	-2.7036618E+002
3	0	1.276435584849532E+003	2.7180594E-001	-2.7036267E+002
3	0	1.276935584836901E+003	2.6993594E-001	-2.7036267E+002
3	0	1.277435584824270E+003	2.6837561E-001	-2.7038031E+002
3	0	1.277935584811639E+003	2.6706293E-001	-2.7037677E+002
3	0	1.278435584799008E+003	2.6591340E-001	-2.7039447E+002
3	0	1.278935584786377E+003	2.6490003E-001	-2.7038742E+002
3	0	1.279435584773746E+003	2.6399401E-001	-2.7039447E+002
3	0	1.279935584761115E+003	2.6314318E-001	-2.7037326E+002
3	0	1.280435584748484E+003	2.6232481E-001	-2.7036972E+002
3	0	1.280935584735853E+003	2.6158002E-001	-2.7037677E+002
3	0	1.281435584723222E+003	2.6087829E-001	-2.7036972E+002
3	0	1.281935584710591E+003	2.6023951E-001	-2.7040155E+002
3	0	1.282435584697960E+003	2.5963625E-001	-2.7038031E+002
3	0	1.282935584685329E+003	2.5904247E-001	-2.7037326E+002
3	0	1.283435584672698E+003	2.5845975E-001	-2.7038031E+002
3	0	1.283935584660067E+003	2.5788233E-001	-2.7036972E+002
3	0	1.284435584647435E+003	2.5730425E-001	-2.7038742E+002
3	0	1.284935584634804E+003	2.5671813E-001	-2.7037677E+002
3	0	1.285435584622173E+003	2.5615245E-001	-2.7037326E+002
3	0	1.285935584609542E+003	2.5563020E-001	-2.7037326E+002
3	0	1.286435584596911E+003	2.5511366E-001	-2.7035559E+002
3	0	1.286935584584280E+003	2.5460649E-001	-2.7035205E+002
3	0	1.287435584571649E+003	2.5409633E-001	-2.7038031E+002
3	0	1.287935584559018E+003	2.5358826E-001	-2.7037326E+002
3	0	1.288435584546387E+003	2.5307047E-001	-2.7035559E+002
3	0	1.288935584533756E+003	2.5253782E-001	-2.7037326E+002
3	0	1.289435584521125E+003	2.5201139E-001	-2.7036267E+002
3	0	1.289935584508494E+003	2.5152889E-001	-2.7038742E+002
3	0	1.290435584495863E+003	2.5105545E-001	-2.7039093E+002
3	0	1.290935584483232E+003	2.5058001E-001	-2.7035913E+002
3	0	1.291435584470601E+003	2.5010744E-001	-2.7038742E+002
3	0	1.291935584457970E+003	2.4963714E-001	-2.7039447E+002
3	0	1.292435584445338E+003	2.4915192E-001	-2.7038385E+002
3	0	1.292935584432707E+003	2.4864708E-001	-2.7039447E+002
3	0	1.293435584420076E+003	2.4815245E-001	-2.7038031E+002
3	0	1.293935584407445E+003	2.4769923E-001	-2.7038031E+002
3	0	1.294435584394814E+003	2.4724825E-001	-2.7036267E+002
3	0	1.294935584382183E+003	2.4679518E-001	-2.7037326E+002
3	0	1.295435584369552E+003	2.4635290E-001	-2.7036618E+002
3	0	1.295935584356921E+003	2.4590826E-001	-2.7039801E+002
3	0	1.296435584344290E+003	2.4545570E-001	-2.7036972E+002
3	0	1.296935584331659E+003	2.4497800E-001	-2.7036618E+002
3	0	1.297435584319028E+003	2.4450660E-001	-2.7038385E+002
3	0	1.297935584306397E+003	2.4407981E-001	-2.7036972E+002
3	0	1.298435584293766E+003	2.4365172E-001	-2.7036267E+002
3	0	1.298935584281135E+003	2.4322762E-001	-2.7034851E+002
3	0	1.299435584268504E+003	2.4280727E-001	-2.7038385E+002
3	0	1.299935584255873E+003	2.4238370E-001	-2.7036972E+002
3	0	1.300435584243241E+003	2.4195465E-001	-2.7037677E+002
3	0	1.300935584230610E+003	2.4151310E-001	-2.7038031E+002
3	0	1.301435584217979E+003	2.4107133E-001	-2.7035913E+002
3	0	1.301935584205348E+003	2.4067667E-001	-2.7038742E+002
3	0	1.302435584192717E+003	2.4028558E-001	-2.7039093E+002
3	0	1.302935584180086E+003	2.3989674E-001	-2.7040506E+002
3	0	1.303435584167455E+003	2.3950741E-001	-2.7036972E+002
3	0	1.303935584154824E+003	2.3911737E-001	-2.7036972E+002
3	0	1.304435584142193E+003	2.3871605E-001	-2.7035205E+002
3	0	1.304935584129562E+003	2.3830438E-001	-2.7039093E+002
3	0	1.305435584116931E+003	2.3789488E-001	-2.7037677E+002
3	0	1.305935584104300E+003	2.3752384E-001	-2.7034851E+002
3	0	1.306435584091669E+003	2.3716138E-001	-2.7038031E+002
3	0	1.306935584079038E+003	2.3679745E-001	-2.7037677E+002
3	0	1.307435584066407E+003	2.3643780E-001	-2.7035205E+002
3	0	1.307935584053776E+003	2.3607440E-001	-2.7039093E+002
3	0	1.308435584041144E+003	2.3570441E-001	-2.7036972E+002
3	0	1.308935584028513E+003	2.3532711E-001	-2.7038385E+002
3	0	1.309435584015882E+003	2.3494464E-001	-2.7039447E+002
3	0	1.309935584003251E+003	2.3460925E-001	-2.7036267E+002
3	0	1.310435583990620E+003	2.3427843E-001	-2.7039447E+002
3	0	1.310935583977989E+003	2.3394342E-001	-2.7037677E+002
3	0	1.311435583965358E+003	2.3360343E-001	-2.7036972E+002
3	0	1.311935583952727E+003	2.3327234E-001	-2.7039093E+002
3	0	1.312435583940096E+003	2.3293382E-001	-2.7036972E+002
3	0	1.312935583927465E+003	2.3256774E-001	-2.7037677E+002
3	0	1.313435583914834E+003	2.3221476E-001	-2.7038742E+002
3	0	1.313935583902203E+003	2.3190236E-001	-2.7040155E+002
3	0	1.314435583889572E+003	2.3160258E-001	-2.7038385E+002
3	0	1.314935583876941E+003	2.3129408E-001	-2.7038385E+002
3	0	1.315435583864310E+003	2.3099090E-001	-2.7039801E+002
3	0	1.315935583851679E+003	2.3068924E-001	-2.7041214E+002
3	0	1.316435583839047E+003	2.3037343E-001	-2.7037326E+002
3	0	1.316935583826416E+003	2.3002964E-001	-2.7038031E+002
3	0	1.317435583813785E+003	2.2970109E-001	-2.7038031E+002
3	0	1.317935583801154E+003	2.2941874E-001	-2.7038385E+002
3	0	1.318435583788523E+003	2.2914022E-001	-2.7039093E+002
3	0	1.318935583775892E+003	2.2885761E-001	-2.7038742E+002
3	0	1.319435583763261E+003	2.2857034E-001	-2.7036267E+002
3	0	1.319935583750630E+003	2.2828680E-001	-2.7036618E+002
3	0	1.320435583737999E+003	2.2799918E-001	-2.7038742E+002
3	0	1.320935583725368E+003	2.2768536E-001	-2.7038031E+002
3	0	1.321435583712737E+003	2.2738087E-001	-2.7038385E+002
3	0	1.321935583700106E+003	2.2712135E-001	-2.7039801E+002
3	0	1.322435583687475E+003	2.2687128E-001	-2.7037677E+002
3	0	1.322935583674844E+003	2.2662035E-001	-2.7038742E+002
3	0	1.323435583662213E+003	2.2636342E-001	-2.7037326E+002
3	0	1.323935583649582E+003	2.2610125E-001	-2.7037677E+002
3	0	1.324435583636950E+003	2.2583224E-001	-2.7038742E+002
3	0	1.324935583624319E+003	2.2554991E-001	-2.7035205E+002
3	0	1.325435583611688E+003	2.2527842E-001	-2.7037677E+002
3	0	1.325935583599057E+003	2.2503956E-001	-2.7036618E+002
3	0	1.326435583586426E+003	2.2481984E-001	-2.7038031E+002
3	0	1.326935583573795E+003	2.2458956E-001	-2.7040506E+002
3	0	1.327435583561164E+003	2.2435665E-001	-2.7039801E+002
3	0	1.327935583548533E+003	2.2412223E-001	-2.7036972E+002
3	0	1.328435583535902E+003	2.2386876E-001	-2.7039447E+002
3	0	1.328935583523271E+003	2.2360529E-001	-2.7040155E+002
3	0	1.329435583510640E+003	2.2335048E-001	-2.7035205E+002
3	0	1.329935583498009E+003	2.2313239E-001	-2.7036618E+002
3	0	1.330435583485378E+003	2.2292438E-001	-2.7036618E+002
3	0	1.330935583472747E+003	2.2270353E-001	-2.7037677E+002
3	0	1.331435583460116E+003	2.2249188E-001	-2.7037677E+002
3	0	1.331935583447485E+003	2.2228290E-001	-2.7035913E+002
3	0	1.332435583434853E+003	2.2206335E-001	-2.7038385E+002
3	0	1.332935583422222E+003	2.2181676E-001	-2.7037326E+002
3	0	1.333435583409591E+003	2.2157572E-001	-2.7036618E+002
3	0	1.333935583396960E+003	2.2137743E-001	-2.7038385E+002
3	0	1.334435583384329E+003	2.2118971E-001	-2.7037677E+002
3	0	1.334935583371698E+003	2.2099887E-001	-2.7037326E+002
3	0	1.335435583359067E+003	2.2080234E-001	-2.7035913E+002
3	0	1.335935583346436E+003	2.2060856E-001	-2.7038031E+002
3	0	1.336435583333805E+003	2.2040553E-001	-2.7039447E+002
3	0	1.336935583321174E+003	2.2017650E-001	-2.7035913E+002
3	0	1.337435583308543E+003	2.1995282E-001	-2.7036972E+002
3	0	1.337935583295912E+003	2.1976961E-001	-2.7036618E+002
3	0	1.338435583283281E+003	2.1959724E-001	-2.7037677E+002
3	0	1.338935583270650E+003	2.1941805E-001	-2.7036618E+002
3	0	1.339435583258019E+003	2.1923873E-001	-2.7038742E+002
3	0	1.339935583245388E+003	2.1905974E-001	-2.7037326E+002
3	0	1.340435583232756E+003	2.1886490E-001	-2.7038742E+002
3	0	1.340935583220125E+003	2.1865079E-001	-2.7039447E+002
3	0	1.341435583207494E+003	2.1844500E-001	-2.7036618E+002
3	0	1.341935583194863E+003	2.1828105E-001	-2.7040506E+002
3	0	1.342435583182232E+003	2.1812010E-001	-2.7037326E+002
3	0	1.342935583169601E+003	2.1795943E-001	-2.7036972E+002
3	0	1.343435583156970E+003	2.1779896E-001	-2.7040155E+002
3	0	1.343935583144339E+003	2.1763556E-001	-2.7038031E+002
3	0	1.344435583131708E+003	2.1745242E-001	-2.7035913E+002
3	0	1.344935583119077E+003	2.1725684E-001	-2.7036618E+002
3	0	1.345435583106446E+003	2.1706745E-001	-2.7036972E+002
3	0	1.345935583093815E+003	2.1691862E-001	-2.7036972E+002
3	0	1.346435583081184E+003	2.1676573E-001	-2.7035205E+002
3	0	1.346935583068553E+003	2.1661732E-001	-2.7039447E+002
3	0	1.347435583055922E+003	2.1646701E-001	-2.7036618E+002
3	0	1.347935583043291E+003	2.1631117E-001	-2.7038031E+002
3	0	1.348435583030659E+003	2.1614237E-001	-2.7037326E+002
3	0	1.348935583018028E+003	2.1595953E-001	-2.7037677E+002
3	0	1.349435583005397E+003	2.1578690E-001	-2.7037677E+002
3	0	1.349935582992766E+003	2.1565111E-001	-2.7038031E+002
3	0	1.350435582980135E+003	2.1552300E-001	-2.7038031E+002
3	0	1.350935582967504E+003	2.1538526E-001	-2.7039447E+002
3	0	1.351435582954873E+003	2.1525151E-001	-2.7039093E+002
3	0	1.351935582942242E+003	2.1511222E-001	-2.7037677E+002
3	0	1.352435582929611E+003	2.1495560E-001	-2.7038742E+002
3	0	1.352935582916980E+003	2.1478139E-001	-2.7036972E+002
3	0	1.353435582904349E+003	2.1461976E-001	-2.7037326E+002
3	0	1.353935582891718E+003	2.1449813E-001	-2.7038385E+002
3	0	1.354435582879087E+003	2.1437609E-001	-2.7037677E+002
3	0	1.354935582866456E+003	2.1424989E-001	-2.7037677E+002
3	0	1.355435582853825E+003	2.1411999E-001	-2.7039801E+002
3	0	1.355935582841194E+003	2.1399322E-001	-2.7039093E+002
3	0	1.356435582828562E+003	2.1385340E-001	-2.7039447E+002
3	0	1.356935582815931E+003	2.1369213E-001	-2.7038031E+002
3	0	1.357435582803300E+003	2.1353029E-001	-2.7038742E+002
3	0	1.357935582790669E+003	2.1341781E-001	-2.7038742E+002
3	0	1.358435582778038E+003	2.1330589E-001	-2.7037326E+002
3	0	1.358935582765407E+003	2.1318553E-001	-2.7036618E+002
3	0	1.359435582752776E+003	2.1306036E-001	-2.7038742E+002
3	0	1.359935582740145E+003	2.1293993E-001	-2.7040506E+002
3	0	1.359960182739524E+003	2.1286197E-001	-2.7037326E+002