EC-Lab ASCII FILE
Nb header lines : 55                          

Open Circuit Voltage

Run on channel : 1 (SN 81504)
User : 
CE vs. WE compliance from -10 V to 10 V
Electrode connection : standard
Potential control : Ewe
Ewe ctrl range : min = -2.50 V, max = 2.50 V
Safety Limits :
	Do not start on E overload
Acquisition started on : 05/10/2026 00:56:49.563
Loaded Setting File :  C:\PEM-WE_measurements\2026\372_IV_IV IrOx, 5 min Pt, 30 min C, etched cathode\new station\Loopeis new\1,46 V different time gaps closed cell\Loopeis 1,46V_45s_3_PEIS from 6500Hz to 1000Hz.mps
Saved on :
	File : L_08_Loopeis 1,46V_45s_3_PEIS from 6500Hz to 1000Hz_12_OCV_C01.mpr
	Directory : C:\PEM-WE_measurements\2026\372_IV_IV IrOx, 5 min Pt, 30 min C, etched cathode\new station\Loopeis new\1,46 V different time gaps closed cell\
	Host : 192.168.0.2
Device : SP-150e (SN .005491)
Address : 192.168.0.91
EC-LAB for windows v11.71 (software)
Internet server v28.00 (firmware)
Command interpretor v14.01 (firmware)
Electrode material : 
Initial state : 
Electrolyte : 
Comments : 
Current amplifier : SP-150eB-20A
Electrode surface area : 0.001 cm²
Characteristic mass : 0.001 g
Equivalent Weight : 0.000 g/eq.
Density : 0.000 g/cm3
Volume (V) : 0.001 cm³
Record Analogic IN 1
Text export
   Mode : Standard
   Time format : Elapsed
Cycle Definition : Charge/Discharge alternance
External device configuration :
   device type : Temperature Probe
   device name : Other
   Analog IN 1 : 
      unit : T/Â°C
      max : 100.000 at 2.000 V
      min : 0.000 at 1.460 V
tR (h:m:s)          0:00:45.0000        
dER/dt (mV/h)       1.0                 
record              <Ewe>               
dER (mV)            10.00               
dtR (s)             0.5000              
E range min (V)     -2.500              
E range max (V)     2.500               

mode	error	time/s	<Ewe/V>	Analog IN 1/V	
3	0	4.989359974698164E+002	1.2080815E+000	-2.7039093E+002
3	0	4.994359974571853E+002	1.2545176E+000	-2.7036972E+002
3	0	4.999359974445542E+002	1.2588909E+000	-2.7037677E+002
3	0	5.004359974319232E+002	1.2615470E+000	-2.7039093E+002
3	0	5.009359974192921E+002	1.2633504E+000	-2.7037326E+002
3	0	5.014359974066610E+002	1.2646308E+000	-2.7039093E+002
3	0	5.019359973940300E+002	1.2656469E+000	-2.7038385E+002
3	0	5.024359973813989E+002	1.2664759E+000	-2.7038385E+002
3	0	5.029359973687679E+002	1.2671441E+000	-2.7036618E+002
3	0	5.034359973561368E+002	1.2676725E+000	-2.7039093E+002
3	0	5.039359973435057E+002	1.2680924E+000	-2.7038742E+002
3	0	5.044359973308747E+002	1.2684221E+000	-2.7038742E+002
3	0	5.049359973182436E+002	1.2686282E+000	-2.7036618E+002
3	0	5.054359973056125E+002	1.2687285E+000	-2.7037677E+002
3	0	5.059359972929815E+002	1.2688617E+000	-2.7038031E+002
3	0	5.064359972803504E+002	1.2689971E+000	-2.7036972E+002
3	0	5.069359972677194E+002	1.2691153E+000	-2.7038742E+002
3	0	5.074359972550883E+002	1.2692028E+000	-2.7036972E+002
3	0	5.079359972424572E+002	1.2692661E+000	-2.7036267E+002
3	0	5.084359972298262E+002	1.2693008E+000	-2.7039093E+002
3	0	5.089359972171951E+002	1.2692646E+000	-2.7037677E+002
3	0	5.094359972045640E+002	1.2691594E+000	-2.7038031E+002
3	0	5.099359971919330E+002	1.2691035E+000	-2.7038385E+002
3	0	5.104359971793019E+002	1.2691021E+000	-2.7038385E+002
3	0	5.109359971666709E+002	1.2690881E+000	-2.7038385E+002
3	0	5.114359971540398E+002	1.2690551E+000	-2.7039447E+002
3	0	5.119359971414087E+002	1.2690130E+000	-2.7038031E+002
3	0	5.124359971287777E+002	1.2689439E+000	-2.7037677E+002
3	0	5.129359971161466E+002	1.2688136E+000	-2.7038385E+002
3	0	5.134359971035155E+002	1.2686204E+000	-2.7038385E+002
3	0	5.139359970908845E+002	1.2684752E+000	-2.7037326E+002
3	0	5.144359970782534E+002	1.2683872E+000	-2.7039447E+002
3	0	5.149359970656224E+002	1.2682962E+000	-2.7038742E+002
3	0	5.154359970529913E+002	1.2681923E+000	-2.7036972E+002
3	0	5.159359970403602E+002	1.2680779E+000	-2.7035913E+002
3	0	5.164359970277292E+002	1.2679423E+000	-2.7038742E+002
3	0	5.169359970150981E+002	1.2677431E+000	-2.7038385E+002
3	0	5.174359970024670E+002	1.2674850E+000	-2.7038385E+002
3	0	5.179359969898360E+002	1.2672873E+000	-2.7039447E+002
3	0	5.184359969772049E+002	1.2671282E+000	-2.7037326E+002
3	0	5.189359969645739E+002	1.2669799E+000	-2.7038742E+002
3	0	5.194359969519428E+002	1.2668138E+000	-2.7036972E+002
3	0	5.199359969393117E+002	1.2666472E+000	-2.7038385E+002
3	0	5.204359969266807E+002	1.2664680E+000	-2.7037677E+002
3	0	5.209359969140496E+002	1.2662297E+000	-2.7037326E+002
3	0	5.214359969014185E+002	1.2659127E+000	-2.7036972E+002
3	0	5.219359968887875E+002	1.2656544E+000	-2.7038742E+002
3	0	5.224359968761564E+002	1.2654375E+000	-2.7038742E+002
3	0	5.229359968635254E+002	1.2652246E+000	-2.7038031E+002
3	0	5.234359968508943E+002	1.2650009E+000	-2.7038031E+002
3	0	5.239359968382632E+002	1.2647816E+000	-2.7037326E+002
3	0	5.244359968256322E+002	1.2645456E+000	-2.7037326E+002
3	0	5.249359968130011E+002	1.2642649E+000	-2.7035913E+002
3	0	5.254359968003700E+002	1.2639248E+000	-2.7035913E+002
3	0	5.259359967877390E+002	1.2636478E+000	-2.7037326E+002
3	0	5.264359967751079E+002	1.2634352E+000	-2.7036618E+002
3	0	5.269359967624769E+002	1.2632358E+000	-2.7039447E+002
3	0	5.274359967498458E+002	1.2630317E+000	-2.7038742E+002
3	0	5.279359967372147E+002	1.2628382E+000	-2.7039447E+002
3	0	5.284359967245837E+002	1.2626204E+000	-2.7036267E+002
3	0	5.289359967119526E+002	1.2623596E+000	-2.7037677E+002
3	0	5.294359966993215E+002	1.2620234E+000	-2.7038742E+002
3	0	5.299359966866905E+002	1.2617500E+000	-2.7036618E+002
3	0	5.304359966740594E+002	1.2615342E+000	-2.7037677E+002
3	0	5.309359966614284E+002	1.2613184E+000	-2.7039801E+002
3	0	5.314359966487973E+002	1.2610983E+000	-2.7038031E+002
3	0	5.319359966361662E+002	1.2608770E+000	-2.7038031E+002
3	0	5.324359966235352E+002	1.2606344E+000	-2.7038385E+002
3	0	5.329359966109041E+002	1.2603389E+000	-2.7036267E+002
3	0	5.334359965982731E+002	1.2599715E+000	-2.7038742E+002
3	0	5.339359965856420E+002	1.2596623E+000	-2.7038385E+002
3	0	5.344359965730109E+002	1.2594122E+000	-2.7038742E+002
3	0	5.349359965603799E+002	1.2591560E+000	-2.7038742E+002
3	0	5.354359965477488E+002	1.2588847E+000	-2.7037677E+002
3	0	5.359359965351177E+002	1.2586128E+000	-2.7038742E+002
3	0	5.364359965224867E+002	1.2583281E+000	-2.7036267E+002
3	0	5.369359965098556E+002	1.2579743E+000	-2.7036972E+002
3	0	5.374359964972246E+002	1.2575634E+000	-2.7039093E+002
3	0	5.379359964845935E+002	1.2572027E+000	-2.7038385E+002
3	0	5.384359964719624E+002	1.2569032E+000	-2.7036267E+002
3	0	5.389359964593314E+002	1.2566078E+000	-2.7038031E+002
3	0	5.394359964467003E+002	1.2563014E+000	-2.7037677E+002
3	0	5.399359964340692E+002	1.2560008E+000	-2.7036972E+002
3	0	5.404359964214382E+002	1.2556782E+000	-2.7036267E+002
3	0	5.409359964088071E+002	1.2552953E+000	-2.7038385E+002
3	0	5.414359963961761E+002	1.2548460E+000	-2.7038742E+002
3	0	5.419359963835450E+002	1.2544442E+000	-2.7038742E+002
3	0	5.424359963709139E+002	1.2541040E+000	-2.7038742E+002
3	0	5.429359963582829E+002	1.2537540E+000	-2.7036618E+002
3	0	5.434359963456518E+002	1.2534112E+000	-2.7035559E+002
3	0	5.434605963450304E+002	1.2532285E+000	-2.7040155E+002