EC-Lab ASCII FILE
Nb header lines : 48                          

Open Circuit Voltage

Run on channel : 1 (SN 81504)
User : 
CE vs. WE compliance from -10 V to 10 V
Electrode connection : standard
Potential control : Ewe
Ewe ctrl range : min = -2.50 V, max = 2.50 V
Safety Limits :
	Do not start on E overload
Acquisition started on : 05/07/2026 23:27:51.851
Loaded Setting File :  C:\PEM-WE_measurements\2026\372_IV_IV IrOx, 5 min Pt, 30 min C, etched cathode\new station\Loopeis new\1,46 V different time gaps open cell\Loopeis 1,46V_180s_2_PEIS from 65kHz to 10kHz.mps
Saved on :
	File : L_27_Loopeis 1,46V_180s_2_PEIS from 65kHz to 10kHz_20_OCV_C01.mpr
	Directory : C:\PEM-WE_measurements\2026\372_IV_IV IrOx, 5 min Pt, 30 min C, etched cathode\new station\Loopeis new\1,46 V different time gaps open cell\
	Host : 192.168.0.2
Device : SP-150e (SN .005491)
Address : 192.168.0.91
EC-LAB for windows v11.71 (software)
Internet server v28.00 (firmware)
Command interpretor v14.01 (firmware)
Electrode material : 
Initial state : 
Electrolyte : 
Comments : 
Current amplifier : SP-150eB-20A
Electrode surface area : 0.001 cm²
Characteristic mass : 0.001 g
Equivalent Weight : 0.000 g/eq.
Density : 0.000 g/cm3
Volume (V) : 0.001 cm³
Record Analogic IN 1
Text export
   Mode : Standard
   Time format : Elapsed
Cycle Definition : Charge/Discharge alternance
tR (h:m:s)          0:03:0.0000         
dER/dt (mV/h)       1.0                 
record              <Ewe>               
dER (mV)            10.00               
dtR (s)             0.5000              
E range min (V)     -2.500              
E range max (V)     2.500               

mode	error	time/s	<Ewe/V>	Analog IN 1/V	
3	0	2.074293140810172E+003	9.3360192E-001	3.8648941E-006
3	0	2.074793140797541E+003	1.1300110E+000	-1.2973390E-004
3	0	2.075293140784910E+003	7.5313568E-001	-1.5220648E-005
3	0	2.075793140772279E+003	3.9036122E-001	-2.6333271E-004
3	0	2.076293140759648E+003	3.2226241E-001	-5.3391734E-005
3	0	2.076793140747017E+003	3.1272972E-001	6.1121522E-005
3	0	2.077293140734386E+003	3.0616823E-001	-1.2973390E-004
3	0	2.077793140721755E+003	3.0072674E-001	-1.8699054E-004
3	0	2.078293140709124E+003	2.9646567E-001	6.1121522E-005
3	0	2.078793140696493E+003	2.9314557E-001	-3.4306191E-005
3	0	2.079293140683862E+003	2.9049307E-001	-1.2973390E-004
3	0	2.079793140671231E+003	2.8833887E-001	2.2950437E-005
3	0	2.080293140658599E+003	2.8654370E-001	-3.4306191E-005
3	0	2.080793140645968E+003	2.8500670E-001	-9.1562819E-005
3	0	2.081293140633337E+003	2.8366119E-001	-7.2477276E-005
3	0	2.081793140620706E+003	2.8245535E-001	-7.2477276E-005
3	0	2.082293140608075E+003	2.8140357E-001	-1.2973390E-004
3	0	2.082793140595444E+003	2.8046045E-001	-7.2477276E-005
3	0	2.083293140582813E+003	2.7960211E-001	-1.2973390E-004
3	0	2.083793140570182E+003	2.7879766E-001	-9.1562819E-005
3	0	2.084293140557551E+003	2.7803993E-001	-1.6790499E-004
3	0	2.084793140544920E+003	2.7731857E-001	-1.2973390E-004
3	0	2.085293140532289E+003	2.7660993E-001	-5.3391734E-005
3	0	2.085793140519658E+003	2.7590942E-001	2.2950437E-005
3	0	2.086293140507027E+003	2.7526471E-001	2.2950437E-005
3	0	2.086793140494396E+003	2.7465951E-001	-7.2477276E-005
3	0	2.087293140481765E+003	2.7407509E-001	-1.2973390E-004
3	0	2.087793140469134E+003	2.7349776E-001	-1.6790499E-004
3	0	2.088293140456502E+003	2.7293286E-001	3.8648941E-006
3	0	2.088793140443871E+003	2.7237406E-001	-3.4306191E-005
3	0	2.089293140431240E+003	2.7180904E-001	-7.2477276E-005
3	0	2.089793140418609E+003	2.7122703E-001	8.0207064E-005
3	0	2.090293140405978E+003	2.7069241E-001	-1.2973390E-004
3	0	2.090793140393347E+003	2.7017355E-001	-1.6790499E-004
3	0	2.091293140380716E+003	2.6967430E-001	-5.3391734E-005
3	0	2.091793140368085E+003	2.6917997E-001	4.2035979E-005
3	0	2.092293140355454E+003	2.6868126E-001	-5.3391734E-005
3	0	2.092793140342823E+003	2.6818651E-001	-1.2973390E-004
3	0	2.093293140330192E+003	2.6767921E-001	-1.5220648E-005
3	0	2.093793140317561E+003	2.6715857E-001	-2.0607607E-004
3	0	2.094293140304930E+003	2.6667142E-001	3.8648941E-006
3	0	2.094793140292299E+003	2.6619741E-001	-1.5220648E-005
3	0	2.095293140279668E+003	2.6573247E-001	1.3746369E-004
3	0	2.095793140267037E+003	2.6527172E-001	-1.5220648E-005
3	0	2.096293140254405E+003	2.6481456E-001	-7.2477276E-005
3	0	2.096793140241774E+003	2.6436159E-001	-7.2477276E-005
3	0	2.097293140229143E+003	2.6388529E-001	-1.1064836E-004
3	0	2.097793140216512E+003	2.6340255E-001	3.8648941E-006
3	0	2.098293140203881E+003	2.6295167E-001	-1.1064836E-004
3	0	2.098793140191250E+003	2.6252380E-001	-9.1562819E-005
3	0	2.099293140178619E+003	2.6210004E-001	3.8648941E-006
3	0	2.099793140165988E+003	2.6167387E-001	-1.1064836E-004
3	0	2.100293140153357E+003	2.6125893E-001	-1.5220648E-005
3	0	2.100793140140726E+003	2.6083440E-001	9.9292607E-005
3	0	2.101293140128095E+003	2.6040128E-001	-1.4881945E-004
3	0	2.101793140115464E+003	2.5995159E-001	-1.2973390E-004
3	0	2.102293140102833E+003	2.5953975E-001	-7.2477276E-005
3	0	2.102793140090202E+003	2.5914299E-001	-9.1562819E-005
3	0	2.103293140077571E+003	2.5875646E-001	-7.2477276E-005
3	0	2.103793140064940E+003	2.5836140E-001	-2.0607607E-004
3	0	2.104293140052308E+003	2.5795290E-001	-7.2477276E-005
3	0	2.104793140039677E+003	2.5754660E-001	-5.3391734E-005
3	0	2.105293140027046E+003	2.5715226E-001	-2.0607607E-004
3	0	2.105793140014415E+003	2.5674927E-001	-1.1064836E-004
3	0	2.106293140001784E+003	2.5638407E-001	-1.5220648E-005
3	0	2.106793139989153E+003	2.5601974E-001	3.8648941E-006
3	0	2.107293139976522E+003	2.5565651E-001	3.8648941E-006
3	0	2.107793139963891E+003	2.5529411E-001	-1.5220648E-005
3	0	2.108293139951260E+003	2.5493997E-001	-9.1562819E-005
3	0	2.108793139938629E+003	2.5458419E-001	3.8648941E-006
3	0	2.109293139925998E+003	2.5421283E-001	-1.4881945E-004
3	0	2.109793139913367E+003	2.5382784E-001	3.8648941E-006
3	0	2.110293139900736E+003	2.5348726E-001	2.2950437E-005
3	0	2.110793139888105E+003	2.5314566E-001	-1.2973390E-004
3	0	2.111293139875474E+003	2.5280470E-001	4.2035979E-005
3	0	2.111793139862843E+003	2.5246590E-001	-5.3391734E-005
3	0	2.112293139850211E+003	2.5213116E-001	3.8648941E-006
3	0	2.112793139837580E+003	2.5179702E-001	-3.4306191E-005
3	0	2.113293139824949E+003	2.5144088E-001	-1.2973390E-004
3	0	2.113793139812318E+003	2.5108501E-001	2.2950437E-005
3	0	2.114293139799687E+003	2.5075871E-001	2.2950437E-005
3	0	2.114793139787056E+003	2.5045422E-001	-5.3391734E-005
3	0	2.115293139774425E+003	2.5013545E-001	-3.4306191E-005
3	0	2.115793139761794E+003	2.4983378E-001	-2.0607607E-004
3	0	2.116293139749163E+003	2.4952573E-001	-1.4881945E-004
3	0	2.116793139736532E+003	2.4922071E-001	-9.1562819E-005
3	0	2.117293139723901E+003	2.4888895E-001	-5.3391734E-005
3	0	2.117793139711270E+003	2.4855517E-001	-9.1562819E-005
3	0	2.118293139698639E+003	2.4825616E-001	-1.2973390E-004
3	0	2.118793139686008E+003	2.4797480E-001	9.9292607E-005
3	0	2.119293139673377E+003	2.4769507E-001	-9.1562819E-005
3	0	2.119793139660746E+003	2.4741188E-001	3.8648941E-006
3	0	2.120293139648114E+003	2.4712838E-001	-5.3391734E-005
3	0	2.120793139635483E+003	2.4684691E-001	2.2950437E-005
3	0	2.121293139622852E+003	2.4655667E-001	8.0207064E-005
3	0	2.121793139610221E+003	2.4624415E-001	3.8648941E-006
3	0	2.122293139597590E+003	2.4597751E-001	-1.4881945E-004
3	0	2.122793139584959E+003	2.4571693E-001	8.0207064E-005
3	0	2.123293139572328E+003	2.4546334E-001	-5.3391734E-005
3	0	2.123793139559697E+003	2.4521168E-001	-1.1064836E-004
3	0	2.124293139547066E+003	2.4495590E-001	3.8648941E-006
3	0	2.124793139534435E+003	2.4469356E-001	-1.4881945E-004
3	0	2.125293139521804E+003	2.4442108E-001	-7.2477276E-005
3	0	2.125793139509173E+003	2.4413434E-001	-1.2973390E-004
3	0	2.126293139496542E+003	2.4388863E-001	-1.1064836E-004
3	0	2.126793139483911E+003	2.4365360E-001	-1.5220648E-005
3	0	2.127293139471280E+003	2.4341825E-001	-3.4306191E-005
3	0	2.127793139458649E+003	2.4318826E-001	2.2950437E-005
3	0	2.128293139446017E+003	2.4295712E-001	3.8648941E-006
3	0	2.128793139433386E+003	2.4272031E-001	-1.2973390E-004
3	0	2.129293139420755E+003	2.4245732E-001	-7.2477276E-005
3	0	2.129793139408124E+003	2.4219047E-001	-1.5220648E-005
3	0	2.130293139395493E+003	2.4196431E-001	-9.1562819E-005
3	0	2.130793139382862E+003	2.4175216E-001	-7.2477276E-005
3	0	2.131293139370231E+003	2.4153376E-001	-9.1562819E-005
3	0	2.131793139357600E+003	2.4132277E-001	-1.5220648E-005
3	0	2.132293139344969E+003	2.4110590E-001	-7.2477276E-005
3	0	2.132793139332338E+003	2.4088761E-001	-5.3391734E-005
3	0	2.133293139319707E+003	2.4065349E-001	-1.1064836E-004
3	0	2.133793139307076E+003	2.4040225E-001	-1.6790499E-004
3	0	2.134293139294445E+003	2.4019970E-001	-1.1064836E-004
3	0	2.134793139281814E+003	2.4000303E-001	-1.2973390E-004
3	0	2.135293139269183E+003	2.3980382E-001	-1.2973390E-004
3	0	2.135793139256552E+003	2.3960412E-001	8.0207064E-005
3	0	2.136293139243920E+003	2.3940213E-001	-1.5220648E-005
3	0	2.136793139231289E+003	2.3919176E-001	-1.5220648E-005
3	0	2.137293139218658E+003	2.3896705E-001	-1.2973390E-004
3	0	2.137793139206027E+003	2.3873606E-001	2.2950437E-005
3	0	2.138293139193396E+003	2.3853581E-001	-1.5220648E-005
3	0	2.138793139180765E+003	2.3835687E-001	-3.4306191E-005
3	0	2.139293139168134E+003	2.3817445E-001	-3.4306191E-005
3	0	2.139793139155503E+003	2.3798905E-001	2.2950437E-005
3	0	2.140293139142872E+003	2.3780751E-001	-1.6790499E-004
3	0	2.140793139130241E+003	2.3762508E-001	-1.5220648E-005
3	0	2.141293139117610E+003	2.3741324E-001	-5.3391734E-005
3	0	2.141793139104979E+003	2.3719515E-001	2.2950437E-005
3	0	2.142293139092348E+003	2.3702113E-001	-5.3391734E-005
3	0	2.142793139079717E+003	2.3685294E-001	2.2950437E-005
3	0	2.143293139067086E+003	2.3668793E-001	8.0207064E-005
3	0	2.143793139054455E+003	2.3652557E-001	-1.5220648E-005
3	0	2.144293139041823E+003	2.3636054E-001	-7.2477276E-005
3	0	2.144793139029192E+003	2.3618509E-001	-1.2973390E-004
3	0	2.145293139016561E+003	2.3599298E-001	3.8648941E-006
3	0	2.145793139003930E+003	2.3579003E-001	-1.2973390E-004
3	0	2.146293138991299E+003	2.3562984E-001	-3.4306191E-005
3	0	2.146793138978668E+003	2.3548131E-001	-1.2973390E-004
3	0	2.147293138966037E+003	2.3532943E-001	-2.0607607E-004
3	0	2.147793138953406E+003	2.3517662E-001	-3.4306191E-005
3	0	2.148293138940775E+003	2.3502330E-001	3.8648941E-006
3	0	2.148793138928144E+003	2.3485844E-001	-1.5220648E-005
3	0	2.149293138915513E+003	2.3467396E-001	-1.1064836E-004
3	0	2.149793138902882E+003	2.3448536E-001	-1.5220648E-005
3	0	2.150293138890251E+003	2.3434114E-001	-1.2973390E-004
3	0	2.150793138877620E+003	2.3420873E-001	4.2035979E-005
3	0	2.151293138864989E+003	2.3407152E-001	-9.1562819E-005
3	0	2.151793138852358E+003	2.3393644E-001	1.1837815E-004
3	0	2.152293138839726E+003	2.3380023E-001	-7.2477276E-005
3	0	2.152793138827095E+003	2.3365360E-001	-1.6790499E-004
3	0	2.153293138814464E+003	2.3348549E-001	-3.4306191E-005
3	0	2.153793138801833E+003	2.3330694E-001	-1.5220648E-005
3	0	2.154293138789202E+003	2.3316324E-001	-9.1562819E-005
3	0	2.154793138776571E+003	2.3304015E-001	-7.2477276E-005
3	0	2.155293138763940E+003	2.3290570E-001	-5.3391734E-005
3	0	2.155793138751309E+003	2.3277687E-001	3.8648941E-006
3	0	2.156293138738678E+003	2.3264451E-001	-5.3391734E-005
3	0	2.156793138726047E+003	2.3250245E-001	-9.1562819E-005
3	0	2.157293138713416E+003	2.3233810E-001	-7.2477276E-005
3	0	2.157793138700785E+003	2.3216376E-001	-5.3391734E-005
3	0	2.158293138688154E+003	2.3202586E-001	-1.2973390E-004
3	0	2.158793138675523E+003	2.3190272E-001	-3.4306191E-005
3	0	2.159293138662892E+003	2.3177589E-001	-9.1562819E-005
3	0	2.159793138650261E+003	2.3164774E-001	-3.4306191E-005
3	0	2.160293138637629E+003	2.3152010E-001	-1.2973390E-004
3	0	2.160793138624998E+003	2.3138741E-001	-1.5220648E-005
3	0	2.161293138612367E+003	2.3122831E-001	-1.1064836E-004
3	0	2.161793138599736E+003	2.3106420E-001	1.3746369E-004
3	0	2.162293138587105E+003	2.3093890E-001	6.1121522E-005
3	0	2.162793138574474E+003	2.3082897E-001	-5.3391734E-005
3	0	2.163293138561843E+003	2.3071234E-001	-9.1562819E-005
3	0	2.163793138549212E+003	2.3059861E-001	-2.0607607E-004
3	0	2.164293138536581E+003	2.3048414E-001	-9.1562819E-005
3	0	2.164793138523950E+003	2.3036391E-001	4.2035979E-005
3	0	2.165293138511319E+003	2.3021308E-001	6.1121522E-005
3	0	2.165793138498688E+003	2.3005365E-001	-1.6790499E-004
3	0	2.166293138486057E+003	2.2993512E-001	-2.2516162E-004
3	0	2.166793138473426E+003	2.2982255E-001	-5.3391734E-005
3	0	2.167293138460795E+003	2.2971065E-001	-1.5220648E-005
3	0	2.167793138448164E+003	2.2960280E-001	-3.4306191E-005
3	0	2.168293138435532E+003	2.2949485E-001	-3.4306191E-005
3	0	2.168793138422901E+003	2.2937281E-001	-1.5220648E-005
3	0	2.169293138410270E+003	2.2923319E-001	8.0207064E-005
3	0	2.169793138397639E+003	2.2907889E-001	2.2950437E-005
3	0	2.170293138385008E+003	2.2897609E-001	-1.1064836E-004
3	0	2.170793138372377E+003	2.2889264E-001	8.0207064E-005
3	0	2.171293138359746E+003	2.2880079E-001	-1.4881945E-004
3	0	2.171793138347115E+003	2.2870497E-001	-1.1064836E-004
3	0	2.172293138334484E+003	2.2860721E-001	-7.2477276E-005
3	0	2.172793138321853E+003	2.2849828E-001	1.9472031E-004
3	0	2.173293138309222E+003	2.2837152E-001	-3.4306191E-005
3	0	2.173793138296591E+003	2.2823371E-001	-1.6790499E-004
3	0	2.174293138283960E+003	2.2813803E-001	3.8648941E-006
3	0	2.174793138271329E+003	2.2804573E-001	3.8648941E-006
3	0	2.175293138258698E+003	2.2794969E-001	-5.3391734E-005
3	0	2.175793138246067E+003	2.2785406E-001	-7.2477276E-005
3	0	2.176293138233435E+003	2.2772914E-001	-3.4306191E-005
3	0	2.176793138220804E+003	2.2763263E-001	6.1121522E-005
3	0	2.177293138208173E+003	2.2751825E-001	-1.5220648E-005
3	0	2.177793138195542E+003	2.2738558E-001	1.1837815E-004
3	0	2.178293138182911E+003	2.2729124E-001	-7.2477276E-005
3	0	2.178793138170280E+003	2.2720779E-001	-1.6790499E-004
3	0	2.179293138157649E+003	2.2710882E-001	-3.4306191E-005
3	0	2.179793138145018E+003	2.2701561E-001	-3.4306191E-005
3	0	2.180293138132387E+003	2.2692418E-001	-9.1562819E-005
3	0	2.180793138119756E+003	2.2682922E-001	-5.3391734E-005
3	0	2.181293138107125E+003	2.2670621E-001	-7.2477276E-005
3	0	2.181793138094494E+003	2.2657406E-001	-3.4306191E-005
3	0	2.182293138081863E+003	2.2648080E-001	-9.1562819E-005
3	0	2.182793138069232E+003	2.2639610E-001	-1.4881945E-004
3	0	2.183293138056601E+003	2.2630507E-001	-5.3391734E-005
3	0	2.183793138043970E+003	2.2621222E-001	-1.2973390E-004
3	0	2.184293138031338E+003	2.2612599E-001	-5.3391734E-005
3	0	2.184793138018707E+003	2.2603038E-001	-1.1064836E-004
3	0	2.185293138006076E+003	2.2591251E-001	6.1121522E-005
3	0	2.185793137993445E+003	2.2577859E-001	9.9292607E-005
3	0	2.186293137980814E+003	2.2568651E-001	-1.2973390E-004
3	0	2.186793137968183E+003	2.2561544E-001	-3.4306191E-005
3	0	2.187293137955552E+003	2.2553647E-001	-9.1562819E-005
3	0	2.187793137942921E+003	2.2545627E-001	-9.1562819E-005
3	0	2.188293137930290E+003	2.2538058E-001	-1.4881945E-004
3	0	2.188793137917659E+003	2.2529355E-001	-1.5220648E-005
3	0	2.189293137905028E+003	2.2518288E-001	6.1121522E-005
3	0	2.189793137892397E+003	2.2507469E-001	-1.5220648E-005
3	0	2.190293137879766E+003	2.2501080E-001	8.0207064E-005
3	0	2.190793137867135E+003	2.2494777E-001	-1.1064836E-004
3	0	2.191293137854504E+003	2.2488007E-001	-1.5220648E-005
3	0	2.191793137841873E+003	2.2480799E-001	-1.5220648E-005
3	0	2.192293137829241E+003	2.2473790E-001	-7.2477276E-005
3	0	2.192793137816610E+003	2.2465774E-001	-1.2973390E-004
3	0	2.193293137803979E+003	2.2456098E-001	-1.5220648E-005
3	0	2.193793137791348E+003	2.2443983E-001	-7.2477276E-005
3	0	2.194293137778717E+003	2.2436740E-001	8.0207064E-005
3	0	2.194793137766086E+003	2.2429955E-001	-1.2973390E-004
3	0	2.195293137753455E+003	2.2421707E-001	-2.0607607E-004
3	0	2.195793137740824E+003	2.2414418E-001	-1.5220648E-005
3	0	2.196293137728193E+003	2.2406417E-001	-7.2477276E-005
3	0	2.196793137715562E+003	2.2397743E-001	-7.2477276E-005
3	0	2.197293137702931E+003	2.2386976E-001	-5.3391734E-005
3	0	2.197793137690300E+003	2.2375077E-001	-1.2973390E-004
3	0	2.198293137677669E+003	2.2366761E-001	6.1121522E-005
3	0	2.198793137665038E+003	2.2359772E-001	1.5654923E-004
3	0	2.199293137652407E+003	2.2352591E-001	-9.1562819E-005
3	0	2.199793137639776E+003	2.2344989E-001	-1.5220648E-005
3	0	2.200293137627144E+003	2.2337294E-001	-1.8699054E-004
3	0	2.200793137614513E+003	2.2328456E-001	-7.2477276E-005
3	0	2.201293137601882E+003	2.2318448E-001	6.1121522E-005
3	0	2.201793137589251E+003	2.2306439E-001	3.8648941E-006
3	0	2.202293137576620E+003	2.2300580E-001	-2.0607607E-004
3	0	2.202793137563989E+003	2.2295943E-001	-1.8699054E-004
3	0	2.203293137551358E+003	2.2289494E-001	3.8648941E-006
3	0	2.203793137538727E+003	2.2282974E-001	-7.2477276E-005
3	0	2.204293137526096E+003	2.2276883E-001	2.2950437E-005
3	0	2.204793137513465E+003	2.2270098E-001	3.8648941E-006
3	0	2.205293137500834E+003	2.2261366E-001	-7.2477276E-005
3	0	2.205793137488203E+003	2.2250991E-001	2.2950437E-005
3	0	2.206293137475572E+003	2.2244591E-001	-9.1562819E-005
3	0	2.206793137462941E+003	2.2239447E-001	-1.2973390E-004
3	0	2.207293137450310E+003	2.2233221E-001	-1.1064836E-004
3	0	2.207793137437679E+003	2.2227567E-001	-7.2477276E-005
3	0	2.208293137425047E+003	2.2221898E-001	-1.1064836E-004
3	0	2.208793137412416E+003	2.2214989E-001	-1.1064836E-004
3	0	2.209293137399785E+003	2.2206324E-001	-3.4306191E-005
3	0	2.209793137387154E+003	2.2196068E-001	-1.5220648E-005
3	0	2.210293137374523E+003	2.2189739E-001	9.9292607E-005
3	0	2.210793137361892E+003	2.2184667E-001	4.2035979E-005
3	0	2.211293137349261E+003	2.2178674E-001	2.2950437E-005
3	0	2.211793137336630E+003	2.2172980E-001	8.0207064E-005
3	0	2.212293137323999E+003	2.2167474E-001	-1.1064836E-004
3	0	2.212793137311368E+003	2.2161084E-001	-5.3391734E-005
3	0	2.213293137298737E+003	2.2152027E-001	-2.2516162E-004
3	0	2.213793137286106E+003	2.2142103E-001	-1.5220648E-005
3	0	2.214293137273475E+003	2.2135632E-001	2.2950437E-005
3	0	2.214793137260844E+003	2.2130612E-001	-3.4306191E-005
3	0	2.215293137248213E+003	2.2124688E-001	6.1121522E-005
3	0	2.215793137235582E+003	2.2119127E-001	-7.2477276E-005
3	0	2.216293137222950E+003	2.2113185E-001	-7.2477276E-005
3	0	2.216793137210319E+003	2.2107103E-001	3.8648941E-006
3	0	2.217293137197688E+003	2.2098385E-001	4.2035979E-005
3	0	2.217793137185057E+003	2.2088209E-001	-3.4306191E-005
3	0	2.218293137172426E+003	2.2081371E-001	-1.1064836E-004
3	0	2.218793137159795E+003	2.2076043E-001	-1.4881945E-004
3	0	2.219293137147164E+003	2.2069970E-001	-2.4424717E-004
3	0	2.219793137134533E+003	2.2064291E-001	-5.3391734E-005
3	0	2.220293137121902E+003	2.2058351E-001	1.9472031E-004
3	0	2.220793137109271E+003	2.2051957E-001	4.2035979E-005
3	0	2.221293137096640E+003	2.2042716E-001	-1.2973390E-004
3	0	2.221793137084009E+003	2.2032811E-001	-1.4881945E-004
3	0	2.222293137071378E+003	2.2026281E-001	2.2950437E-005
3	0	2.222793137058747E+003	2.2021487E-001	9.9292607E-005
3	0	2.223293137046116E+003	2.2016194E-001	-7.2477276E-005
3	0	2.223793137033485E+003	2.2011341E-001	-1.4881945E-004
3	0	2.224293137020853E+003	2.2005628E-001	-7.2477276E-005
3	0	2.224793137008222E+003	2.1999523E-001	2.2950437E-005
3	0	2.225293136995591E+003	2.1990645E-001	-3.4306191E-005
3	0	2.225793136982960E+003	2.1980850E-001	-1.2973390E-004
3	0	2.226293136970329E+003	2.1975003E-001	2.2950437E-005
3	0	2.226793136957698E+003	2.1970704E-001	-9.1562819E-005
3	0	2.227293136945067E+003	2.1965499E-001	-3.4306191E-005
3	0	2.227793136932436E+003	2.1960233E-001	-1.4881945E-004
3	0	2.228293136919805E+003	2.1955484E-001	3.8648941E-006
3	0	2.228793136907174E+003	2.1949399E-001	2.2950437E-005
3	0	2.229293136894543E+003	2.1940832E-001	-1.5220648E-005
3	0	2.229793136881912E+003	2.1931000E-001	6.1121522E-005
3	0	2.230293136869281E+003	2.1925429E-001	-3.4306191E-005
3	0	2.230793136856650E+003	2.1921234E-001	-3.4306191E-005
3	0	2.231293136844019E+003	2.1915513E-001	6.1121522E-005
3	0	2.231793136831388E+003	2.1910901E-001	4.2035979E-005
3	0	2.232293136818756E+003	2.1906170E-001	-1.5220648E-005
3	0	2.232793136806125E+003	2.1900590E-001	-3.4306191E-005
3	0	2.233293136793494E+003	2.1893159E-001	-3.4306191E-005
3	0	2.233793136780863E+003	2.1884227E-001	6.1121522E-005
3	0	2.234293136768232E+003	2.1878918E-001	-1.2973390E-004
3	0	2.234793136755601E+003	2.1874979E-001	-1.5220648E-005
3	0	2.235293136742970E+003	2.1870340E-001	-1.1064836E-004
3	0	2.235793136730339E+003	2.1865571E-001	-9.1562819E-005
3	0	2.236293136717708E+003	2.1861212E-001	-1.5220648E-005
3	0	2.236793136705077E+003	2.1855514E-001	-3.4306191E-005
3	0	2.237293136692446E+003	2.1847269E-001	2.2950437E-005
3	0	2.237793136679815E+003	2.1837528E-001	-1.5220648E-005
3	0	2.238293136667184E+003	2.1831505E-001	6.1121522E-005
3	0	2.238793136654553E+003	2.1826720E-001	-1.1064836E-004
3	0	2.239293136641922E+003	2.1821883E-001	-7.2477276E-005
3	0	2.239793136629291E+003	2.1817052E-001	-3.4306191E-005
3	0	2.240293136616659E+003	2.1811727E-001	2.2950437E-005
3	0	2.240793136604028E+003	2.1806134E-001	-5.3391734E-005
3	0	2.241293136591397E+003	2.1798407E-001	-1.1064836E-004
3	0	2.241793136578766E+003	2.1789391E-001	-3.4306191E-005
3	0	2.242293136566135E+003	2.1784821E-001	-3.4306191E-005
3	0	2.242793136553504E+003	2.1780609E-001	-3.4306191E-005
3	0	2.243293136540873E+003	2.1776144E-001	-3.4306191E-005
3	0	2.243793136528242E+003	2.1772155E-001	-5.3391734E-005
3	0	2.244293136515611E+003	2.1767941E-001	2.2950437E-005
3	0	2.244793136502980E+003	2.1762963E-001	-3.4306191E-005
3	0	2.245293136490349E+003	2.1755417E-001	-9.1562819E-005
3	0	2.245793136477718E+003	2.1746312E-001	4.2035979E-005
3	0	2.246293136465087E+003	2.1741353E-001	3.8648941E-006
3	0	2.246793136452456E+003	2.1737836E-001	3.8648941E-006
3	0	2.247293136439825E+003	2.1733542E-001	-1.5220648E-005
3	0	2.247793136427194E+003	2.1729164E-001	-1.1064836E-004
3	0	2.248293136414562E+003	2.1725737E-001	-1.4881945E-004
3	0	2.248793136401931E+003	2.1720631E-001	-3.4306191E-005
3	0	2.249293136389300E+003	2.1713780E-001	-7.2477276E-005
3	0	2.249793136376669E+003	2.1705377E-001	1.3746369E-004
3	0	2.250293136364038E+003	2.1700487E-001	-7.2477276E-005
3	0	2.250793136351407E+003	2.1696906E-001	-7.2477276E-005
3	0	2.251293136338776E+003	2.1692486E-001	2.2950437E-005
3	0	2.251793136326145E+003	2.1688268E-001	2.2950437E-005
3	0	2.252293136313514E+003	2.1684833E-001	4.2035979E-005
3	0	2.252793136300883E+003	2.1680351E-001	-9.1562819E-005
3	0	2.253293136288252E+003	2.1673304E-001	4.2035979E-005
3	0	2.253793136275621E+003	2.1664813E-001	8.0207064E-005
3	0	2.253827136274762E+003	2.1661614E-001	-1.1064836E-004