EC-Lab ASCII FILE
Nb header lines : 55                          

Open Circuit Voltage

Run on channel : 1 (SN 81504)
User : 
CE vs. WE compliance from -10 V to 10 V
Electrode connection : standard
Potential control : Ewe
Ewe ctrl range : min = -2.50 V, max = 2.50 V
Safety Limits :
	Do not start on E overload
Acquisition started on : 05/07/2026 19:49:57.838
Loaded Setting File :  C:\PEM-WE_measurements\2026\372_IV_IV IrOx, 5 min Pt, 30 min C, etched cathode\new station\Loopeis new\1,46 V different time gaps open cell\Loopeis 1,46V_90s_5_PEIS from 65Hz to 10Hz.mps
Saved on :
	File : L_20_Loopeis 1,46V_90s_5_PEIS from 65Hz to 10Hz_18_OCV_C01.mpr
	Directory : C:\PEM-WE_measurements\2026\372_IV_IV IrOx, 5 min Pt, 30 min C, etched cathode\new station\Loopeis new\1,46 V different time gaps open cell\
	Host : 192.168.0.2
Device : SP-150e (SN .005491)
Address : 192.168.0.91
EC-LAB for windows v11.71 (software)
Internet server v28.00 (firmware)
Command interpretor v14.01 (firmware)
Electrode material : 
Initial state : 
Electrolyte : 
Comments : 
Current amplifier : SP-150eB-20A
Electrode surface area : 0.001 cm²
Characteristic mass : 0.001 g
Equivalent Weight : 0.000 g/eq.
Density : 0.000 g/cm3
Volume (V) : 0.001 cm³
Record Analogic IN 1
Text export
   Mode : Standard
   Time format : Elapsed
Cycle Definition : Charge/Discharge alternance
External device configuration :
   device type : Temperature Probe
   device name : Other
   Analog IN 1 : 
      unit : T/Â°C
      max : 100.000 at 2.000 V
      min : 0.000 at 1.460 V
tR (h:m:s)          0:01:30.0000        
dER/dt (mV/h)       1.0                 
record              <Ewe>               
dER (mV)            10.00               
dtR (s)             0.5000              
E range min (V)     -2.500              
E range max (V)     2.500               

mode	error	time/s	<Ewe/V>	Analog IN 1/V	
3	0	1.569377005746719E+003	1.2625078E+000	-2.7037326E+002
3	0	1.569877005734088E+003	1.2434688E+000	-2.7039447E+002
3	0	1.570377005721457E+003	1.1617440E+000	-2.7037326E+002
3	0	1.570877005708826E+003	9.0866840E-001	-2.7038031E+002
3	0	1.571377005696195E+003	4.6297824E-001	-2.7036618E+002
3	0	1.571877005683564E+003	3.3993560E-001	-2.7037326E+002
3	0	1.572377005670933E+003	3.2471961E-001	-2.7037677E+002
3	0	1.572877005658302E+003	3.1655908E-001	-2.7038742E+002
3	0	1.573377005645671E+003	3.0991679E-001	-2.7035913E+002
3	0	1.573877005633040E+003	3.0483165E-001	-2.7037326E+002
3	0	1.574377005620408E+003	3.0096051E-001	-2.7037677E+002
3	0	1.574877005607777E+003	2.9796642E-001	-2.7036618E+002
3	0	1.575377005595146E+003	2.9557234E-001	-2.7038385E+002
3	0	1.575877005582515E+003	2.9362524E-001	-2.7039093E+002
3	0	1.576377005569884E+003	2.9198241E-001	-2.7038031E+002
3	0	1.576877005557253E+003	2.9053718E-001	-2.7037326E+002
3	0	1.577377005544622E+003	2.8927314E-001	-2.7038742E+002
3	0	1.577877005531991E+003	2.8818938E-001	-2.7038742E+002
3	0	1.578377005519360E+003	2.8720236E-001	-2.7036618E+002
3	0	1.578877005506729E+003	2.8629452E-001	-2.7038742E+002
3	0	1.579377005494098E+003	2.8545347E-001	-2.7037326E+002
3	0	1.579877005481467E+003	2.8466809E-001	-2.7035559E+002
3	0	1.580377005468836E+003	2.8390512E-001	-2.7038385E+002
3	0	1.580877005456205E+003	2.8314891E-001	-2.7036972E+002
3	0	1.581377005443574E+003	2.8242874E-001	-2.7038385E+002
3	0	1.581877005430943E+003	2.8176495E-001	-2.7038031E+002
3	0	1.582377005418311E+003	2.8112477E-001	-2.7038385E+002
3	0	1.582877005405680E+003	2.8050524E-001	-2.7036618E+002
3	0	1.583377005393049E+003	2.7990043E-001	-2.7036618E+002
3	0	1.583877005380418E+003	2.7930766E-001	-2.7035913E+002
3	0	1.584377005367787E+003	2.7871773E-001	-2.7036267E+002
3	0	1.584877005355156E+003	2.7809814E-001	-2.7037326E+002
3	0	1.585377005342525E+003	2.7749464E-001	-2.7037326E+002
3	0	1.585877005329894E+003	2.7692553E-001	-2.7037677E+002
3	0	1.586377005317263E+003	2.7637121E-001	-2.7039093E+002
3	0	1.586877005304632E+003	2.7582228E-001	-2.7038742E+002
3	0	1.587377005292001E+003	2.7528033E-001	-2.7039801E+002
3	0	1.587877005279370E+003	2.7475065E-001	-2.7038031E+002
3	0	1.588377005266739E+003	2.7421659E-001	-2.7039801E+002
3	0	1.588877005254108E+003	2.7365679E-001	-2.7038385E+002
3	0	1.589377005241477E+003	2.7311054E-001	-2.7037677E+002
3	0	1.589877005228846E+003	2.7259463E-001	-2.7037326E+002
3	0	1.590377005216214E+003	2.7210698E-001	-2.7036972E+002
3	0	1.590877005203583E+003	2.7160293E-001	-2.7040155E+002
3	0	1.591377005190952E+003	2.7110663E-001	-2.7039093E+002
3	0	1.591877005178321E+003	2.7061468E-001	-2.7038031E+002
3	0	1.592377005165690E+003	2.7011013E-001	-2.7038742E+002
3	0	1.592877005153059E+003	2.6959789E-001	-2.7039093E+002
3	0	1.593377005140428E+003	2.6908892E-001	-2.7036618E+002
3	0	1.593877005127797E+003	2.6861247E-001	-2.7037326E+002
3	0	1.594377005115166E+003	2.6815128E-001	-2.7039447E+002
3	0	1.594877005102535E+003	2.6768592E-001	-2.7038385E+002
3	0	1.595377005089904E+003	2.6722494E-001	-2.7038385E+002
3	0	1.595877005077273E+003	2.6676527E-001	-2.7038031E+002
3	0	1.596377005064642E+003	2.6629636E-001	-2.7035913E+002
3	0	1.596877005052011E+003	2.6581264E-001	-2.7036618E+002
3	0	1.597377005039380E+003	2.6533106E-001	-2.7036618E+002
3	0	1.597877005026749E+003	2.6488647E-001	-2.7038385E+002
3	0	1.598377005014117E+003	2.6445946E-001	-2.7038742E+002
3	0	1.598877005001486E+003	2.6402566E-001	-2.7037326E+002
3	0	1.599377004988855E+003	2.6359773E-001	-2.7036267E+002
3	0	1.599877004976224E+003	2.6317400E-001	-2.7038742E+002
3	0	1.600377004963593E+003	2.6273796E-001	-2.7037326E+002
3	0	1.600877004950962E+003	2.6228407E-001	-2.7038742E+002
3	0	1.601377004938331E+003	2.6183680E-001	-2.7038742E+002
3	0	1.601877004925700E+003	2.6142842E-001	-2.7039801E+002
3	0	1.602377004913069E+003	2.6102999E-001	-2.7037326E+002
3	0	1.602877004900438E+003	2.6062223E-001	-2.7038742E+002
3	0	1.603377004887807E+003	2.6021951E-001	-2.7037677E+002
3	0	1.603877004875176E+003	2.5981852E-001	-2.7037326E+002
3	0	1.604377004862545E+003	2.5942084E-001	-2.7039093E+002
3	0	1.604877004849914E+003	2.5900236E-001	-2.7038385E+002
3	0	1.605377004837283E+003	2.5857931E-001	-2.7037677E+002
3	0	1.605877004824652E+003	2.5820208E-001	-2.7035559E+002
3	0	1.606377004812020E+003	2.5783473E-001	-2.7036972E+002
3	0	1.606877004799389E+003	2.5746164E-001	-2.7036267E+002
3	0	1.607377004786758E+003	2.5708896E-001	-2.7038742E+002
3	0	1.607877004774127E+003	2.5672305E-001	-2.7038031E+002
3	0	1.608377004761496E+003	2.5634870E-001	-2.7038385E+002
3	0	1.608877004748865E+003	2.5595939E-001	-2.7037677E+002
3	0	1.609377004736234E+003	2.5557581E-001	-2.7038742E+002
3	0	1.609877004723603E+003	2.5523034E-001	-2.7037677E+002
3	0	1.610377004710972E+003	2.5489607E-001	-2.7038385E+002
3	0	1.610877004698341E+003	2.5455558E-001	-2.7037326E+002
3	0	1.611377004685710E+003	2.5421882E-001	-2.7037326E+002
3	0	1.611877004673079E+003	2.5388488E-001	-2.7038742E+002
3	0	1.612377004660448E+003	2.5354138E-001	-2.7037326E+002
3	0	1.612877004647817E+003	2.5318041E-001	-2.7036972E+002
3	0	1.613377004635186E+003	2.5282764E-001	-2.7036618E+002
3	0	1.613877004622555E+003	2.5251359E-001	-2.7036267E+002
3	0	1.614377004609923E+003	2.5221109E-001	-2.7038385E+002
3	0	1.614877004597292E+003	2.5189197E-001	-2.7038031E+002
3	0	1.615377004584661E+003	2.5158304E-001	-2.7039801E+002
3	0	1.615877004572030E+003	2.5127709E-001	-2.7039093E+002
3	0	1.616377004559399E+003	2.5095874E-001	-2.7036618E+002
3	0	1.616877004546768E+003	2.5062665E-001	-2.7036972E+002
3	0	1.617377004534137E+003	2.5029701E-001	-2.7039093E+002
3	0	1.617877004521506E+003	2.5000784E-001	-2.7037677E+002
3	0	1.618377004508875E+003	2.4972813E-001	-2.7038031E+002
3	0	1.618877004496244E+003	2.4945045E-001	-2.7036972E+002
3	0	1.619377004483613E+003	2.4917386E-001	-2.7037326E+002
3	0	1.619877004470982E+003	2.4888863E-001	-2.7038385E+002
3	0	1.620377004458351E+003	2.4859212E-001	-2.7037326E+002
3	0	1.620877004445720E+003	2.4828331E-001	-2.7038031E+002
3	0	1.621377004433089E+003	2.4798685E-001	-2.7035559E+002
3	0	1.621877004420458E+003	2.4771725E-001	-2.7037326E+002
3	0	1.622377004407826E+003	2.4745919E-001	-2.7039093E+002
3	0	1.622877004395195E+003	2.4719596E-001	-2.7038385E+002
3	0	1.623377004382564E+003	2.4693483E-001	-2.7035913E+002
3	0	1.623877004369933E+003	2.4667943E-001	-2.7039447E+002
3	0	1.624377004357302E+003	2.4640982E-001	-2.7036618E+002
3	0	1.624877004344671E+003	2.4612199E-001	-2.7039093E+002
3	0	1.625377004332040E+003	2.4583708E-001	-2.7037326E+002
3	0	1.625877004319409E+003	2.4559793E-001	-2.7035559E+002
3	0	1.626377004306778E+003	2.4536188E-001	-2.7038742E+002
3	0	1.626877004294147E+003	2.4512318E-001	-2.7035559E+002
3	0	1.627377004281516E+003	2.4488285E-001	-2.7038031E+002
3	0	1.627877004268885E+003	2.4464618E-001	-2.7036267E+002
3	0	1.628377004256254E+003	2.4439898E-001	-2.7039093E+002
3	0	1.628877004243623E+003	2.4414042E-001	-2.7036618E+002
3	0	1.629377004230992E+003	2.4387921E-001	-2.7036267E+002
3	0	1.629877004218361E+003	2.4366002E-001	-2.7038742E+002
3	0	1.630377004205729E+003	2.4344699E-001	-2.7035559E+002
3	0	1.630877004193098E+003	2.4323724E-001	-2.7039093E+002
3	0	1.631377004180467E+003	2.4302630E-001	-2.7036618E+002
3	0	1.631877004167836E+003	2.4281022E-001	-2.7040155E+002
3	0	1.632377004155205E+003	2.4258570E-001	-2.7039093E+002
3	0	1.632877004142574E+003	2.4233487E-001	-2.7039093E+002
3	0	1.633377004129943E+003	2.4209417E-001	-2.7036618E+002
3	0	1.633877004117312E+003	2.4189994E-001	-2.7036972E+002
3	0	1.634377004104681E+003	2.4170184E-001	-2.7038742E+002
3	0	1.634877004092050E+003	2.4151139E-001	-2.7038385E+002
3	0	1.635377004079419E+003	2.4131937E-001	-2.7037677E+002
3	0	1.635877004066788E+003	2.4112411E-001	-2.7037677E+002
3	0	1.636377004054157E+003	2.4092066E-001	-2.7040155E+002
3	0	1.636877004041526E+003	2.4069481E-001	-2.7036267E+002
3	0	1.637377004028895E+003	2.4047269E-001	-2.7034851E+002
3	0	1.637877004016264E+003	2.4029395E-001	-2.7037326E+002
3	0	1.638377004003632E+003	2.4012232E-001	-2.7038742E+002
3	0	1.638877003991001E+003	2.3994793E-001	-2.7040860E+002
3	0	1.639377003978370E+003	2.3977098E-001	-2.7038385E+002
3	0	1.639877003965739E+003	2.3959135E-001	-2.7037326E+002
3	0	1.640377003953108E+003	2.3940277E-001	-2.7038385E+002
3	0	1.640877003940477E+003	2.3919114E-001	-2.7038742E+002
3	0	1.641377003927846E+003	2.3898531E-001	-2.7039801E+002
3	0	1.641877003915215E+003	2.3881964E-001	-2.7039093E+002
3	0	1.642377003902584E+003	2.3865616E-001	-2.7039447E+002
3	0	1.642877003889953E+003	2.3849081E-001	-2.7037677E+002
3	0	1.643377003877322E+003	2.3833206E-001	-2.7037677E+002
3	0	1.643877003864691E+003	2.3817189E-001	-2.7039447E+002
3	0	1.644377003852060E+003	2.3799238E-001	-2.7043332E+002
3	0	1.644877003839429E+003	2.3779544E-001	-2.7038031E+002
3	0	1.645377003826798E+003	2.3759875E-001	-2.7037326E+002
3	0	1.645877003814167E+003	2.3743868E-001	-2.7035559E+002
3	0	1.646377003801535E+003	2.3728654E-001	-2.7039801E+002
3	0	1.646877003788904E+003	2.3713644E-001	-2.7038742E+002
3	0	1.647377003776273E+003	2.3698765E-001	-2.7038742E+002
3	0	1.647877003763642E+003	2.3683617E-001	-2.7039093E+002
3	0	1.648377003751011E+003	2.3667145E-001	-2.7038031E+002
3	0	1.648877003738380E+003	2.3648946E-001	-2.7037326E+002
3	0	1.649377003725749E+003	2.3630179E-001	-2.7038742E+002
3	0	1.649877003713118E+003	2.3616473E-001	-2.7040155E+002
3	0	1.650377003700487E+003	2.3602840E-001	-2.7036267E+002
3	0	1.650877003687856E+003	2.3589130E-001	-2.7034851E+002
3	0	1.651377003675225E+003	2.3576261E-001	-2.7035913E+002
3	0	1.651877003662594E+003	2.3562862E-001	-2.7038742E+002
3	0	1.652377003649963E+003	2.3548722E-001	-2.7038385E+002
3	0	1.652877003637332E+003	2.3531395E-001	-2.7038385E+002
3	0	1.653377003624701E+003	2.3514748E-001	-2.7040155E+002
3	0	1.653877003612070E+003	2.3502059E-001	-2.7039447E+002
3	0	1.654377003599438E+003	2.3489787E-001	-2.7039801E+002
3	0	1.654877003586807E+003	2.3477377E-001	-2.7038385E+002
3	0	1.655377003574176E+003	2.3465382E-001	-2.7039801E+002
3	0	1.655877003561545E+003	2.3452631E-001	-2.7038742E+002
3	0	1.656377003548914E+003	2.3438925E-001	-2.7035913E+002
3	0	1.656877003536283E+003	2.3422992E-001	-2.7037326E+002
3	0	1.657377003523652E+003	2.3407038E-001	-2.7038031E+002
3	0	1.657877003511021E+003	2.3395608E-001	-2.7039801E+002
3	0	1.658377003498390E+003	2.3384181E-001	-2.7040506E+002
3	0	1.658877003485759E+003	2.3372391E-001	-2.7038385E+002
3	0	1.658877403485749E+003	2.3368968E-001	-2.7040506E+002