EC-Lab ASCII FILE
Nb header lines : 55                          

Open Circuit Voltage

Run on channel : 1 (SN 81504)
User : 
CE vs. WE compliance from -10 V to 10 V
Electrode connection : standard
Potential control : Ewe
Ewe ctrl range : min = -2.50 V, max = 2.50 V
Safety Limits :
	Do not start on E overload
Acquisition started on : 05/07/2026 15:46:26.830
Loaded Setting File :  C:\PEM-WE_measurements\2026\372_IV_IV IrOx, 5 min Pt, 30 min C, etched cathode\new station\Loopeis new\1,46 V different time gaps open cell\Loopeis 1,46V_45s_3_PEIS from 6500Hz to 1000Hz.mps
Saved on :
	File : L_08_Loopeis 1,46V_45s_3_PEIS from 6500Hz to 1000Hz_16_OCV_C01.mpr
	Directory : C:\PEM-WE_measurements\2026\372_IV_IV IrOx, 5 min Pt, 30 min C, etched cathode\new station\Loopeis new\1,46 V different time gaps open cell\
	Host : 192.168.0.2
Device : SP-150e (SN .005491)
Address : 192.168.0.91
EC-LAB for windows v11.71 (software)
Internet server v28.00 (firmware)
Command interpretor v14.01 (firmware)
Electrode material : 
Initial state : 
Electrolyte : 
Comments : 
Current amplifier : SP-150eB-20A
Electrode surface area : 0.001 cm²
Characteristic mass : 0.001 g
Equivalent Weight : 0.000 g/eq.
Density : 0.000 g/cm3
Volume (V) : 0.001 cm³
Record Analogic IN 1
Text export
   Mode : Standard
   Time format : Elapsed
Cycle Definition : Charge/Discharge alternance
External device configuration :
   device type : Temperature Probe
   device name : Other
   Analog IN 1 : 
      unit : T/Â°C
      max : 100.000 at 2.000 V
      min : 0.000 at 1.460 V
tR (h:m:s)          0:00:45.0000        
dER/dt (mV/h)       1.0                 
record              <Ewe>               
dER (mV)            10.00               
dtR (s)             0.5000              
E range min (V)     -2.500              
E range max (V)     2.500               

mode	error	time/s	<Ewe/V>	Analog IN 1/V	
3	0	6.800377962490165E+002	1.0677601E+000	-2.7039447E+002
3	0	6.805377962363855E+002	1.2251550E+000	-2.7036972E+002
3	0	6.810377962237544E+002	1.1891645E+000	-2.7035913E+002
3	0	6.815377962111234E+002	1.1105373E+000	-2.7039093E+002
3	0	6.820377961984923E+002	8.3726692E-001	-2.7037326E+002
3	0	6.825377961858612E+002	4.2599675E-001	-2.7037677E+002
3	0	6.830377961732302E+002	3.2934943E-001	-2.7039447E+002
3	0	6.835377961605991E+002	3.1690857E-001	-2.7037326E+002
3	0	6.840377961479680E+002	3.0904967E-001	-2.7038385E+002
3	0	6.845377961353370E+002	3.0265787E-001	-2.7039447E+002
3	0	6.850377961227059E+002	2.9772958E-001	-2.7034143E+002
3	0	6.855377961100749E+002	2.9393935E-001	-2.7038742E+002
3	0	6.860377960974438E+002	2.9098931E-001	-2.7036618E+002
3	0	6.865377960848127E+002	2.8863102E-001	-2.7037677E+002
3	0	6.870377960721817E+002	2.8668657E-001	-2.7038385E+002
3	0	6.875377960595506E+002	2.8504589E-001	-2.7036267E+002
3	0	6.880377960469195E+002	2.8363407E-001	-2.7038031E+002
3	0	6.885377960342885E+002	2.8238896E-001	-2.7037677E+002
3	0	6.890377960216574E+002	2.8126541E-001	-2.7039801E+002
3	0	6.895377960090264E+002	2.8024414E-001	-2.7038385E+002
3	0	6.900377959963953E+002	2.7933475E-001	-2.7036972E+002
3	0	6.905377959837642E+002	2.7850336E-001	-2.7035559E+002
3	0	6.910377959711332E+002	2.7772132E-001	-2.7037326E+002
3	0	6.915377959585021E+002	2.7698487E-001	-2.7036267E+002
3	0	6.920377959458710E+002	2.7627724E-001	-2.7038031E+002
3	0	6.925377959332400E+002	2.7559569E-001	-2.7035913E+002
3	0	6.930377959206089E+002	2.7491632E-001	-2.7035913E+002
3	0	6.935377959079779E+002	2.7425954E-001	-2.7039801E+002
3	0	6.940377958953468E+002	2.7364200E-001	-2.7037326E+002
3	0	6.945377958827157E+002	2.7304792E-001	-2.7036267E+002
3	0	6.950377958700847E+002	2.7247000E-001	-2.7035559E+002
3	0	6.955377958574536E+002	2.7190515E-001	-2.7038031E+002
3	0	6.960377958448225E+002	2.7134150E-001	-2.7039093E+002
3	0	6.965377958321915E+002	2.7078694E-001	-2.7037326E+002
3	0	6.970377958195604E+002	2.7021149E-001	-2.7039447E+002
3	0	6.975377958069294E+002	2.6963589E-001	-2.7036618E+002
3	0	6.980377957942983E+002	2.6910383E-001	-2.7038385E+002
3	0	6.985377957816672E+002	2.6858157E-001	-2.7036618E+002
3	0	6.990377957690362E+002	2.6807117E-001	-2.7036618E+002
3	0	6.995377957564051E+002	2.6755899E-001	-2.7039093E+002
3	0	7.000377957437740E+002	2.6704752E-001	-2.7038031E+002
3	0	7.005377957311430E+002	2.6653817E-001	-2.7038385E+002
3	0	7.010377957185119E+002	2.6601022E-001	-2.7040506E+002
3	0	7.015377957058809E+002	2.6548433E-001	-2.7038031E+002
3	0	7.020377956932498E+002	2.6498216E-001	-2.7035913E+002
3	0	7.025377956806187E+002	2.6450762E-001	-2.7038742E+002
3	0	7.030377956679877E+002	2.6403654E-001	-2.7035913E+002
3	0	7.035377956553566E+002	2.6355630E-001	-2.7036972E+002
3	0	7.040377956427255E+002	2.6308605E-001	-2.7036972E+002
3	0	7.045377956300945E+002	2.6260644E-001	-2.7036972E+002
3	0	7.050377956174634E+002	2.6211059E-001	-2.7039447E+002
3	0	7.055377956048324E+002	2.6161641E-001	-2.7038385E+002
3	0	7.060377955922013E+002	2.6115102E-001	-2.7036267E+002
3	0	7.065377955795702E+002	2.6070562E-001	-2.7038742E+002
3	0	7.070377955669392E+002	2.6025534E-001	-2.7036618E+002
3	0	7.075377955543081E+002	2.5981635E-001	-2.7039093E+002
3	0	7.080377955416770E+002	2.5937819E-001	-2.7038031E+002
3	0	7.085377955290460E+002	2.5893161E-001	-2.7036267E+002
3	0	7.090377955164149E+002	2.5846916E-001	-2.7038742E+002
3	0	7.095377955037839E+002	2.5800690E-001	-2.7036618E+002
3	0	7.100377954911528E+002	2.5757685E-001	-2.7036972E+002
3	0	7.105377954785217E+002	2.5715664E-001	-2.7038031E+002
3	0	7.110377954658907E+002	2.5673836E-001	-2.7037677E+002
3	0	7.115377954532596E+002	2.5632727E-001	-2.7037677E+002
3	0	7.120377954406285E+002	2.5591856E-001	-2.7038742E+002
3	0	7.125377954279975E+002	2.5550431E-001	-2.7037677E+002
3	0	7.130377954153664E+002	2.5506842E-001	-2.7035205E+002
3	0	7.135377954027354E+002	2.5463715E-001	-2.7038385E+002
3	0	7.140377953901043E+002	2.5423992E-001	-2.7036618E+002
3	0	7.145377953774732E+002	2.5385958E-001	-2.7038742E+002
3	0	7.150377953648422E+002	2.5347823E-001	-2.7037677E+002
3	0	7.155377953522111E+002	2.5309041E-001	-2.7038385E+002
3	0	7.160377953395800E+002	2.5271350E-001	-2.7037326E+002
3	0	7.165377953269490E+002	2.5232577E-001	-2.7036267E+002
3	0	7.170377953143179E+002	2.5192055E-001	-2.7036618E+002
3	0	7.175377953016869E+002	2.5151029E-001	-2.7038742E+002
3	0	7.180377952890558E+002	2.5113624E-001	-2.7039093E+002
3	0	7.185377952764247E+002	2.5078005E-001	-2.7038385E+002
3	0	7.190377952637937E+002	2.5042030E-001	-2.7039447E+002
3	0	7.195377952511626E+002	2.5005981E-001	-2.7036618E+002
3	0	7.200377952385315E+002	2.4971639E-001	-2.7036618E+002
3	0	7.205377952259005E+002	2.4936673E-001	-2.7039093E+002
3	0	7.210377952132694E+002	2.4899356E-001	-2.7036618E+002
3	0	7.215377952006384E+002	2.4862053E-001	-2.7038742E+002
3	0	7.220377951880073E+002	2.4827471E-001	-2.7035913E+002
3	0	7.225377951753762E+002	2.4795446E-001	-2.7039447E+002
3	0	7.230377951627452E+002	2.4762203E-001	-2.7036267E+002
3	0	7.235377951501141E+002	2.4729280E-001	-2.7035913E+002
3	0	7.240377951374830E+002	2.4696623E-001	-2.7035913E+002
3	0	7.245377951248520E+002	2.4664186E-001	-2.7039447E+002
3	0	7.245623951242305E+002	2.4646722E-001	-2.7039447E+002