EC-Lab ASCII FILE
Nb header lines : 55                          

Open Circuit Voltage

Run on channel : 1 (SN 81504)
User : 
CE vs. WE compliance from -10 V to 10 V
Electrode connection : standard
Potential control : Ewe
Ewe ctrl range : min = -2.50 V, max = 2.50 V
Safety Limits :
	Do not start on E overload
Acquisition started on : 05/07/2026 19:27:13.907
Loaded Setting File :  C:\PEM-WE_measurements\2026\372_IV_IV IrOx, 5 min Pt, 30 min C, etched cathode\new station\Loopeis new\1,46 V different time gaps open cell\Loopeis 1,46V_90s_4_PEIS from 650Hz to 100Hz.mps
Saved on :
	File : L_19_Loopeis 1,46V_90s_4_PEIS from 650Hz to 100Hz_16_OCV_C01.mpr
	Directory : C:\PEM-WE_measurements\2026\372_IV_IV IrOx, 5 min Pt, 30 min C, etched cathode\new station\Loopeis new\1,46 V different time gaps open cell\
	Host : 192.168.0.2
Device : SP-150e (SN .005491)
Address : 192.168.0.91
EC-LAB for windows v11.71 (software)
Internet server v28.00 (firmware)
Command interpretor v14.01 (firmware)
Electrode material : 
Initial state : 
Electrolyte : 
Comments : 
Current amplifier : SP-150eB-20A
Electrode surface area : 0.001 cm²
Characteristic mass : 0.001 g
Equivalent Weight : 0.000 g/eq.
Density : 0.000 g/cm3
Volume (V) : 0.001 cm³
Record Analogic IN 1
Text export
   Mode : Standard
   Time format : Elapsed
Cycle Definition : Charge/Discharge alternance
External device configuration :
   device type : Temperature Probe
   device name : Other
   Analog IN 1 : 
      unit : T/Â°C
      max : 100.000 at 2.000 V
      min : 0.000 at 1.460 V
tR (h:m:s)          0:01:30.0000        
dER/dt (mV/h)       1.0                 
record              <Ewe>               
dER (mV)            10.00               
dtR (s)             0.5000              
E range min (V)     -2.500              
E range max (V)     2.500               

mode	error	time/s	<Ewe/V>	Analog IN 1/V	
3	0	9.956497883205157E+002	1.0244088E+000	-2.7037326E+002
3	0	9.961497883078846E+002	1.1973295E+000	-2.7040155E+002
3	0	9.966497882952535E+002	1.1156107E+000	-2.7038385E+002
3	0	9.971497882826225E+002	8.7225842E-001	-2.7036618E+002
3	0	9.976497882699914E+002	4.4059363E-001	-2.7038742E+002
3	0	9.981497882573603E+002	3.1111720E-001	-2.7038385E+002
3	0	9.986497882447293E+002	2.9762617E-001	-2.7036972E+002
3	0	9.991497882320982E+002	2.9085848E-001	-2.7039093E+002
3	0	9.996497882194672E+002	2.8493470E-001	-2.7038742E+002
3	0	1.000149788206836E+003	2.8018758E-001	-2.7040155E+002
3	0	1.000649788194205E+003	2.7649257E-001	-2.7035559E+002
3	0	1.001149788181574E+003	2.7359131E-001	-2.7038031E+002
3	0	1.001649788168943E+003	2.7128014E-001	-2.7036972E+002
3	0	1.002149788156312E+003	2.6942167E-001	-2.7038385E+002
3	0	1.002649788143681E+003	2.6787153E-001	-2.7039093E+002
3	0	1.003149788131050E+003	2.6654765E-001	-2.7036267E+002
3	0	1.003649788118419E+003	2.6540643E-001	-2.7036618E+002
3	0	1.004149788105788E+003	2.6438555E-001	-2.7038742E+002
3	0	1.004649788093157E+003	2.6345766E-001	-2.7041919E+002
3	0	1.005149788080525E+003	2.6257589E-001	-2.7036972E+002
3	0	1.005649788067894E+003	2.6177016E-001	-2.7037326E+002
3	0	1.006149788055263E+003	2.6104292E-001	-2.7038742E+002
3	0	1.006649788042632E+003	2.6035929E-001	-2.7037326E+002
3	0	1.007149788030001E+003	2.5970727E-001	-2.7036972E+002
3	0	1.007649788017370E+003	2.5908825E-001	-2.7037677E+002
3	0	1.008149788004739E+003	2.5848749E-001	-2.7035205E+002
3	0	1.008649787992108E+003	2.5788105E-001	-2.7039093E+002
3	0	1.009149787979477E+003	2.5727019E-001	-2.7037326E+002
3	0	1.009649787966846E+003	2.5668061E-001	-2.7035205E+002
3	0	1.010149787954215E+003	2.5613508E-001	-2.7039093E+002
3	0	1.010649787941584E+003	2.5560012E-001	-2.7039093E+002
3	0	1.011149787928953E+003	2.5506639E-001	-2.7038742E+002
3	0	1.011649787916322E+003	2.5455421E-001	-2.7039093E+002
3	0	1.012149787903691E+003	2.5403535E-001	-2.7039447E+002
3	0	1.012649787891060E+003	2.5350454E-001	-2.7037326E+002
3	0	1.013149787878428E+003	2.5296730E-001	-2.7039093E+002
3	0	1.013649787865797E+003	2.5243962E-001	-2.7036972E+002
3	0	1.014149787853166E+003	2.5194368E-001	-2.7037326E+002
3	0	1.014649787840535E+003	2.5145742E-001	-2.7037677E+002
3	0	1.015149787827904E+003	2.5097528E-001	-2.7038742E+002
3	0	1.015649787815273E+003	2.5049341E-001	-2.7039093E+002
3	0	1.016149787802642E+003	2.5001386E-001	-2.7039801E+002
3	0	1.016649787790011E+003	2.4952467E-001	-2.7033438E+002
3	0	1.017149787777380E+003	2.4901834E-001	-2.7036972E+002
3	0	1.017649787764749E+003	2.4852264E-001	-2.7036267E+002
3	0	1.018149787752118E+003	2.4805905E-001	-2.7039801E+002
3	0	1.018649787739487E+003	2.4759541E-001	-2.7038385E+002
3	0	1.019149787726856E+003	2.4713419E-001	-2.7037677E+002
3	0	1.019649787714225E+003	2.4667820E-001	-2.7038031E+002
3	0	1.020149787701594E+003	2.4622899E-001	-2.7037326E+002
3	0	1.020649787688963E+003	2.4576522E-001	-2.7037677E+002
3	0	1.021149787676331E+003	2.4528567E-001	-2.7037326E+002
3	0	1.021649787663700E+003	2.4481998E-001	-2.7037326E+002
3	0	1.022149787651069E+003	2.4438585E-001	-2.7037677E+002
3	0	1.022649787638438E+003	2.4395680E-001	-2.7038385E+002
3	0	1.023149787625807E+003	2.4353105E-001	-2.7038742E+002
3	0	1.023649787613176E+003	2.4310535E-001	-2.7037326E+002
3	0	1.024149787600545E+003	2.4268387E-001	-2.7039093E+002
3	0	1.024649787587914E+003	2.4224053E-001	-2.7038031E+002
3	0	1.025149787575283E+003	2.4179427E-001	-2.7036267E+002
3	0	1.025649787562652E+003	2.4135816E-001	-2.7039801E+002
3	0	1.026149787550021E+003	2.4095325E-001	-2.7037677E+002
3	0	1.026649787537390E+003	2.4055640E-001	-2.7038385E+002
3	0	1.027149787524759E+003	2.4015872E-001	-2.7036972E+002
3	0	1.027649787512128E+003	2.3976301E-001	-2.7038742E+002
3	0	1.028149787499497E+003	2.3936537E-001	-2.7036972E+002
3	0	1.028649787486866E+003	2.3895280E-001	-2.7039801E+002
3	0	1.029149787474234E+003	2.3852408E-001	-2.7038385E+002
3	0	1.029649787461603E+003	2.3812057E-001	-2.7038031E+002
3	0	1.030149787448972E+003	2.3774596E-001	-2.7040155E+002
3	0	1.030649787436341E+003	2.3737206E-001	-2.7038385E+002
3	0	1.031149787423710E+003	2.3700194E-001	-2.7036618E+002
3	0	1.031649787411079E+003	2.3663466E-001	-2.7038385E+002
3	0	1.032149787398448E+003	2.3626424E-001	-2.7037326E+002
3	0	1.032649787385817E+003	2.3587903E-001	-2.7038385E+002
3	0	1.033149787373186E+003	2.3549330E-001	-2.7039447E+002
3	0	1.033649787360555E+003	2.3511747E-001	-2.7039801E+002
3	0	1.034149787347924E+003	2.3477472E-001	-2.7037677E+002
3	0	1.034649787335293E+003	2.3442990E-001	-2.7039093E+002
3	0	1.035149787322662E+003	2.3409188E-001	-2.7037326E+002
3	0	1.035649787310031E+003	2.3374613E-001	-2.7036267E+002
3	0	1.036149787297400E+003	2.3340170E-001	-2.7036972E+002
3	0	1.036649787284769E+003	2.3305103E-001	-2.7038385E+002
3	0	1.037149787272137E+003	2.3268168E-001	-2.7038031E+002
3	0	1.037649787259506E+003	2.3232496E-001	-2.7038742E+002
3	0	1.038149787246875E+003	2.3200715E-001	-2.7039447E+002
3	0	1.038649787234244E+003	2.3169570E-001	-2.7037326E+002
3	0	1.039149787221613E+003	2.3138033E-001	-2.7039093E+002
3	0	1.039649787208982E+003	2.3106298E-001	-2.7039447E+002
3	0	1.040149787196351E+003	2.3075382E-001	-2.7038742E+002
3	0	1.040649787183720E+003	2.3043060E-001	-2.7039093E+002
3	0	1.041149787171089E+003	2.3008960E-001	-2.7036267E+002
3	0	1.041649787158458E+003	2.2976466E-001	-2.7038031E+002
3	0	1.042149787145827E+003	2.2947359E-001	-2.7039801E+002
3	0	1.042649787133196E+003	2.2918417E-001	-2.7038742E+002
3	0	1.043149787120565E+003	2.2889704E-001	-2.7041214E+002
3	0	1.043649787107934E+003	2.2861159E-001	-2.7039447E+002
3	0	1.044149787095303E+003	2.2832412E-001	-2.7039447E+002
3	0	1.044649787082672E+003	2.2803149E-001	-2.7038031E+002
3	0	1.045149787070040E+003	2.2770956E-001	-2.7035559E+002
3	0	1.045649787057409E+003	2.2741021E-001	-2.7036267E+002
3	0	1.046149787044778E+003	2.2714633E-001	-2.7036972E+002
3	0	1.046649787032147E+003	2.2688507E-001	-2.7036267E+002
3	0	1.047149787019516E+003	2.2662520E-001	-2.7037677E+002
3	0	1.047649787006885E+003	2.2636017E-001	-2.7037677E+002
3	0	1.048149786994254E+003	2.2609830E-001	-2.7039093E+002
3	0	1.048649786981623E+003	2.2582287E-001	-2.7039093E+002
3	0	1.049149786968992E+003	2.2553533E-001	-2.7036267E+002
3	0	1.049649786956361E+003	2.2526024E-001	-2.7038031E+002
3	0	1.050149786943730E+003	2.2502369E-001	-2.7037677E+002
3	0	1.050649786931099E+003	2.2479129E-001	-2.7038742E+002
3	0	1.051149786918468E+003	2.2454557E-001	-2.7036618E+002
3	0	1.051649786905837E+003	2.2431260E-001	-2.7039447E+002
3	0	1.052149786893206E+003	2.2407132E-001	-2.7038385E+002
3	0	1.052649786880575E+003	2.2381102E-001	-2.7036618E+002
3	0	1.053149786867943E+003	2.2354177E-001	-2.7039801E+002
3	0	1.053649786855312E+003	2.2328953E-001	-2.7040506E+002
3	0	1.054149786842681E+003	2.2307028E-001	-2.7036972E+002
3	0	1.054649786830050E+003	2.2285254E-001	-2.7040155E+002
3	0	1.055149786817419E+003	2.2262755E-001	-2.7037677E+002
3	0	1.055649786804788E+003	2.2241351E-001	-2.7038031E+002
3	0	1.056149786792157E+003	2.2219142E-001	-2.7037677E+002
3	0	1.056649786779526E+003	2.2195390E-001	-2.7037677E+002
3	0	1.057149786766895E+003	2.2169638E-001	-2.7036972E+002
3	0	1.057649786754264E+003	2.2145711E-001	-2.7037326E+002
3	0	1.058149786741633E+003	2.2125816E-001	-2.7036972E+002
3	0	1.058649786729002E+003	2.2105585E-001	-2.7038385E+002
3	0	1.059149786716371E+003	2.2085641E-001	-2.7035913E+002
3	0	1.059649786703740E+003	2.2066119E-001	-2.7038385E+002
3	0	1.060149786691109E+003	2.2046176E-001	-2.7037677E+002
3	0	1.060649786678478E+003	2.2024296E-001	-2.7037677E+002
3	0	1.061149786665846E+003	2.2001058E-001	-2.7035913E+002
3	0	1.061649786653215E+003	2.1979430E-001	-2.7038742E+002
3	0	1.062149786640584E+003	2.1961622E-001	-2.7039093E+002
3	0	1.062649786627953E+003	2.1944027E-001	-2.7039447E+002
3	0	1.063149786615322E+003	2.1926451E-001	-2.7037326E+002
3	0	1.063649786602691E+003	2.1907970E-001	-2.7037677E+002
3	0	1.064149786590060E+003	2.1890043E-001	-2.7040155E+002
3	0	1.064649786577429E+003	2.1870065E-001	-2.7037326E+002
3	0	1.065149786564798E+003	2.1848077E-001	-2.7038742E+002
3	0	1.065649786552167E+003	2.1828634E-001	-2.7036618E+002
3	0	1.066149786539536E+003	2.1812281E-001	-2.7036972E+002
3	0	1.066649786526905E+003	2.1795668E-001	-2.7040155E+002
3	0	1.067149786514274E+003	2.1778738E-001	-2.7038031E+002
3	0	1.067649786501643E+003	2.1761942E-001	-2.7038742E+002
3	0	1.068149786489012E+003	2.1745540E-001	-2.7036972E+002
3	0	1.068649786476381E+003	2.1728052E-001	-2.7036972E+002
3	0	1.069149786463749E+003	2.1707726E-001	-2.7037326E+002
3	0	1.069649786451118E+003	2.1689494E-001	-2.7038385E+002
3	0	1.070149786438487E+003	2.1674088E-001	-2.7039093E+002
3	0	1.070649786425856E+003	2.1659777E-001	-2.7034851E+002
3	0	1.071149786413225E+003	2.1644486E-001	-2.7038742E+002
3	0	1.071649786400594E+003	2.1629064E-001	-2.7039093E+002
3	0	1.072149786387963E+003	2.1613552E-001	-2.7038385E+002
3	0	1.072649786375332E+003	2.1596564E-001	-2.7038385E+002
3	0	1.073149786362701E+003	2.1578436E-001	-2.7036618E+002
3	0	1.073649786350070E+003	2.1560985E-001	-2.7038385E+002
3	0	1.074149786337439E+003	2.1547878E-001	-2.7039447E+002
3	0	1.074649786324808E+003	2.1533866E-001	-2.7038385E+002
3	0	1.075149786312177E+003	2.1519892E-001	-2.7040155E+002
3	0	1.075649786299546E+003	2.1506232E-001	-2.7038385E+002
3	0	1.076149786286915E+003	2.1491805E-001	-2.7039447E+002
3	0	1.076649786274284E+003	2.1475945E-001	-2.7036267E+002
3	0	1.077149786261652E+003	2.1458326E-001	-2.7038031E+002
3	0	1.077649786249021E+003	2.1442176E-001	-2.7037677E+002
3	0	1.078149786236390E+003	2.1429315E-001	-2.7035913E+002
3	0	1.078649786223759E+003	2.1415983E-001	-2.7038742E+002
3	0	1.079149786211128E+003	2.1403047E-001	-2.7041568E+002
3	0	1.079649786198497E+003	2.1390299E-001	-2.7040155E+002
3	0	1.080149786185866E+003	2.1377172E-001	-2.7037326E+002
3	0	1.080649786173235E+003	2.1362881E-001	-2.7037326E+002
3	0	1.081149786160604E+003	2.1346387E-001	-2.7039801E+002
3	0	1.081649786147973E+003	2.1331878E-001	-2.7037326E+002
3	0	1.082149786135342E+003	2.1320440E-001	-2.7036618E+002
3	0	1.082649786122711E+003	2.1308680E-001	-2.7038385E+002
3	0	1.083149786110080E+003	2.1296857E-001	-2.7037677E+002
3	0	1.083649786097449E+003	2.1285076E-001	-2.7038031E+002
3	0	1.084149786084818E+003	2.1273156E-001	-2.7037326E+002
3	0	1.084649786072187E+003	2.1259908E-001	-2.7038031E+002
3	0	1.085149786059555E+003	2.1244279E-001	-2.7036972E+002
3	0	1.085174386058934E+003	2.1235476E-001	-2.7039447E+002