EC-Lab ASCII FILE
Nb header lines : 55                          

Open Circuit Voltage

Run on channel : 1 (SN 81504)
User : 
CE vs. WE compliance from -10 V to 10 V
Electrode connection : standard
Potential control : Ewe
Ewe ctrl range : min = -2.50 V, max = 2.50 V
Safety Limits :
	Do not start on E overload
Acquisition started on : 05/10/2026 02:27:32.112
Loaded Setting File :  C:\PEM-WE_measurements\2026\372_IV_IV IrOx, 5 min Pt, 30 min C, etched cathode\new station\Loopeis new\1,46 V different time gaps closed cell\Loopeis 1,46V_60s_3_PEIS from 6500Hz to 1000Hz.mps
Saved on :
	File : L_13_Loopeis 1,46V_60s_3_PEIS from 6500Hz to 1000Hz_18_OCV_C01.mpr
	Directory : C:\PEM-WE_measurements\2026\372_IV_IV IrOx, 5 min Pt, 30 min C, etched cathode\new station\Loopeis new\1,46 V different time gaps closed cell\
	Host : 192.168.0.2
Device : SP-150e (SN .005491)
Address : 192.168.0.91
EC-LAB for windows v11.71 (software)
Internet server v28.00 (firmware)
Command interpretor v14.01 (firmware)
Electrode material : 
Initial state : 
Electrolyte : 
Comments : 
Current amplifier : SP-150eB-20A
Electrode surface area : 0.001 cm²
Characteristic mass : 0.001 g
Equivalent Weight : 0.000 g/eq.
Density : 0.000 g/cm3
Volume (V) : 0.001 cm³
Record Analogic IN 1
Text export
   Mode : Standard
   Time format : Elapsed
Cycle Definition : Charge/Discharge alternance
External device configuration :
   device type : Temperature Probe
   device name : Other
   Analog IN 1 : 
      unit : T/Â°C
      max : 100.000 at 2.000 V
      min : 0.000 at 1.460 V
tR (h:m:s)          0:01:0.0000         
dER/dt (mV/h)       1.0                 
record              <Ewe>               
dER (mV)            10.00               
dtR (s)             0.5000              
E range min (V)     -2.500              
E range max (V)     2.500               

mode	error	time/s	<Ewe/V>	Analog IN 1/V	
3	0	8.919469910328189E+002	1.4160002E+000	-2.7038031E+002
3	0	8.924469910201879E+002	1.4069715E+000	-2.7039447E+002
3	0	8.929469910075568E+002	1.4009768E+000	-2.7039093E+002
3	0	8.934469909949257E+002	1.3965317E+000	-2.7037677E+002
3	0	8.939469909822947E+002	1.3928648E+000	-2.7039801E+002
3	0	8.944469909696636E+002	1.3896942E+000	-2.7038031E+002
3	0	8.949469909570325E+002	1.3870033E+000	-2.7037326E+002
3	0	8.954469909444015E+002	1.3846401E+000	-2.7038031E+002
3	0	8.959469909317704E+002	1.3825047E+000	-2.7035913E+002
3	0	8.964469909191394E+002	1.3805555E+000	-2.7039801E+002
3	0	8.969469909065083E+002	1.3787729E+000	-2.7039447E+002
3	0	8.974469908938772E+002	1.3770853E+000	-2.7036972E+002
3	0	8.979469908812462E+002	1.3754340E+000	-2.7038742E+002
3	0	8.984469908686151E+002	1.3738347E+000	-2.7039447E+002
3	0	8.989469908559840E+002	1.3724105E+000	-2.7038385E+002
3	0	8.994469908433530E+002	1.3710980E+000	-2.7035559E+002
3	0	8.999469908307219E+002	1.3698878E+000	-2.7038742E+002
3	0	9.004469908180909E+002	1.3687456E+000	-2.7035559E+002
3	0	9.009469908054598E+002	1.3677002E+000	-2.7037326E+002
3	0	9.014469907928287E+002	1.3666735E+000	-2.7038742E+002
3	0	9.019469907801977E+002	1.3656356E+000	-2.7040506E+002
3	0	9.024469907675666E+002	1.3646309E+000	-2.7037677E+002
3	0	9.029469907549355E+002	1.3637595E+000	-2.7039093E+002
3	0	9.034469907423045E+002	1.3629787E+000	-2.7036267E+002
3	0	9.039469907296734E+002	1.3622383E+000	-2.7036972E+002
3	0	9.044469907170424E+002	1.3615344E+000	-2.7038385E+002
3	0	9.049469907044113E+002	1.3608743E+000	-2.7037326E+002
3	0	9.054469906917802E+002	1.3602139E+000	-2.7036972E+002
3	0	9.059469906791492E+002	1.3595043E+000	-2.7036972E+002
3	0	9.064469906665181E+002	1.3587763E+000	-2.7037326E+002
3	0	9.069469906538870E+002	1.3581762E+000	-2.7038385E+002
3	0	9.074469906412560E+002	1.3576355E+000	-2.7041214E+002
3	0	9.079469906286249E+002	1.3571154E+000	-2.7037326E+002
3	0	9.084469906159939E+002	1.3566160E+000	-2.7039093E+002
3	0	9.089469906033628E+002	1.3561362E+000	-2.7038385E+002
3	0	9.094469905907317E+002	1.3556453E+000	-2.7038385E+002
3	0	9.099469905781007E+002	1.3550941E+000	-2.7039093E+002
3	0	9.104469905654696E+002	1.3545033E+000	-2.7037677E+002
3	0	9.109469905528385E+002	1.3540275E+000	-2.7035913E+002
3	0	9.114469905402075E+002	1.3535984E+000	-2.7038385E+002
3	0	9.119469905275764E+002	1.3531739E+000	-2.7035559E+002
3	0	9.124469905149454E+002	1.3527550E+000	-2.7037677E+002
3	0	9.129469905023143E+002	1.3523537E+000	-2.7038742E+002
3	0	9.134469904896832E+002	1.3519303E+000	-2.7038385E+002
3	0	9.139469904770522E+002	1.3514278E+000	-2.7040860E+002
3	0	9.144469904644211E+002	1.3509005E+000	-2.7037677E+002
3	0	9.149469904517900E+002	1.3504820E+000	-2.7038031E+002
3	0	9.154469904391590E+002	1.3501055E+000	-2.7037677E+002
3	0	9.159469904265279E+002	1.3497398E+000	-2.7034851E+002
3	0	9.164469904138969E+002	1.3493696E+000	-2.7035559E+002
3	0	9.169469904012658E+002	1.3490121E+000	-2.7036618E+002
3	0	9.174469903886347E+002	1.3486291E+000	-2.7040155E+002
3	0	9.179469903760037E+002	1.3481739E+000	-2.7036972E+002
3	0	9.184469903633726E+002	1.3476939E+000	-2.7038385E+002
3	0	9.189469903507415E+002	1.3473355E+000	-2.7040860E+002
3	0	9.194469903381105E+002	1.3470279E+000	-2.7039801E+002
3	0	9.199469903254794E+002	1.3467191E+000	-2.7039093E+002
3	0	9.204469903128484E+002	1.3464329E+000	-2.7037326E+002
3	0	9.209469903002173E+002	1.3461593E+000	-2.7038385E+002
3	0	9.214469902875862E+002	1.3458786E+000	-2.7038742E+002
3	0	9.219469902749552E+002	1.3455280E+000	-2.7039801E+002
3	0	9.224469902623241E+002	1.3451433E+000	-2.7037677E+002
3	0	9.229469902496930E+002	1.3448613E+000	-2.7037677E+002
3	0	9.234469902370620E+002	1.3446192E+000	-2.7040155E+002
3	0	9.239469902244309E+002	1.3443779E+000	-2.7038031E+002
3	0	9.244469902117999E+002	1.3441435E+000	-2.7036267E+002
3	0	9.249469901991688E+002	1.3439049E+000	-2.7038031E+002
3	0	9.254469901865377E+002	1.3436298E+000	-2.7037326E+002
3	0	9.259469901739067E+002	1.3432931E+000	-2.7036267E+002
3	0	9.264469901612756E+002	1.3429000E+000	-2.7037326E+002
3	0	9.269469901486445E+002	1.3426158E+000	-2.7036618E+002
3	0	9.274469901360135E+002	1.3423699E+000	-2.7039801E+002
3	0	9.279469901233824E+002	1.3421230E+000	-2.7036267E+002
3	0	9.284469901107514E+002	1.3418672E+000	-2.7038742E+002
3	0	9.289469900981203E+002	1.3416171E+000	-2.7040155E+002
3	0	9.294469900854892E+002	1.3413095E+000	-2.7039093E+002
3	0	9.299469900728582E+002	1.3409321E+000	-2.7038385E+002
3	0	9.304469900602271E+002	1.3405294E+000	-2.7039801E+002
3	0	9.309469900475960E+002	1.3402202E+000	-2.7036972E+002
3	0	9.314469900349650E+002	1.3399315E+000	-2.7036972E+002
3	0	9.319469900223339E+002	1.3396461E+000	-2.7037326E+002
3	0	9.324469900097029E+002	1.3393552E+000	-2.7036972E+002
3	0	9.329469899970718E+002	1.3390795E+000	-2.7039093E+002
3	0	9.334469899844407E+002	1.3387560E+000	-2.7038742E+002
3	0	9.339469899718097E+002	1.3383527E+000	-2.7038742E+002
3	0	9.344469899591786E+002	1.3379222E+000	-2.7039093E+002
3	0	9.349469899465475E+002	1.3375912E+000	-2.7038031E+002
3	0	9.354469899339165E+002	1.3372855E+000	-2.7038742E+002
3	0	9.359469899212854E+002	1.3369652E+000	-2.7038742E+002
3	0	9.364469899086544E+002	1.3366470E+000	-2.7035913E+002
3	0	9.369469898960233E+002	1.3363339E+000	-2.7036618E+002
3	0	9.374469898833922E+002	1.3359908E+000	-2.7038031E+002
3	0	9.379469898707612E+002	1.3355888E+000	-2.7037677E+002
3	0	9.384469898581301E+002	1.3351572E+000	-2.7039093E+002
3	0	9.389469898454990E+002	1.3348202E+000	-2.7037677E+002
3	0	9.394469898328680E+002	1.3345344E+000	-2.7037326E+002
3	0	9.399469898202369E+002	1.3342546E+000	-2.7036618E+002
3	0	9.404469898076059E+002	1.3339938E+000	-2.7038742E+002
3	0	9.409469897949748E+002	1.3337409E+000	-2.7036267E+002
3	0	9.414469897823437E+002	1.3334593E+000	-2.7038742E+002
3	0	9.419469897697127E+002	1.3331115E+000	-2.7038742E+002
3	0	9.424469897570816E+002	1.3327456E+000	-2.7037326E+002
3	0	9.429469897444505E+002	1.3324698E+000	-2.7040506E+002
3	0	9.434469897318195E+002	1.3322289E+000	-2.7035913E+002
3	0	9.439469897191884E+002	1.3319850E+000	-2.7036618E+002
3	0	9.444469897065574E+002	1.3317598E+000	-2.7039093E+002
3	0	9.449469896939263E+002	1.3315190E+000	-2.7037677E+002
3	0	9.454469896812952E+002	1.3312629E+000	-2.7038742E+002
3	0	9.459469896686642E+002	1.3309208E+000	-2.7035913E+002
3	0	9.464469896560331E+002	1.3305614E+000	-2.7036267E+002
3	0	9.469469896434020E+002	1.3302915E+000	-2.7037677E+002
3	0	9.474469896307710E+002	1.3300331E+000	-2.7040860E+002
3	0	9.479469896181399E+002	1.3297732E+000	-2.7036618E+002
3	0	9.484469896055089E+002	1.3295140E+000	-2.7039093E+002
3	0	9.489469895928778E+002	1.3292563E+000	-2.7038031E+002
3	0	9.494469895802467E+002	1.3289623E+000	-2.7037326E+002
3	0	9.499469895676157E+002	1.3285990E+000	-2.7039093E+002
3	0	9.504469895549846E+002	1.3281901E+000	-2.7035913E+002
3	0	9.509469895423535E+002	1.3278896E+000	-2.7039093E+002
3	0	9.514469895297225E+002	1.3276104E+000	-2.7036618E+002
3	0	9.514473895297124E+002	1.3275057E+000	-2.7039801E+002