EC-Lab ASCII FILE
Nb header lines : 55                          

Open Circuit Voltage

Run on channel : 1 (SN 81504)
User : 
CE vs. WE compliance from -10 V to 10 V
Electrode connection : standard
Potential control : Ewe
Ewe ctrl range : min = -2.50 V, max = 2.50 V
Safety Limits :
	Do not start on E overload
Acquisition started on : 05/10/2026 09:06:36.404
Loaded Setting File :  C:\PEM-WE_measurements\2026\372_IV_IV IrOx, 5 min Pt, 30 min C, etched cathode\new station\Loopeis new\1,46 V different time gaps closed cell\Loopeis 1,46V_180s_3_PEIS from 6500Hz to 1000Hz.mps
Saved on :
	File : L_28_Loopeis 1,46V_180s_3_PEIS from 6500Hz to 1000Hz_18_OCV_C01.mpr
	Directory : C:\PEM-WE_measurements\2026\372_IV_IV IrOx, 5 min Pt, 30 min C, etched cathode\new station\Loopeis new\1,46 V different time gaps closed cell\
	Host : 192.168.0.2
Device : SP-150e (SN .005491)
Address : 192.168.0.91
EC-LAB for windows v11.71 (software)
Internet server v28.00 (firmware)
Command interpretor v14.01 (firmware)
Electrode material : 
Initial state : 
Electrolyte : 
Comments : 
Current amplifier : SP-150eB-20A
Electrode surface area : 0.001 cm²
Characteristic mass : 0.001 g
Equivalent Weight : 0.000 g/eq.
Density : 0.000 g/cm3
Volume (V) : 0.001 cm³
Record Analogic IN 1
Text export
   Mode : Standard
   Time format : Elapsed
Cycle Definition : Charge/Discharge alternance
External device configuration :
   device type : Temperature Probe
   device name : Other
   Analog IN 1 : 
      unit : T/Â°C
      max : 100.000 at 2.000 V
      min : 0.000 at 1.460 V
tR (h:m:s)          0:03:0.0000         
dER/dt (mV/h)       1.0                 
record              <Ewe>               
dER (mV)            10.00               
dtR (s)             0.5000              
E range min (V)     -2.500              
E range max (V)     2.500               

mode	error	time/s	<Ewe/V>	Analog IN 1/V	
3	0	1.849854966681814E+003	1.2907804E+000	-2.7037326E+002
3	0	1.850354966669183E+003	1.2954979E+000	-2.7038031E+002
3	0	1.850854966656552E+003	1.2812233E+000	-2.7038385E+002
3	0	1.851354966643921E+003	1.2540507E+000	-2.7037677E+002
3	0	1.851854966631290E+003	1.2078342E+000	-2.7035559E+002
3	0	1.852354966618659E+003	1.1223555E+000	-2.7039801E+002
3	0	1.852854966606028E+003	8.2517368E-001	-2.7037326E+002
3	0	1.853354966593397E+003	4.7020167E-001	-2.7038742E+002
3	0	1.853854966580766E+003	3.6915129E-001	-2.7038031E+002
3	0	1.854354966568135E+003	3.5090914E-001	-2.7039447E+002
3	0	1.854854966555504E+003	3.4926394E-001	-2.7039093E+002
3	0	1.855354966542873E+003	3.5051009E-001	-2.7038385E+002
3	0	1.855854966530242E+003	3.5214350E-001	-2.7038031E+002
3	0	1.856354966517611E+003	3.5363385E-001	-2.7037677E+002
3	0	1.856854966504980E+003	3.5452288E-001	-2.7040860E+002
3	0	1.857354966492348E+003	3.5517019E-001	-2.7038742E+002
3	0	1.857854966479717E+003	3.5562652E-001	-2.7037677E+002
3	0	1.858354966467086E+003	3.5599929E-001	-2.7036972E+002
3	0	1.858854966454455E+003	3.5626316E-001	-2.7039447E+002
3	0	1.859354966441824E+003	3.5641882E-001	-2.7038031E+002
3	0	1.859854966429193E+003	3.5669485E-001	-2.7040155E+002
3	0	1.860354966416562E+003	3.5720208E-001	-2.7037326E+002
3	0	1.860854966403931E+003	3.5749796E-001	-2.7037326E+002
3	0	1.861354966391300E+003	3.5780337E-001	-2.7038742E+002
3	0	1.861854966378669E+003	3.5806844E-001	-2.7036618E+002
3	0	1.862354966366038E+003	3.5831341E-001	-2.7036267E+002
3	0	1.862854966353407E+003	3.5843307E-001	-2.7036972E+002
3	0	1.863354966340776E+003	3.5847476E-001	-2.7036972E+002
3	0	1.863854966328145E+003	3.5865760E-001	-2.7039093E+002
3	0	1.864354966315514E+003	3.5907581E-001	-2.7036972E+002
3	0	1.864854966302883E+003	3.5930711E-001	-2.7037326E+002
3	0	1.865354966290251E+003	3.5955194E-001	-2.7038031E+002
3	0	1.865854966277620E+003	3.5974610E-001	-2.7037677E+002
3	0	1.866354966264989E+003	3.5990429E-001	-2.7038031E+002
3	0	1.866854966252358E+003	3.5998955E-001	-2.7035913E+002
3	0	1.867354966239727E+003	3.5995778E-001	-2.7036267E+002
3	0	1.867854966227096E+003	3.6005723E-001	-2.7035559E+002
3	0	1.868354966214465E+003	3.6040482E-001	-2.7039093E+002
3	0	1.868854966201834E+003	3.6055759E-001	-2.7036972E+002
3	0	1.869354966189203E+003	3.6072627E-001	-2.7037326E+002
3	0	1.869854966176572E+003	3.6085087E-001	-2.7039093E+002
3	0	1.870354966163941E+003	3.6093032E-001	-2.7036618E+002
3	0	1.870854966151310E+003	3.6093143E-001	-2.7036618E+002
3	0	1.871354966138679E+003	3.6085138E-001	-2.7036618E+002
3	0	1.871854966126048E+003	3.6090595E-001	-2.7037677E+002
3	0	1.872354966113417E+003	3.6121744E-001	-2.7037326E+002
3	0	1.872854966100786E+003	3.6141211E-001	-2.7036972E+002
3	0	1.873354966088154E+003	3.6165485E-001	-2.7038742E+002
3	0	1.873854966075523E+003	3.6188728E-001	-2.7036267E+002
3	0	1.874354966062892E+003	3.6216393E-001	-2.7040155E+002
3	0	1.874854966050261E+003	3.6240295E-001	-2.7037326E+002
3	0	1.875354966037630E+003	3.6255527E-001	-2.7038742E+002
3	0	1.875854966024999E+003	3.6287892E-001	-2.7038385E+002
3	0	1.876354966012368E+003	3.6342406E-001	-2.7037677E+002
3	0	1.876854965999737E+003	3.6376363E-001	-2.7038742E+002
3	0	1.877354965987106E+003	3.6408234E-001	-2.7035913E+002
3	0	1.877854965974475E+003	3.6431000E-001	-2.7036267E+002
3	0	1.878354965961844E+003	3.6449429E-001	-2.7038742E+002
3	0	1.878854965949213E+003	3.6456227E-001	-2.7036618E+002
3	0	1.879354965936582E+003	3.6452296E-001	-2.7036972E+002
3	0	1.879854965923951E+003	3.6455941E-001	-2.7038031E+002
3	0	1.880354965911320E+003	3.6485681E-001	-2.7037677E+002
3	0	1.880854965898689E+003	3.6496487E-001	-2.7037326E+002
3	0	1.881354965886057E+003	3.6506417E-001	-2.7039801E+002
3	0	1.881854965873426E+003	3.6507264E-001	-2.7035559E+002
3	0	1.882354965860795E+003	3.6504975E-001	-2.7036618E+002
3	0	1.882854965848164E+003	3.6493579E-001	-2.7037326E+002
3	0	1.883354965835533E+003	3.6477593E-001	-2.7035559E+002
3	0	1.883854965822902E+003	3.6470255E-001	-2.7035559E+002
3	0	1.884354965810271E+003	3.6487147E-001	-2.7035559E+002
3	0	1.884854965797640E+003	3.6487088E-001	-2.7036972E+002
3	0	1.885354965785009E+003	3.6485788E-001	-2.7039801E+002
3	0	1.885854965772378E+003	3.6479902E-001	-2.7036618E+002
3	0	1.886354965759747E+003	3.6471093E-001	-2.7038031E+002
3	0	1.886854965747116E+003	3.6454388E-001	-2.7039093E+002
3	0	1.887354965734485E+003	3.6430734E-001	-2.7039801E+002
3	0	1.887854965721854E+003	3.6415657E-001	-2.7040155E+002
3	0	1.888354965709223E+003	3.6426046E-001	-2.7038031E+002
3	0	1.888854965696592E+003	3.6421961E-001	-2.7039093E+002
3	0	1.889354965683960E+003	3.6418787E-001	-2.7038742E+002
3	0	1.889854965671329E+003	3.6410674E-001	-2.7037677E+002
3	0	1.890354965658698E+003	3.6399058E-001	-2.7039093E+002
3	0	1.890854965646067E+003	3.6381423E-001	-2.7037326E+002
3	0	1.891354965633436E+003	3.6356941E-001	-2.7036972E+002
3	0	1.891854965620805E+003	3.6340296E-001	-2.7036972E+002
3	0	1.892354965608174E+003	3.6349532E-001	-2.7040155E+002
3	0	1.892854965595543E+003	3.6346349E-001	-2.7039093E+002
3	0	1.893354965582912E+003	3.6349130E-001	-2.7038385E+002
3	0	1.893854965570281E+003	3.6352190E-001	-2.7038385E+002
3	0	1.894354965557650E+003	3.6359283E-001	-2.7040155E+002
3	0	1.894854965545019E+003	3.6364430E-001	-2.7035205E+002
3	0	1.895354965532388E+003	3.6367297E-001	-2.7038031E+002
3	0	1.895854965519757E+003	3.6381674E-001	-2.7036618E+002
3	0	1.896354965507126E+003	3.6420724E-001	-2.7038742E+002
3	0	1.896854965494495E+003	3.6445105E-001	-2.7039093E+002
3	0	1.897354965481863E+003	3.6464509E-001	-2.7038031E+002
3	0	1.897854965469232E+003	3.6474136E-001	-2.7036267E+002
3	0	1.898354965456601E+003	3.6477607E-001	-2.7037326E+002
3	0	1.898854965443970E+003	3.6468831E-001	-2.7036972E+002
3	0	1.899354965431339E+003	3.6448631E-001	-2.7035913E+002
3	0	1.899854965418708E+003	3.6436301E-001	-2.7039093E+002
3	0	1.900354965406077E+003	3.6447111E-001	-2.7038385E+002
3	0	1.900854965393446E+003	3.6444595E-001	-2.7038031E+002
3	0	1.901354965380815E+003	3.6441404E-001	-2.7037326E+002
3	0	1.901854965368184E+003	3.6433437E-001	-2.7037326E+002
3	0	1.902354965355553E+003	3.6420166E-001	-2.7039801E+002
3	0	1.902854965342922E+003	3.6399195E-001	-2.7040155E+002
3	0	1.903354965330291E+003	3.6367950E-001	-2.7036972E+002
3	0	1.903854965317660E+003	3.6346051E-001	-2.7039801E+002
3	0	1.904354965305029E+003	3.6349240E-001	-2.7037326E+002
3	0	1.904854965292398E+003	3.6338735E-001	-2.7036618E+002
3	0	1.905354965279766E+003	3.6326399E-001	-2.7040506E+002
3	0	1.905854965267135E+003	3.6311603E-001	-2.7039447E+002
3	0	1.906354965254504E+003	3.6294782E-001	-2.7036618E+002
3	0	1.906854965241873E+003	3.6273119E-001	-2.7039093E+002
3	0	1.907354965229242E+003	3.6242640E-001	-2.7039447E+002
3	0	1.907854965216611E+003	3.6217898E-001	-2.7038385E+002
3	0	1.908354965203980E+003	3.6217502E-001	-2.7035913E+002
3	0	1.908854965191349E+003	3.6205435E-001	-2.7039447E+002
3	0	1.909354965178718E+003	3.6192349E-001	-2.7038031E+002
3	0	1.909854965166087E+003	3.6174127E-001	-2.7039447E+002
3	0	1.910354965153456E+003	3.6155033E-001	-2.7039447E+002
3	0	1.910854965140825E+003	3.6127260E-001	-2.7038742E+002
3	0	1.911354965128194E+003	3.6092597E-001	-2.7036267E+002
3	0	1.911854965115563E+003	3.6066765E-001	-2.7037677E+002
3	0	1.912354965102932E+003	3.6065924E-001	-2.7036618E+002
3	0	1.912854965090301E+003	3.6056206E-001	-2.7038031E+002
3	0	1.913354965077669E+003	3.6049539E-001	-2.7035205E+002
3	0	1.913854965065038E+003	3.6046264E-001	-2.7038031E+002
3	0	1.914354965052407E+003	3.6045840E-001	-2.7038742E+002
3	0	1.914854965039776E+003	3.6042944E-001	-2.7039447E+002
3	0	1.915354965027145E+003	3.6036935E-001	-2.7038385E+002
3	0	1.915854965014514E+003	3.6042991E-001	-2.7035913E+002
3	0	1.916354965001883E+003	3.6074597E-001	-2.7036618E+002
3	0	1.916854964989252E+003	3.6093318E-001	-2.7038385E+002
3	0	1.917354964976621E+003	3.6104506E-001	-2.7040506E+002
3	0	1.917854964963990E+003	3.6107853E-001	-2.7039447E+002
3	0	1.918354964951359E+003	3.6104903E-001	-2.7038031E+002
3	0	1.918854964938728E+003	3.6091837E-001	-2.7037326E+002
3	0	1.919354964926097E+003	3.6069855E-001	-2.7037677E+002
3	0	1.919854964913466E+003	3.6051539E-001	-2.7038742E+002
3	0	1.920354964900835E+003	3.6054897E-001	-2.7036972E+002
3	0	1.920854964888204E+003	3.6047843E-001	-2.7038385E+002
3	0	1.921354964875572E+003	3.6037564E-001	-2.7038385E+002
3	0	1.921854964862941E+003	3.6022639E-001	-2.7038742E+002
3	0	1.922354964850310E+003	3.5999304E-001	-2.7038031E+002
3	0	1.922854964837679E+003	3.5963988E-001	-2.7038742E+002
3	0	1.923354964825048E+003	3.5947728E-001	-2.7036972E+002
3	0	1.923854964812417E+003	3.5931253E-001	-2.7038385E+002
3	0	1.924354964799786E+003	3.5931391E-001	-2.7039093E+002
3	0	1.924854964787155E+003	3.5921165E-001	-2.7038385E+002
3	0	1.925354964774524E+003	3.5903159E-001	-2.7037326E+002
3	0	1.925854964761893E+003	3.5882387E-001	-2.7038742E+002
3	0	1.926354964749262E+003	3.5862321E-001	-2.7039801E+002
3	0	1.926854964736631E+003	3.5831267E-001	-2.7040506E+002
3	0	1.927354964724000E+003	3.5792235E-001	-2.7040860E+002
3	0	1.927854964711369E+003	3.5762027E-001	-2.7036972E+002
3	0	1.928354964698738E+003	3.5758498E-001	-2.7037677E+002
3	0	1.928854964686107E+003	3.5750720E-001	-2.7038385E+002
3	0	1.929354964673475E+003	3.5734978E-001	-2.7039093E+002
3	0	1.929854964660844E+003	3.5713595E-001	-2.7037677E+002
3	0	1.930354964648213E+003	3.5688818E-001	-2.7037326E+002
3	0	1.930854964635582E+003	3.5660228E-001	-2.7039447E+002
3	0	1.931354964622951E+003	3.5621116E-001	-2.7038742E+002
3	0	1.931854964610320E+003	3.5591254E-001	-2.7039093E+002
3	0	1.932354964597689E+003	3.5586393E-001	-2.7038031E+002
3	0	1.932854964585058E+003	3.5581225E-001	-2.7035913E+002
3	0	1.933354964572427E+003	3.5568514E-001	-2.7039801E+002
3	0	1.933854964559796E+003	3.5557947E-001	-2.7039093E+002
3	0	1.934354964547165E+003	3.5549980E-001	-2.7035913E+002
3	0	1.934854964534534E+003	3.5539049E-001	-2.7036618E+002
3	0	1.935354964521903E+003	3.5526869E-001	-2.7036267E+002
3	0	1.935854964509272E+003	3.5526240E-001	-2.7039093E+002
3	0	1.936354964496641E+003	3.5543931E-001	-2.7038385E+002
3	0	1.936854964484010E+003	3.5560983E-001	-2.7039093E+002
3	0	1.937354964471378E+003	3.5571995E-001	-2.7036972E+002
3	0	1.937854964458747E+003	3.5578531E-001	-2.7039093E+002
3	0	1.938354964446116E+003	3.5579056E-001	-2.7038742E+002
3	0	1.938854964433485E+003	3.5566524E-001	-2.7034851E+002
3	0	1.939354964420854E+003	3.5542494E-001	-2.7036267E+002
3	0	1.939854964408223E+003	3.5520625E-001	-2.7033789E+002
3	0	1.940354964395592E+003	3.5523966E-001	-2.7037326E+002
3	0	1.940854964382961E+003	3.5526267E-001	-2.7038031E+002
3	0	1.941354964370330E+003	3.5518628E-001	-2.7035559E+002
3	0	1.941854964357699E+003	3.5502887E-001	-2.7038031E+002
3	0	1.942354964345068E+003	3.5483038E-001	-2.7038031E+002
3	0	1.942854964332437E+003	3.5457855E-001	-2.7036972E+002
3	0	1.943354964319806E+003	3.5425156E-001	-2.7035205E+002
3	0	1.943854964307175E+003	3.5397595E-001	-2.7040506E+002
3	0	1.944354964294544E+003	3.5392728E-001	-2.7040155E+002
3	0	1.944854964281913E+003	3.5385451E-001	-2.7038031E+002
3	0	1.945354964269281E+003	3.5365871E-001	-2.7039801E+002
3	0	1.945854964256650E+003	3.5344645E-001	-2.7035205E+002
3	0	1.946354964244019E+003	3.5321787E-001	-2.7038031E+002
3	0	1.946854964231388E+003	3.5292202E-001	-2.7037677E+002
3	0	1.947354964218757E+003	3.5254467E-001	-2.7038385E+002
3	0	1.947854964206126E+003	3.5222799E-001	-2.7037326E+002
3	0	1.948354964193495E+003	3.5216045E-001	-2.7038742E+002
3	0	1.948854964180864E+003	3.5205805E-001	-2.7036618E+002
3	0	1.949354964168233E+003	3.5187179E-001	-2.7038742E+002
3	0	1.949854964155602E+003	3.5166579E-001	-2.7038385E+002
3	0	1.950354964142971E+003	3.5145575E-001	-2.7036972E+002
3	0	1.950854964130340E+003	3.5116738E-001	-2.7036618E+002
3	0	1.951354964117709E+003	3.5077232E-001	-2.7037326E+002
3	0	1.951854964105078E+003	3.5046226E-001	-2.7038385E+002
3	0	1.952354964092447E+003	3.5039642E-001	-2.7038385E+002
3	0	1.952854964079816E+003	3.5031551E-001	-2.7036972E+002
3	0	1.953354964067184E+003	3.5018498E-001	-2.7037326E+002
3	0	1.953854964054553E+003	3.5005951E-001	-2.7037677E+002
3	0	1.954354964041922E+003	3.4997916E-001	-2.7039801E+002
3	0	1.954854964029291E+003	3.4988725E-001	-2.7040155E+002
3	0	1.955354964016660E+003	3.4976444E-001	-2.7036972E+002
3	0	1.955854964004029E+003	3.4971049E-001	-2.7037677E+002
3	0	1.956354963991398E+003	3.4988087E-001	-2.7036618E+002
3	0	1.956854963978767E+003	3.5013509E-001	-2.7039093E+002
3	0	1.957354963966136E+003	3.5031238E-001	-2.7037677E+002
3	0	1.957854963953505E+003	3.5044071E-001	-2.7037677E+002
3	0	1.958354963940874E+003	3.5051429E-001	-2.7038031E+002
3	0	1.958854963928243E+003	3.5044637E-001	-2.7038031E+002
3	0	1.959354963915612E+003	3.5022655E-001	-2.7036972E+002
3	0	1.959854963902981E+003	3.5008246E-001	-2.7039801E+002
3	0	1.960354963890350E+003	3.5013729E-001	-2.7037326E+002
3	0	1.960854963877719E+003	3.5015035E-001	-2.7037326E+002
3	0	1.961354963865087E+003	3.5005203E-001	-2.7041214E+002
3	0	1.961854963852456E+003	3.4989533E-001	-2.7037326E+002
3	0	1.962354963839825E+003	3.4969392E-001	-2.7036618E+002
3	0	1.962854963827194E+003	3.4944168E-001	-2.7038385E+002
3	0	1.963354963814563E+003	3.4911293E-001	-2.7037677E+002
3	0	1.963854963801932E+003	3.4881085E-001	-2.7036972E+002
3	0	1.964354963789301E+003	3.4874812E-001	-2.7038742E+002
3	0	1.964854963776670E+003	3.4867963E-001	-2.7037677E+002
3	0	1.965354963764039E+003	3.4851182E-001	-2.7038742E+002
3	0	1.965854963751408E+003	3.4831974E-001	-2.7035559E+002
3	0	1.966354963738777E+003	3.4810489E-001	-2.7036972E+002
3	0	1.966854963726146E+003	3.4781417E-001	-2.7036972E+002
3	0	1.967354963713515E+003	3.4746850E-001	-2.7035205E+002
3	0	1.967854963700884E+003	3.4715149E-001	-2.7037326E+002
3	0	1.968354963688253E+003	3.4707040E-001	-2.7038742E+002
3	0	1.968854963675622E+003	3.4696436E-001	-2.7038385E+002
3	0	1.969354963662990E+003	3.4676409E-001	-2.7038385E+002
3	0	1.969854963650359E+003	3.4653860E-001	-2.7036267E+002
3	0	1.970354963637728E+003	3.4630322E-001	-2.7038385E+002
3	0	1.970854963625097E+003	3.4599897E-001	-2.7039447E+002
3	0	1.971354963612466E+003	3.4558797E-001	-2.7038031E+002
3	0	1.971854963599835E+003	3.4524986E-001	-2.7037677E+002
3	0	1.972354963587204E+003	3.4516320E-001	-2.7037677E+002
3	0	1.972854963574573E+003	3.4508029E-001	-2.7038742E+002
3	0	1.973354963561942E+003	3.4494215E-001	-2.7037677E+002
3	0	1.973854963549311E+003	3.4480363E-001	-2.7038385E+002
3	0	1.974354963536680E+003	3.4472546E-001	-2.7038742E+002
3	0	1.974854963524049E+003	3.4462124E-001	-2.7036972E+002
3	0	1.975354963511418E+003	3.4447643E-001	-2.7038031E+002
3	0	1.975854963498787E+003	3.4442380E-001	-2.7038385E+002
3	0	1.976354963486156E+003	3.4464321E-001	-2.7036267E+002
3	0	1.976854963473525E+003	3.4487289E-001	-2.7039801E+002
3	0	1.977354963460893E+003	3.4500158E-001	-2.7039093E+002
3	0	1.977854963448262E+003	3.4503284E-001	-2.7038031E+002
3	0	1.978354963435631E+003	3.4504557E-001	-2.7036267E+002
3	0	1.978854963423000E+003	3.4495789E-001	-2.7038031E+002
3	0	1.979354963410369E+003	3.4475535E-001	-2.7039801E+002
3	0	1.979854963397738E+003	3.4456751E-001	-2.7038742E+002
3	0	1.980354963385107E+003	3.4459606E-001	-2.7038385E+002
3	0	1.980854963372476E+003	3.4460402E-001	-2.7036972E+002
3	0	1.981354963359845E+003	3.4449983E-001	-2.7037677E+002
3	0	1.981854963347214E+003	3.4432426E-001	-2.7039093E+002
3	0	1.982354963334583E+003	3.4413573E-001	-2.7037326E+002
3	0	1.982854963321952E+003	3.4386593E-001	-2.7034851E+002
3	0	1.983354963309321E+003	3.4349498E-001	-2.7035205E+002
3	0	1.983854963296690E+003	3.4317496E-001	-2.7038742E+002
3	0	1.984354963284059E+003	3.4308675E-001	-2.7038385E+002
3	0	1.984854963271428E+003	3.4300357E-001	-2.7039093E+002
3	0	1.985354963258796E+003	3.4283629E-001	-2.7035913E+002
3	0	1.985854963246165E+003	3.4262320E-001	-2.7038385E+002
3	0	1.986354963233534E+003	3.4239843E-001	-2.7036267E+002
3	0	1.986854963220903E+003	3.4212488E-001	-2.7035559E+002
3	0	1.987354963208272E+003	3.4174415E-001	-2.7034851E+002
3	0	1.987854963195641E+003	3.4141427E-001	-2.7038742E+002
3	0	1.988354963183010E+003	3.4131560E-001	-2.7037326E+002
3	0	1.988854963170379E+003	3.4121749E-001	-2.7036618E+002
3	0	1.989354963157748E+003	3.4104511E-001	-2.7038742E+002
3	0	1.989854963145117E+003	3.4079880E-001	-2.7037677E+002
3	0	1.990354963132486E+003	3.4057683E-001	-2.7037677E+002
3	0	1.990854963119855E+003	3.4030434E-001	-2.7038031E+002
3	0	1.991354963107224E+003	3.3993495E-001	-2.7035913E+002
3	0	1.991854963094593E+003	3.3961210E-001	-2.7036618E+002
3	0	1.992354963081962E+003	3.3950850E-001	-2.7037677E+002
3	0	1.992854963069331E+003	3.3942410E-001	-2.7038031E+002
3	0	1.993354963056699E+003	3.3928338E-001	-2.7035913E+002
3	0	1.993854963044068E+003	3.3913776E-001	-2.7037677E+002
3	0	1.994354963031437E+003	3.3903018E-001	-2.7034143E+002
3	0	1.994854963018806E+003	3.3889049E-001	-2.7037326E+002
3	0	1.995354963006175E+003	3.3873311E-001	-2.7039801E+002
3	0	1.995854962993544E+003	3.3867607E-001	-2.7039447E+002
3	0	1.996354962980913E+003	3.3887887E-001	-2.7036972E+002
3	0	1.996854962968282E+003	3.3911121E-001	-2.7037677E+002
3	0	1.997354962955651E+003	3.3926016E-001	-2.7036618E+002
3	0	1.997854962943020E+003	3.3934420E-001	-2.7038031E+002
3	0	1.998354962930389E+003	3.3939102E-001	-2.7036972E+002
3	0	1.998854962917758E+003	3.3932599E-001	-2.7035913E+002
3	0	1.999354962905127E+003	3.3913681E-001	-2.7037326E+002
3	0	1.999854962892496E+003	3.3894250E-001	-2.7037326E+002
3	0	2.000354962879865E+003	3.3894315E-001	-2.7038031E+002
3	0	2.000854962867234E+003	3.3893943E-001	-2.7038742E+002
3	0	2.001354962854602E+003	3.3884826E-001	-2.7038742E+002
3	0	2.001854962841971E+003	3.3869651E-001	-2.7038385E+002
3	0	2.002354962829340E+003	3.3851606E-001	-2.7037326E+002
3	0	2.002854962816709E+003	3.3825976E-001	-2.7036618E+002
3	0	2.003354962804078E+003	3.3791348E-001	-2.7038385E+002
3	0	2.003854962791447E+003	3.3760041E-001	-2.7036267E+002
3	0	2.004354962778816E+003	3.3749774E-001	-2.7038385E+002
3	0	2.004854962766185E+003	3.3741757E-001	-2.7037326E+002
3	0	2.005354962753554E+003	3.3726159E-001	-2.7041568E+002
3	0	2.005854962740923E+003	3.3706942E-001	-2.7037326E+002
3	0	2.006354962728292E+003	3.3686352E-001	-2.7039447E+002
3	0	2.006854962715661E+003	3.3653051E-001	-2.7036972E+002
3	0	2.007354962703030E+003	3.3616486E-001	-2.7039447E+002
3	0	2.007854962690399E+003	3.3587340E-001	-2.7037326E+002
3	0	2.008354962677768E+003	3.3578146E-001	-2.7040506E+002
3	0	2.008854962665137E+003	3.3569145E-001	-2.7039093E+002
3	0	2.009354962652505E+003	3.3553761E-001	-2.7038031E+002
3	0	2.009854962639874E+003	3.3533412E-001	-2.7040155E+002
3	0	2.010354962627243E+003	3.3514568E-001	-2.7040155E+002
3	0	2.010854962614612E+003	3.3491835E-001	-2.7037677E+002
3	0	2.011354962601981E+003	3.3462524E-001	-2.7039447E+002
3	0	2.011854962589350E+003	3.3442208E-001	-2.7037326E+002
3	0	2.012354962576719E+003	3.3459705E-001	-2.7040860E+002
3	0	2.012854962564088E+003	3.3520880E-001	-2.7038742E+002
3	0	2.013354962551457E+003	3.3595172E-001	-2.7038031E+002
3	0	2.013854962538826E+003	3.3730820E-001	-2.7036972E+002
3	0	2.014354962526195E+003	3.3944714E-001	-2.7037677E+002
3	0	2.014854962513564E+003	3.4019950E-001	-2.7036972E+002
3	0	2.015354962500933E+003	3.4010899E-001	-2.7037326E+002
3	0	2.015854962488302E+003	3.3950153E-001	-2.7036267E+002
3	0	2.016354962475671E+003	3.3890224E-001	-2.7039447E+002
3	0	2.016854962463040E+003	3.3842760E-001	-2.7039801E+002
3	0	2.017354962450408E+003	3.3837140E-001	-2.7037326E+002
3	0	2.017854962437777E+003	3.3823010E-001	-2.7039801E+002
3	0	2.018354962425146E+003	3.3785790E-001	-2.7036618E+002
3	0	2.018854962412515E+003	3.3729869E-001	-2.7040860E+002
3	0	2.019354962399884E+003	3.3653247E-001	-2.7036267E+002
3	0	2.019854962387253E+003	3.3593100E-001	-2.7036972E+002
3	0	2.020354962374622E+003	3.3567262E-001	-2.7036972E+002
3	0	2.020854962361991E+003	3.3552647E-001	-2.7038742E+002
3	0	2.021354962349360E+003	3.3537492E-001	-2.7039093E+002
3	0	2.021854962336729E+003	3.3518919E-001	-2.7039801E+002
3	0	2.022354962324098E+003	3.3499417E-001	-2.7035913E+002
3	0	2.022854962311467E+003	3.3474568E-001	-2.7037677E+002
3	0	2.023354962298836E+003	3.3439091E-001	-2.7038385E+002
3	0	2.023854962286205E+003	3.3403730E-001	-2.7039801E+002
3	0	2.024354962273574E+003	3.3386889E-001	-2.7038385E+002
3	0	2.024854962260943E+003	3.3371800E-001	-2.7036618E+002
3	0	2.025354962248311E+003	3.3348322E-001	-2.7037326E+002
3	0	2.025854962235680E+003	3.3321598E-001	-2.7034851E+002
3	0	2.026354962223049E+003	3.3294758E-001	-2.7040155E+002
3	0	2.026854962210418E+003	3.3261949E-001	-2.7039447E+002
3	0	2.027354962197787E+003	3.3224252E-001	-2.7038742E+002
3	0	2.027854962185156E+003	3.3188656E-001	-2.7035205E+002
3	0	2.028354962172525E+003	3.3171871E-001	-2.7038031E+002
3	0	2.028854962159894E+003	3.3158079E-001	-2.7038031E+002
3	0	2.029354962147263E+003	3.3138454E-001	-2.7038031E+002
3	0	2.029355362147253E+003	3.3128449E-001	-2.7037326E+002