EC-Lab ASCII FILE
Nb header lines : 55                          

Open Circuit Voltage

Run on channel : 1 (SN 81504)
User : 
CE vs. WE compliance from -10 V to 10 V
Electrode connection : standard
Potential control : Ewe
Ewe ctrl range : min = -2.50 V, max = 2.50 V
Safety Limits :
	Do not start on E overload
Acquisition started on : 05/10/2026 01:27:16.117
Loaded Setting File :  C:\PEM-WE_measurements\2026\372_IV_IV IrOx, 5 min Pt, 30 min C, etched cathode\new station\Loopeis new\1,46 V different time gaps closed cell\Loopeis 1,46V_45s_5_PEIS from 65Hz to 10Hz.mps
Saved on :
	File : L_10_Loopeis 1,46V_45s_5_PEIS from 65Hz to 10Hz_14_OCV_C01.mpr
	Directory : C:\PEM-WE_measurements\2026\372_IV_IV IrOx, 5 min Pt, 30 min C, etched cathode\new station\Loopeis new\1,46 V different time gaps closed cell\
	Host : 192.168.0.2
Device : SP-150e (SN .005491)
Address : 192.168.0.91
EC-LAB for windows v11.71 (software)
Internet server v28.00 (firmware)
Command interpretor v14.01 (firmware)
Electrode material : 
Initial state : 
Electrolyte : 
Comments : 
Current amplifier : SP-150eB-20A
Electrode surface area : 0.001 cm²
Characteristic mass : 0.001 g
Equivalent Weight : 0.000 g/eq.
Density : 0.000 g/cm3
Volume (V) : 0.001 cm³
Record Analogic IN 1
Text export
   Mode : Standard
   Time format : Elapsed
Cycle Definition : Charge/Discharge alternance
External device configuration :
   device type : Temperature Probe
   device name : Other
   Analog IN 1 : 
      unit : T/Â°C
      max : 100.000 at 2.000 V
      min : 0.000 at 1.460 V
tR (h:m:s)          0:00:45.0000        
dER/dt (mV/h)       1.0                 
record              <Ewe>               
dER (mV)            10.00               
dtR (s)             0.5000              
E range min (V)     -2.500              
E range max (V)     2.500               

mode	error	time/s	<Ewe/V>	Analog IN 1/V	
3	0	1.074956218279112E+003	1.4190333E+000	-2.7036267E+002
3	0	1.075456218266481E+003	1.4108880E+000	-2.7038742E+002
3	0	1.075956218253850E+003	1.4053684E+000	-2.7037326E+002
3	0	1.076456218241219E+003	1.4013209E+000	-2.7038385E+002
3	0	1.076956218228588E+003	1.3981236E+000	-2.7038385E+002
3	0	1.077456218215957E+003	1.3954263E+000	-2.7040155E+002
3	0	1.077956218203326E+003	1.3930379E+000	-2.7035205E+002
3	0	1.078456218190695E+003	1.3908337E+000	-2.7041568E+002
3	0	1.078956218178064E+003	1.3889040E+000	-2.7036618E+002
3	0	1.079456218165433E+003	1.3872038E+000	-2.7038031E+002
3	0	1.079956218152802E+003	1.3856502E+000	-2.7040506E+002
3	0	1.080456218140171E+003	1.3842086E+000	-2.7036972E+002
3	0	1.080956218127540E+003	1.3828732E+000	-2.7037677E+002
3	0	1.081456218114909E+003	1.3816139E+000	-2.7039801E+002
3	0	1.081956218102277E+003	1.3803730E+000	-2.7038742E+002
3	0	1.082456218089646E+003	1.3791199E+000	-2.7036972E+002
3	0	1.082956218077015E+003	1.3779904E+000	-2.7038031E+002
3	0	1.083456218064384E+003	1.3769715E+000	-2.7036618E+002
3	0	1.083956218051753E+003	1.3760107E+000	-2.7039801E+002
3	0	1.084456218039122E+003	1.3750839E+000	-2.7039447E+002
3	0	1.084956218026491E+003	1.3742104E+000	-2.7038031E+002
3	0	1.085456218013860E+003	1.3733491E+000	-2.7037677E+002
3	0	1.085956218001229E+003	1.3724571E+000	-2.7037677E+002
3	0	1.086456217988598E+003	1.3715371E+000	-2.7038031E+002
3	0	1.086956217975967E+003	1.3707010E+000	-2.7040155E+002
3	0	1.087456217963336E+003	1.3699681E+000	-2.7034497E+002
3	0	1.087956217950705E+003	1.3692582E+000	-2.7039447E+002
3	0	1.088456217938074E+003	1.3685646E+000	-2.7036618E+002
3	0	1.088956217925443E+003	1.3679073E+000	-2.7040155E+002
3	0	1.089456217912812E+003	1.3672352E+000	-2.7038742E+002
3	0	1.089956217900180E+003	1.3665212E+000	-2.7037677E+002
3	0	1.090456217887549E+003	1.3657600E+000	-2.7038031E+002
3	0	1.090956217874918E+003	1.3650841E+000	-2.7039093E+002
3	0	1.091456217862287E+003	1.3644733E+000	-2.7038031E+002
3	0	1.091956217849656E+003	1.3638756E+000	-2.7036972E+002
3	0	1.092456217837025E+003	1.3632917E+000	-2.7037326E+002
3	0	1.092956217824394E+003	1.3627263E+000	-2.7038385E+002
3	0	1.093456217811763E+003	1.3621656E+000	-2.7036972E+002
3	0	1.093956217799132E+003	1.3615639E+000	-2.7039093E+002
3	0	1.094456217786501E+003	1.3609155E+000	-2.7037677E+002
3	0	1.094956217773870E+003	1.3603568E+000	-2.7037326E+002
3	0	1.095456217761239E+003	1.3598723E+000	-2.7038031E+002
3	0	1.095956217748608E+003	1.3593980E+000	-2.7038385E+002
3	0	1.096456217735977E+003	1.3589168E+000	-2.7036972E+002
3	0	1.096956217723346E+003	1.3584522E+000	-2.7038385E+002
3	0	1.097456217710715E+003	1.3579855E+000	-2.7037677E+002
3	0	1.097956217698083E+003	1.3574756E+000	-2.7039447E+002
3	0	1.098456217685452E+003	1.3569124E+000	-2.7037326E+002
3	0	1.098956217672821E+003	1.3564103E+000	-2.7039093E+002
3	0	1.099456217660190E+003	1.3559756E+000	-2.7039093E+002
3	0	1.099956217647559E+003	1.3555436E+000	-2.7035913E+002
3	0	1.100456217634928E+003	1.3551275E+000	-2.7036972E+002
3	0	1.100956217622297E+003	1.3547032E+000	-2.7036267E+002
3	0	1.101456217609666E+003	1.3542656E+000	-2.7035205E+002
3	0	1.101956217597035E+003	1.3537651E+000	-2.7036972E+002
3	0	1.102456217584404E+003	1.3532109E+000	-2.7040860E+002
3	0	1.102956217571773E+003	1.3527211E+000	-2.7039093E+002
3	0	1.103456217559142E+003	1.3522925E+000	-2.7039093E+002
3	0	1.103956217546511E+003	1.3518637E+000	-2.7036618E+002
3	0	1.104456217533880E+003	1.3514279E+000	-2.7039447E+002
3	0	1.104956217521249E+003	1.3509978E+000	-2.7036618E+002
3	0	1.105456217508618E+003	1.3505552E+000	-2.7036267E+002
3	0	1.105956217495986E+003	1.3500586E+000	-2.7036972E+002
3	0	1.106456217483355E+003	1.3494982E+000	-2.7038742E+002
3	0	1.106956217470724E+003	1.3489933E+000	-2.7036267E+002
3	0	1.107456217458093E+003	1.3485482E+000	-2.7041919E+002
3	0	1.107956217445462E+003	1.3480971E+000	-2.7036267E+002
3	0	1.108456217432831E+003	1.3476398E+000	-2.7037677E+002
3	0	1.108956217420200E+003	1.3471963E+000	-2.7039093E+002
3	0	1.109456217407569E+003	1.3467308E+000	-2.7037326E+002
3	0	1.109956217394938E+003	1.3462120E+000	-2.7038385E+002
3	0	1.110456217382307E+003	1.3456377E+000	-2.7038031E+002
3	0	1.110956217369676E+003	1.3451167E+000	-2.7036267E+002
3	0	1.111456217357045E+003	1.3446561E+000	-2.7038031E+002
3	0	1.111956217344414E+003	1.3441951E+000	-2.7038742E+002
3	0	1.112456217331783E+003	1.3437413E+000	-2.7038385E+002
3	0	1.112956217319152E+003	1.3432972E+000	-2.7037677E+002
3	0	1.113456217306521E+003	1.3428334E+000	-2.7038385E+002
3	0	1.113956217293889E+003	1.3423183E+000	-2.7034497E+002
3	0	1.114456217281258E+003	1.3417604E+000	-2.7037677E+002
3	0	1.114956217268627E+003	1.3412756E+000	-2.7038385E+002
3	0	1.115456217255996E+003	1.3408540E+000	-2.7035913E+002
3	0	1.115956217243365E+003	1.3404303E+000	-2.7036972E+002
3	0	1.116456217230734E+003	1.3400229E+000	-2.7037677E+002
3	0	1.116956217218103E+003	1.3396235E+000	-2.7035205E+002
3	0	1.117456217205472E+003	1.3392171E+000	-2.7039447E+002
3	0	1.117956217192841E+003	1.3387449E+000	-2.7037677E+002
3	0	1.118456217180210E+003	1.3382117E+000	-2.7038742E+002
3	0	1.118956217167579E+003	1.3377483E+000	-2.7038742E+002
3	0	1.119456217154948E+003	1.3373396E+000	-2.7038742E+002
3	0	1.119456617154938E+003	1.3370858E+000	-2.7041214E+002