EC-Lab ASCII FILE
Nb header lines : 55                          

Open Circuit Voltage

Run on channel : 1 (SN 81504)
User : 
CE vs. WE compliance from -10 V to 10 V
Electrode connection : standard
Potential control : Ewe
Ewe ctrl range : min = -2.50 V, max = 2.50 V
Safety Limits :
	Do not start on E overload
Acquisition started on : 05/07/2026 14:54:34.266
Loaded Setting File :  C:\PEM-WE_measurements\2026\372_IV_IV IrOx, 5 min Pt, 30 min C, etched cathode\new station\Loopeis new\1,46 V different time gaps open cell\Loopeis 1,46V_30s_5_PEIS from 65Hz to 10Hz.mps
Saved on :
	File : L_05_Loopeis 1,46V_30s_5_PEIS from 65Hz to 10Hz_10_OCV_C01.mpr
	Directory : C:\PEM-WE_measurements\2026\372_IV_IV IrOx, 5 min Pt, 30 min C, etched cathode\new station\Loopeis new\1,46 V different time gaps open cell\
	Host : 192.168.0.2
Device : SP-150e (SN .005491)
Address : 192.168.0.91
EC-LAB for windows v11.71 (software)
Internet server v28.00 (firmware)
Command interpretor v14.01 (firmware)
Electrode material : 
Initial state : 
Electrolyte : 
Comments : 
Current amplifier : SP-150eB-20A
Electrode surface area : 0.001 cm²
Characteristic mass : 0.001 g
Equivalent Weight : 0.000 g/eq.
Density : 0.000 g/cm3
Volume (V) : 0.001 cm³
Record Analogic IN 1
Text export
   Mode : Standard
   Time format : Elapsed
Cycle Definition : Charge/Discharge alternance
External device configuration :
   device type : Temperature Probe
   device name : Other
   Analog IN 1 : 
      unit : T/Â°C
      max : 100.000 at 2.000 V
      min : 0.000 at 1.460 V
tR (h:m:s)          0:00:30.0000        
dER/dt (mV/h)       1.0                 
record              <Ewe>               
dER (mV)            10.00               
dtR (s)             0.5000              
E range min (V)     -2.500              
E range max (V)     2.500               

mode	error	time/s	<Ewe/V>	Analog IN 1/V	
3	0	7.975044192891073E+002	1.2762501E+000	-2.7038031E+002
3	0	7.980044192764763E+002	1.2697320E+000	-2.7038385E+002
3	0	7.985044192638452E+002	1.2300797E+000	-2.7037326E+002
3	0	7.990044192512141E+002	1.1485307E+000	-2.7036972E+002
3	0	7.995044192385831E+002	8.6332220E-001	-2.7036267E+002
3	0	8.000044192259520E+002	4.4609237E-001	-2.7038742E+002
3	0	8.005044192133209E+002	3.5278180E-001	-2.7039093E+002
3	0	8.010044192006899E+002	3.3917531E-001	-2.7035205E+002
3	0	8.015044191880588E+002	3.3052909E-001	-2.7039447E+002
3	0	8.020044191754278E+002	3.2379150E-001	-2.7039093E+002
3	0	8.025044191627967E+002	3.1873652E-001	-2.7037677E+002
3	0	8.030044191501656E+002	3.1492060E-001	-2.7038385E+002
3	0	8.035044191375346E+002	3.1195587E-001	-2.7039447E+002
3	0	8.040044191249035E+002	3.0957183E-001	-2.7036267E+002
3	0	8.045044191122724E+002	3.0761772E-001	-2.7038385E+002
3	0	8.050044190996414E+002	3.0596384E-001	-2.7038742E+002
3	0	8.055044190870103E+002	3.0452958E-001	-2.7037677E+002
3	0	8.060044190743793E+002	3.0324647E-001	-2.7039093E+002
3	0	8.065044190617482E+002	3.0209219E-001	-2.7037677E+002
3	0	8.070044190491171E+002	3.0107537E-001	-2.7039447E+002
3	0	8.075044190364861E+002	3.0014187E-001	-2.7035205E+002
3	0	8.080044190238550E+002	2.9927522E-001	-2.7037677E+002
3	0	8.085044190112239E+002	2.9847428E-001	-2.7036618E+002
3	0	8.090044189985929E+002	2.9771516E-001	-2.7039801E+002
3	0	8.095044189859618E+002	2.9698217E-001	-2.7037326E+002
3	0	8.100044189733308E+002	2.9625520E-001	-2.7038385E+002
3	0	8.105044189606997E+002	2.9554304E-001	-2.7038031E+002
3	0	8.110044189480686E+002	2.9487869E-001	-2.7039447E+002
3	0	8.115044189354376E+002	2.9424015E-001	-2.7035559E+002
3	0	8.120044189228065E+002	2.9362836E-001	-2.7039801E+002
3	0	8.125044189101754E+002	2.9302439E-001	-2.7038385E+002
3	0	8.130044188975444E+002	2.9242766E-001	-2.7039801E+002
3	0	8.135044188849133E+002	2.9183897E-001	-2.7039801E+002
3	0	8.140044188722823E+002	2.9123527E-001	-2.7038385E+002
3	0	8.145044188596512E+002	2.9063356E-001	-2.7038385E+002
3	0	8.150044188470201E+002	2.9007304E-001	-2.7036972E+002
3	0	8.155044188343891E+002	2.8952265E-001	-2.7038031E+002
3	0	8.160044188217580E+002	2.8899008E-001	-2.7036267E+002
3	0	8.165044188091269E+002	2.8845969E-001	-2.7036972E+002
3	0	8.170044187964959E+002	2.8790727E-001	-2.7037326E+002
3	0	8.175044187838648E+002	2.8737831E-001	-2.7035913E+002
3	0	8.180044187712338E+002	2.8685376E-001	-2.7036618E+002
3	0	8.185044187586027E+002	2.8631613E-001	-2.7037677E+002
3	0	8.190044187459716E+002	2.8581408E-001	-2.7040860E+002
3	0	8.195044187333406E+002	2.8531337E-001	-2.7039093E+002
3	0	8.200044187207095E+002	2.8480631E-001	-2.7039093E+002
3	0	8.205044187080784E+002	2.8430983E-001	-2.7039801E+002
3	0	8.210044186954474E+002	2.8381932E-001	-2.7037677E+002
3	0	8.215044186828163E+002	2.8331959E-001	-2.7036972E+002
3	0	8.220044186701853E+002	2.8280905E-001	-2.7035913E+002
3	0	8.225044186575542E+002	2.8230268E-001	-2.7036267E+002
3	0	8.230044186449231E+002	2.8183466E-001	-2.7036267E+002
3	0	8.235044186322921E+002	2.8135967E-001	-2.7035205E+002
3	0	8.240044186196610E+002	2.8089461E-001	-2.7036618E+002
3	0	8.245044186070299E+002	2.8043348E-001	-2.7039447E+002
3	0	8.250044185943989E+002	2.7997699E-001	-2.7038031E+002
3	0	8.255044185817678E+002	2.7952015E-001	-2.7038385E+002
3	0	8.260044185691368E+002	2.7904877E-001	-2.7037677E+002
3	0	8.265044185565057E+002	2.7857450E-001	-2.7038385E+002
3	0	8.270044185438746E+002	2.7814204E-001	-2.7038385E+002
3	0	8.270048185438645E+002	2.7795467E-001	-2.7038031E+002