EC-Lab ASCII FILE
Nb header lines : 48                          

Open Circuit Voltage

Run on channel : 1 (SN 81504)
User : 
CE vs. WE compliance from -10 V to 10 V
Electrode connection : standard
Potential control : Ewe
Ewe ctrl range : min = -2.50 V, max = 2.50 V
Safety Limits :
	Do not start on E overload
Acquisition started on : 05/10/2026 08:28:58.550
Loaded Setting File :  C:\PEM-WE_measurements\2026\372_IV_IV IrOx, 5 min Pt, 30 min C, etched cathode\new station\Loopeis new\1,46 V different time gaps closed cell\Loopeis 1,46V_180s_2_PEIS from 65kHz to 10kHz.mps
Saved on :
	File : L_27_Loopeis 1,46V_180s_2_PEIS from 65kHz to 10kHz_10_OCV_C01.mpr
	Directory : C:\PEM-WE_measurements\2026\372_IV_IV IrOx, 5 min Pt, 30 min C, etched cathode\new station\Loopeis new\1,46 V different time gaps closed cell\
	Host : 192.168.0.2
Device : SP-150e (SN .005491)
Address : 192.168.0.91
EC-LAB for windows v11.71 (software)
Internet server v28.00 (firmware)
Command interpretor v14.01 (firmware)
Electrode material : 
Initial state : 
Electrolyte : 
Comments : 
Current amplifier : SP-150eB-20A
Electrode surface area : 0.001 cm²
Characteristic mass : 0.001 g
Equivalent Weight : 0.000 g/eq.
Density : 0.000 g/cm3
Volume (V) : 0.001 cm³
Record Analogic IN 1
Text export
   Mode : Standard
   Time format : Elapsed
Cycle Definition : Charge/Discharge alternance
tR (h:m:s)          0:03:0.0000         
dER/dt (mV/h)       1.0                 
record              <Ewe>               
dER (mV)            10.00               
dtR (s)             0.5000              
E range min (V)     -2.500              
E range max (V)     2.500               

mode	error	time/s	<Ewe/V>	Analog IN 1/V	
3	0	9.462773826997000E+002	1.2910703E+000	-7.2477276E-005
3	0	9.467773826870689E+002	1.2967334E+000	-7.2477276E-005
3	0	9.472773826744378E+002	1.2829560E+000	-9.1562819E-005
3	0	9.477773826618068E+002	1.2564543E+000	-3.4306191E-005
3	0	9.482773826491757E+002	1.2106500E+000	2.2950437E-005
3	0	9.487773826365446E+002	1.1240771E+000	-7.2477276E-005
3	0	9.492773826239136E+002	8.1422395E-001	6.1121522E-005
3	0	9.497773826112825E+002	4.6723053E-001	-5.3391734E-005
3	0	9.502773825986515E+002	3.7204009E-001	-1.5220648E-005
3	0	9.507773825860204E+002	3.5560101E-001	-1.2973390E-004
3	0	9.512773825733893E+002	3.5403302E-001	-9.1562819E-005
3	0	9.517773825607583E+002	3.5497770E-001	-9.1562819E-005
3	0	9.522773825481272E+002	3.5616872E-001	-1.4881945E-004
3	0	9.527773825354961E+002	3.5709018E-001	-3.4306191E-005
3	0	9.532773825228651E+002	3.5765624E-001	-9.1562819E-005
3	0	9.537773825102340E+002	3.5801002E-001	-1.1064836E-004
3	0	9.542773824976030E+002	3.5850424E-001	-5.3391734E-005
3	0	9.547773824849719E+002	3.5922503E-001	3.8648941E-006
3	0	9.552773824723408E+002	3.5972750E-001	-9.1562819E-005
3	0	9.557773824597098E+002	3.6008808E-001	-9.1562819E-005
3	0	9.562773824470787E+002	3.6040887E-001	-9.1562819E-005
3	0	9.567773824344476E+002	3.6072549E-001	-1.2973390E-004
3	0	9.572773824218166E+002	3.6095104E-001	8.0207064E-005
3	0	9.577773824091855E+002	3.6106911E-001	-5.3391734E-005
3	0	9.582773823965545E+002	3.6132222E-001	3.8648941E-006
3	0	9.587773823839234E+002	3.6186844E-001	4.2035979E-005
3	0	9.592773823712923E+002	3.6227170E-001	-1.5220648E-005
3	0	9.597773823586613E+002	3.6250976E-001	-1.4881945E-004
3	0	9.602773823460302E+002	3.6270726E-001	-1.2973390E-004
3	0	9.607773823333991E+002	3.6291528E-001	3.8648941E-006
3	0	9.612773823207681E+002	3.6301577E-001	-1.5220648E-005
3	0	9.617773823081370E+002	3.6303055E-001	-1.1064836E-004
3	0	9.622773822955060E+002	3.6317396E-001	-5.3391734E-005
3	0	9.627773822828749E+002	3.6360878E-001	-1.2973390E-004
3	0	9.632773822702438E+002	3.6392456E-001	8.0207064E-005
3	0	9.637773822576128E+002	3.6408424E-001	-1.5220648E-005
3	0	9.642773822449817E+002	3.6419073E-001	3.8648941E-006
3	0	9.647773822323506E+002	3.6430565E-001	-2.0607607E-004
3	0	9.652773822197196E+002	3.6432171E-001	-1.5220648E-005
3	0	9.657773822070885E+002	3.6427137E-001	3.8648941E-006
3	0	9.662773821944575E+002	3.6436608E-001	-1.1064836E-004
3	0	9.667773821818264E+002	3.6473122E-001	-9.1562819E-005
3	0	9.672773821691953E+002	3.6496532E-001	-5.3391734E-005
3	0	9.677773821565643E+002	3.6508840E-001	-3.4306191E-005
3	0	9.682773821439332E+002	3.6515993E-001	-7.2477276E-005
3	0	9.687773821313021E+002	3.6523572E-001	9.9292607E-005
3	0	9.692773821186711E+002	3.6522800E-001	9.9292607E-005
3	0	9.697773821060400E+002	3.6511615E-001	-5.3391734E-005
3	0	9.702773820934090E+002	3.6509696E-001	-3.4306191E-005
3	0	9.707773820807779E+002	3.6540496E-001	-1.5220648E-005
3	0	9.712773820681468E+002	3.6564711E-001	2.2950437E-005
3	0	9.717773820555158E+002	3.6580577E-001	-5.3391734E-005
3	0	9.722773820428847E+002	3.6601210E-001	4.2035979E-005
3	0	9.727773820302536E+002	3.6625963E-001	-5.3391734E-005
3	0	9.732773820176226E+002	3.6643967E-001	-5.3391734E-005
3	0	9.737773820049915E+002	3.6660326E-001	6.1121522E-005
3	0	9.742773819923605E+002	3.6687693E-001	6.1121522E-005
3	0	9.747773819797294E+002	3.6742714E-001	-7.2477276E-005
3	0	9.752773819670983E+002	3.6785933E-001	-1.4881945E-004
3	0	9.757773819544673E+002	3.6809674E-001	-9.1562819E-005
3	0	9.762773819418362E+002	3.6826116E-001	-3.4306191E-005
3	0	9.767773819292051E+002	3.6837903E-001	-1.8699054E-004
3	0	9.772773819165741E+002	3.6841553E-001	3.8648941E-006
3	0	9.777773819039430E+002	3.6830378E-001	2.2950437E-005
3	0	9.782773818913120E+002	3.6833966E-001	3.8648941E-006
3	0	9.787773818786809E+002	3.6864501E-001	-7.2477276E-005
3	0	9.792773818660498E+002	3.6882633E-001	6.1121522E-005
3	0	9.797773818534188E+002	3.6884797E-001	-1.1064836E-004
3	0	9.802773818407877E+002	3.6885509E-001	2.2950437E-005
3	0	9.807773818281566E+002	3.6884844E-001	8.0207064E-005
3	0	9.812773818155256E+002	3.6875600E-001	-1.6790499E-004
3	0	9.817773818028945E+002	3.6847982E-001	-1.6790499E-004
3	0	9.822773817902635E+002	3.6834869E-001	-5.3391734E-005
3	0	9.827773817776324E+002	3.6852032E-001	6.1121522E-005
3	0	9.832773817650013E+002	3.6860391E-001	-7.2477276E-005
3	0	9.837773817523703E+002	3.6854407E-001	-1.6790499E-004
3	0	9.842773817397392E+002	3.6843041E-001	-3.4306191E-005
3	0	9.847773817271082E+002	3.6834484E-001	-1.1064836E-004
3	0	9.852773817144771E+002	3.6815915E-001	6.1121522E-005
3	0	9.857773817018460E+002	3.6790934E-001	-3.4306191E-005
3	0	9.862773816892150E+002	3.6772516E-001	6.1121522E-005
3	0	9.867773816765839E+002	3.6784723E-001	-5.3391734E-005
3	0	9.872773816639528E+002	3.6789697E-001	3.8648941E-006
3	0	9.877773816513218E+002	3.6779329E-001	-1.5220648E-005
3	0	9.882773816386907E+002	3.6766267E-001	-1.2973390E-004
3	0	9.887773816260597E+002	3.6754134E-001	-7.2477276E-005
3	0	9.892773816134286E+002	3.6729744E-001	2.2950437E-005
3	0	9.897773816007975E+002	3.6699808E-001	-1.4881945E-004
3	0	9.902773815881665E+002	3.6678550E-001	3.8648941E-006
3	0	9.907773815755354E+002	3.6687270E-001	-1.2973390E-004
3	0	9.912773815629043E+002	3.6693653E-001	-1.2973390E-004
3	0	9.917773815502733E+002	3.6691907E-001	8.0207064E-005
3	0	9.922773815376422E+002	3.6691514E-001	-1.5220648E-005
3	0	9.927773815250112E+002	3.6698487E-001	6.1121522E-005
3	0	9.932773815123801E+002	3.6696190E-001	-3.4306191E-005
3	0	9.937773814997490E+002	3.6691815E-001	-9.1562819E-005
3	0	9.942773814871180E+002	3.6703169E-001	-7.2477276E-005
3	0	9.947773814744869E+002	3.6745265E-001	-7.2477276E-005
3	0	9.952773814618558E+002	3.6779094E-001	-1.5220648E-005
3	0	9.957773814492248E+002	3.6797535E-001	-7.2477276E-005
3	0	9.962773814365937E+002	3.6807811E-001	2.2950437E-005
3	0	9.967773814239627E+002	3.6812288E-001	-7.2477276E-005
3	0	9.972773814113316E+002	3.6805850E-001	-1.4881945E-004
3	0	9.977773813987005E+002	3.6785382E-001	-9.1562819E-005
3	0	9.982773813860695E+002	3.6774516E-001	-7.2477276E-005
3	0	9.987773813734384E+002	3.6790037E-001	-2.6333271E-004
3	0	9.992773813608073E+002	3.6798662E-001	-9.1562819E-005
3	0	9.997773813481763E+002	3.6792529E-001	-1.4881945E-004
3	0	1.000277381335545E+003	3.6783493E-001	-7.2477276E-005
3	0	1.000777381322914E+003	3.6770117E-001	-3.4306191E-005
3	0	1.001277381310283E+003	3.6744499E-001	-1.5220648E-005
3	0	1.001777381297652E+003	3.6710206E-001	3.8648941E-006
3	0	1.002277381285021E+003	3.6689213E-001	-5.3391734E-005
3	0	1.002777381272390E+003	3.6694506E-001	-5.3391734E-005
3	0	1.003277381259759E+003	3.6692637E-001	9.9292607E-005
3	0	1.003777381247128E+003	3.6678791E-001	8.0207064E-005
3	0	1.004277381234497E+003	3.6659634E-001	-1.5220648E-005
3	0	1.004777381221866E+003	3.6638448E-001	3.8648941E-006
3	0	1.005277381209235E+003	3.6612216E-001	6.1121522E-005
3	0	1.005777381196604E+003	3.6574441E-001	3.8648941E-006
3	0	1.006277381183972E+003	3.6547434E-001	2.2950437E-005
3	0	1.006777381171341E+003	3.6549562E-001	-5.3391734E-005
3	0	1.007277381158710E+003	3.6546722E-001	1.3746369E-004
3	0	1.007777381146079E+003	3.6533231E-001	-1.6790499E-004
3	0	1.008277381133448E+003	3.6515772E-001	-1.1064836E-004
3	0	1.008777381120817E+003	3.6495984E-001	-3.4306191E-005
3	0	1.009277381108186E+003	3.6465177E-001	4.2035979E-005
3	0	1.009777381095555E+003	3.6426663E-001	-9.1562819E-005
3	0	1.010277381082924E+003	3.6395782E-001	6.1121522E-005
3	0	1.010777381070293E+003	3.6395842E-001	-1.1064836E-004
3	0	1.011277381057662E+003	3.6394230E-001	-1.5220648E-005
3	0	1.011777381045031E+003	3.6382750E-001	-5.3391734E-005
3	0	1.012277381032400E+003	3.6373296E-001	1.5654923E-004
3	0	1.012777381019769E+003	3.6370611E-001	-9.1562819E-005
3	0	1.013277381007138E+003	3.6364064E-001	-7.2477276E-005
3	0	1.013777380994507E+003	3.6351028E-001	-5.3391734E-005
3	0	1.014277380981875E+003	3.6351749E-001	-1.5220648E-005
3	0	1.014777380969244E+003	3.6380795E-001	-1.1064836E-004
3	0	1.015277380956613E+003	3.6404127E-001	-1.5220648E-005
3	0	1.015777380943982E+003	3.6415216E-001	2.2950437E-005
3	0	1.016277380931351E+003	3.6419448E-001	-1.1064836E-004
3	0	1.016777380918720E+003	3.6418754E-001	-7.2477276E-005
3	0	1.017277380906089E+003	3.6406398E-001	-7.2477276E-005
3	0	1.017777380893458E+003	3.6380836E-001	-1.1064836E-004
3	0	1.018277380880827E+003	3.6362600E-001	3.8648941E-006
3	0	1.018777380868196E+003	3.6370081E-001	1.5654923E-004
3	0	1.019277380855565E+003	3.6370423E-001	6.1121522E-005
3	0	1.019777380842934E+003	3.6356646E-001	-1.2973390E-004
3	0	1.020277380830303E+003	3.6340785E-001	4.2035979E-005
3	0	1.020777380817672E+003	3.6319467E-001	-7.2477276E-005
3	0	1.021277380805041E+003	3.6291870E-001	-7.2477276E-005
3	0	1.021777380792410E+003	3.6255458E-001	-9.1562819E-005
3	0	1.022277380779778E+003	3.6225164E-001	3.8648941E-006
3	0	1.022777380767147E+003	3.6223051E-001	1.3746369E-004
3	0	1.023277380754516E+003	3.6217964E-001	-5.3391734E-005
3	0	1.023777380741885E+003	3.6200941E-001	-3.4306191E-005
3	0	1.024277380729254E+003	3.6178270E-001	-7.2477276E-005
3	0	1.024777380716623E+003	3.6154217E-001	-5.3391734E-005
3	0	1.025277380703992E+003	3.6121422E-001	-7.2477276E-005
3	0	1.025777380691361E+003	3.6081332E-001	3.8648941E-006
3	0	1.026277380678730E+003	3.6050045E-001	2.2950437E-005
3	0	1.026777380666099E+003	3.6046302E-001	1.1837815E-004
3	0	1.027277380653468E+003	3.6040711E-001	-1.5220648E-005
3	0	1.027777380640837E+003	3.6023280E-001	-7.2477276E-005
3	0	1.028277380628206E+003	3.6003357E-001	-7.2477276E-005
3	0	1.028777380615575E+003	3.5978490E-001	-7.2477276E-005
3	0	1.029277380602944E+003	3.5949671E-001	-5.3391734E-005
3	0	1.029777380590313E+003	3.5910365E-001	4.2035979E-005
3	0	1.030277380577681E+003	3.5876551E-001	-1.5220648E-005
3	0	1.030777380565050E+003	3.5870731E-001	6.1121522E-005
3	0	1.031277380552419E+003	3.5865238E-001	3.8648941E-006
3	0	1.031777380539788E+003	3.5854951E-001	-1.5220648E-005
3	0	1.032277380527157E+003	3.5845149E-001	-1.6790499E-004
3	0	1.032777380514526E+003	3.5841009E-001	-7.2477276E-005
3	0	1.033277380501895E+003	3.5832727E-001	4.2035979E-005
3	0	1.033777380489264E+003	3.5821274E-001	-3.4306191E-005
3	0	1.034277380476633E+003	3.5819095E-001	-1.5220648E-005
3	0	1.034777380464002E+003	3.5845914E-001	3.8648941E-006
3	0	1.035277380451371E+003	3.5870600E-001	6.1121522E-005
3	0	1.035777380438740E+003	3.5880271E-001	4.2035979E-005
3	0	1.036277380426109E+003	3.5882008E-001	8.0207064E-005
3	0	1.036777380413478E+003	3.5879874E-001	-3.4306191E-005
3	0	1.037277380400847E+003	3.5867342E-001	3.8648941E-006
3	0	1.037777380388216E+003	3.5840741E-001	-1.1064836E-004
3	0	1.038277380375584E+003	3.5819393E-001	-3.4306191E-005
3	0	1.038777380362953E+003	3.5820639E-001	-1.1064836E-004
3	0	1.039277380350322E+003	3.5819861E-001	-7.2477276E-005
3	0	1.039777380337691E+003	3.5806528E-001	-9.1562819E-005
3	0	1.040277380325060E+003	3.5788351E-001	-7.2477276E-005
3	0	1.040777380312429E+003	3.5770458E-001	2.2950437E-005
3	0	1.041277380299798E+003	3.5743383E-001	-7.2477276E-005
3	0	1.041777380287167E+003	3.5704619E-001	9.9292607E-005
3	0	1.042277380274536E+003	3.5674050E-001	-1.4881945E-004
3	0	1.042777380261905E+003	3.5668898E-001	-5.3391734E-005
3	0	1.043277380249274E+003	3.5662475E-001	-5.3391734E-005
3	0	1.043777380236643E+003	3.5644683E-001	-1.1064836E-004
3	0	1.044277380224012E+003	3.5623541E-001	-1.1064836E-004
3	0	1.044777380211381E+003	3.5600784E-001	3.8648941E-006
3	0	1.045277380198750E+003	3.5572234E-001	-1.5220648E-005
3	0	1.045777380186119E+003	3.5533300E-001	-9.1562819E-005
3	0	1.046277380173487E+003	3.5499185E-001	-3.4306191E-005
3	0	1.046777380160856E+003	3.5491773E-001	3.8648941E-006
3	0	1.047277380148225E+003	3.5485646E-001	3.8648941E-006
3	0	1.047777380135594E+003	3.5469607E-001	-1.1064836E-004
3	0	1.048277380122963E+003	3.5447836E-001	-5.3391734E-005
3	0	1.048777380110332E+003	3.5425687E-001	-7.2477276E-005
3	0	1.049277380097701E+003	3.5395187E-001	-1.5220648E-005
3	0	1.049777380085070E+003	3.5355771E-001	-5.3391734E-005
3	0	1.050277380072439E+003	3.5323492E-001	-3.4306191E-005
3	0	1.050777380059808E+003	3.5316133E-001	-9.1562819E-005
3	0	1.051277380047177E+003	3.5310301E-001	-3.4306191E-005
3	0	1.051777380034546E+003	3.5298321E-001	-3.4306191E-005
3	0	1.052277380021915E+003	3.5287675E-001	-9.1562819E-005
3	0	1.052777380009284E+003	3.5281953E-001	-3.4306191E-005
3	0	1.053277379996653E+003	3.5275769E-001	-1.5220648E-005
3	0	1.053777379984022E+003	3.5263357E-001	-3.4306191E-005
3	0	1.054277379971390E+003	3.5259271E-001	-1.2973390E-004
3	0	1.054777379958759E+003	3.5282674E-001	-9.1562819E-005
3	0	1.055277379946128E+003	3.5303986E-001	-5.3391734E-005
3	0	1.055777379933497E+003	3.5312203E-001	-5.3391734E-005
3	0	1.056277379920866E+003	3.5315448E-001	-1.4881945E-004
3	0	1.056777379908235E+003	3.5313410E-001	3.8648941E-006
3	0	1.057277379895604E+003	3.5300499E-001	-9.1562819E-005
3	0	1.057777379882973E+003	3.5276780E-001	-1.5220648E-005
3	0	1.058277379870342E+003	3.5255089E-001	-1.1064836E-004
3	0	1.058777379857711E+003	3.5255340E-001	-1.2973390E-004
3	0	1.059277379845080E+003	3.5255030E-001	-7.2477276E-005
3	0	1.059777379832449E+003	3.5244718E-001	2.2950437E-005
3	0	1.060277379819818E+003	3.5227650E-001	-9.1562819E-005
3	0	1.060777379807187E+003	3.5210022E-001	-5.3391734E-005
3	0	1.061277379794556E+003	3.5183775E-001	-1.2973390E-004
3	0	1.061777379781925E+003	3.5147780E-001	-1.5220648E-005
3	0	1.062277379769293E+003	3.5116124E-001	-2.2516162E-004
3	0	1.062777379756662E+003	3.5107422E-001	-3.4306191E-005
3	0	1.063277379744031E+003	3.5098785E-001	-1.6790499E-004
3	0	1.063777379731400E+003	3.5081679E-001	-1.6790499E-004
3	0	1.064277379718769E+003	3.5060945E-001	-1.5220648E-005
3	0	1.064777379706138E+003	3.5040814E-001	-7.2477276E-005
3	0	1.065277379693507E+003	3.5015056E-001	-1.6790499E-004
3	0	1.065777379680876E+003	3.4979460E-001	-1.5220648E-005
3	0	1.066277379668245E+003	3.4948990E-001	-7.2477276E-005
3	0	1.066777379655614E+003	3.4941801E-001	8.0207064E-005
3	0	1.067277379642983E+003	3.4934911E-001	3.8648941E-006
3	0	1.067777379630352E+003	3.4918395E-001	-5.3391734E-005
3	0	1.068277379617721E+003	3.4897420E-001	-1.1064836E-004
3	0	1.068777379605090E+003	3.4876037E-001	8.0207064E-005
3	0	1.069277379592459E+003	3.4847531E-001	3.8648941E-006
3	0	1.069777379579828E+003	3.4809858E-001	-1.2973390E-004
3	0	1.070277379567196E+003	3.4776819E-001	-1.1064836E-004
3	0	1.070777379554565E+003	3.4767592E-001	-5.3391734E-005
3	0	1.071277379541934E+003	3.4760439E-001	-1.4881945E-004
3	0	1.071777379529303E+003	3.4746349E-001	1.1837815E-004
3	0	1.072277379516672E+003	3.4733677E-001	8.0207064E-005
3	0	1.072777379504041E+003	3.4726664E-001	-1.6790499E-004
3	0	1.073277379491410E+003	3.4717998E-001	-1.1064836E-004
3	0	1.073777379478779E+003	3.4702680E-001	-1.5220648E-005
3	0	1.074277379466148E+003	3.4697679E-001	-7.2477276E-005
3	0	1.074777379453517E+003	3.4719360E-001	3.8648941E-006
3	0	1.075277379440886E+003	3.4742880E-001	-1.2973390E-004
3	0	1.075777379428255E+003	3.4757960E-001	-1.1064836E-004
3	0	1.076277379415624E+003	3.4766737E-001	2.3289140E-004
3	0	1.076777379402993E+003	3.4770507E-001	-7.2477276E-005
3	0	1.077277379390362E+003	3.4766862E-001	-5.3391734E-005
3	0	1.077777379377731E+003	3.4749064E-001	-5.3391734E-005
3	0	1.078277379365099E+003	3.4730497E-001	-5.3391734E-005
3	0	1.078777379352468E+003	3.4733212E-001	-1.1064836E-004
3	0	1.079277379339837E+003	3.4735882E-001	-5.3391734E-005
3	0	1.079777379327206E+003	3.4728187E-001	-1.5220648E-005
3	0	1.080277379314575E+003	3.4713742E-001	1.3746369E-004
3	0	1.080777379301944E+003	3.4698278E-001	2.2950437E-005
3	0	1.081277379289313E+003	3.4673154E-001	-5.3391734E-005
3	0	1.081777379276682E+003	3.4638709E-001	-3.4306191E-005
3	0	1.082277379264051E+003	3.4608480E-001	-9.1562819E-005
3	0	1.082777379251420E+003	3.4600553E-001	-1.1064836E-004
3	0	1.083277379238789E+003	3.4594798E-001	3.8648941E-006
3	0	1.083777379226158E+003	3.4579065E-001	-1.8699054E-004
3	0	1.084277379213527E+003	3.4556532E-001	-1.1064836E-004
3	0	1.084777379200896E+003	3.4534901E-001	-1.4881945E-004
3	0	1.085277379188265E+003	3.4502527E-001	-2.0607607E-004
3	0	1.085777379175634E+003	3.4460971E-001	2.2950437E-005
3	0	1.086277379163002E+003	3.4426132E-001	-5.3391734E-005
3	0	1.086777379150371E+003	3.4413981E-001	-3.4306191E-005
3	0	1.087277379137740E+003	3.4404722E-001	4.2035979E-005
3	0	1.087777379125109E+003	3.4387240E-001	4.2035979E-005
3	0	1.088277379112478E+003	3.4364614E-001	2.2950437E-005
3	0	1.088777379099847E+003	3.4341833E-001	3.8648941E-006
3	0	1.089277379087216E+003	3.4314576E-001	3.8648941E-006
3	0	1.089777379074585E+003	3.4275600E-001	-5.3391734E-005
3	0	1.090277379061954E+003	3.4241575E-001	2.2950437E-005
3	0	1.090777379049323E+003	3.4230468E-001	6.1121522E-005
3	0	1.091277379036692E+003	3.4222123E-001	3.8648941E-006
3	0	1.091777379024061E+003	3.4207091E-001	3.8648941E-006
3	0	1.092277379011430E+003	3.4191278E-001	-1.5220648E-005
3	0	1.092777378998799E+003	3.4176272E-001	-1.5220648E-005
3	0	1.093277378986168E+003	3.4160313E-001	8.0207064E-005
3	0	1.093777378973537E+003	3.4146103E-001	-3.4306191E-005
3	0	1.094277378960905E+003	3.4143803E-001	-9.1562819E-005
3	0	1.094777378948274E+003	3.4161615E-001	-9.1562819E-005
3	0	1.095277378935643E+003	3.4182084E-001	-3.4306191E-005
3	0	1.095777378923012E+003	3.4195453E-001	-7.2477276E-005
3	0	1.096277378910381E+003	3.4203312E-001	-1.5220648E-005
3	0	1.096777378897750E+003	3.4206966E-001	2.2950437E-005
3	0	1.097277378885119E+003	3.4199974E-001	2.2950437E-005
3	0	1.097777378872488E+003	3.4181464E-001	-7.2477276E-005
3	0	1.098277378859857E+003	3.4163338E-001	3.8648941E-006
3	0	1.098777378847226E+003	3.4162375E-001	-1.4881945E-004
3	0	1.099277378834595E+003	3.4160021E-001	-1.5220648E-005
3	0	1.099777378821964E+003	3.4150639E-001	-1.1064836E-004
3	0	1.100277378809333E+003	3.4137034E-001	-1.5220648E-005
3	0	1.100777378796702E+003	3.4122676E-001	3.8648941E-006
3	0	1.101277378784071E+003	3.4102005E-001	3.8648941E-006
3	0	1.101777378771440E+003	3.4071571E-001	-7.2477276E-005
3	0	1.102277378758808E+003	3.4044528E-001	3.8648941E-006
3	0	1.102777378746177E+003	3.4034520E-001	3.8648941E-006
3	0	1.103277378733546E+003	3.4024623E-001	4.2035979E-005
3	0	1.103777378720915E+003	3.4008470E-001	-9.1562819E-005
3	0	1.104277378708284E+003	3.3987331E-001	-1.5220648E-005
3	0	1.104777378695653E+003	3.3964181E-001	-3.4306191E-005
3	0	1.105277378683022E+003	3.3932665E-001	-1.1064836E-004
3	0	1.105777378670391E+003	3.3897087E-001	-9.1562819E-005
3	0	1.106277378657760E+003	3.3863950E-001	-5.3391734E-005
3	0	1.106777378645129E+003	3.3850279E-001	-3.4306191E-005
3	0	1.107277378632498E+003	3.3836606E-001	-1.6790499E-004
3	0	1.107777378619867E+003	3.3820418E-001	-1.4881945E-004
3	0	1.108277378607236E+003	3.3801061E-001	-3.4306191E-005
3	0	1.108777378594605E+003	3.3782202E-001	-7.2477276E-005
3	0	1.109277378581974E+003	3.3755898E-001	-7.2477276E-005
3	0	1.109777378569343E+003	3.3721676E-001	9.9292607E-005
3	0	1.110277378556711E+003	3.3690575E-001	-1.5220648E-005
3	0	1.110777378544080E+003	3.3678642E-001	-1.5220648E-005
3	0	1.111277378531449E+003	3.3662638E-001	1.1837815E-004
3	0	1.111777378518818E+003	3.3645692E-001	-3.4306191E-005
3	0	1.112277378506187E+003	3.3629534E-001	-1.6790499E-004
3	0	1.112777378493556E+003	3.3618468E-001	-3.4306191E-005
3	0	1.113277378480925E+003	3.3606511E-001	-9.1562819E-005
3	0	1.113777378468294E+003	3.3593148E-001	-1.4881945E-004
3	0	1.114277378455663E+003	3.3585575E-001	-5.3391734E-005
3	0	1.114777378443032E+003	3.3598796E-001	-9.1562819E-005
3	0	1.115277378430401E+003	3.3610711E-001	-5.3391734E-005
3	0	1.115777378417770E+003	3.3619812E-001	-5.3391734E-005
3	0	1.116277378405139E+003	3.3626452E-001	6.1121522E-005
3	0	1.116777378392508E+003	3.3631027E-001	2.2950437E-005
3	0	1.117277378379877E+003	3.3628988E-001	-1.5220648E-005
3	0	1.117777378367246E+003	3.3615404E-001	-1.1064836E-004
3	0	1.118277378354614E+003	3.3598498E-001	-1.5220648E-005
3	0	1.118777378341983E+003	3.3597809E-001	-7.2477276E-005
3	0	1.119277378329352E+003	3.3592439E-001	3.8648941E-006
3	0	1.119777378316721E+003	3.3582470E-001	3.8648941E-006
3	0	1.120277378304090E+003	3.3570182E-001	3.8648941E-006
3	0	1.120777378291459E+003	3.3556446E-001	-5.3391734E-005
3	0	1.121277378278828E+003	3.3536494E-001	3.8648941E-006
3	0	1.121777378266197E+003	3.3506441E-001	-3.4306191E-005
3	0	1.122277378253566E+003	3.3478716E-001	-3.4306191E-005
3	0	1.122777378240935E+003	3.3468264E-001	3.8648941E-006
3	0	1.123277378228304E+003	3.3453849E-001	-3.4306191E-005
3	0	1.123777378215673E+003	3.3437011E-001	-1.5220648E-005
3	0	1.124277378203042E+003	3.3417448E-001	8.0207064E-005
3	0	1.124777378190411E+003	3.3396775E-001	1.5654923E-004
3	0	1.125277378177780E+003	3.3373123E-001	-3.4306191E-005
3	0	1.125777378165149E+003	3.3343542E-001	-1.5220648E-005
3	0	1.125777778165138E+003	3.3329782E-001	-3.4306191E-005