EC-Lab ASCII FILE
Nb header lines : 48                          

Open Circuit Voltage

Run on channel : 1 (SN 81504)
User : 
CE vs. WE compliance from -10 V to 10 V
Electrode connection : standard
Potential control : Ewe
Ewe ctrl range : min = -2.50 V, max = 2.50 V
Safety Limits :
	Do not start on E overload
Acquisition started on : 05/07/2026 20:50:15.926
Loaded Setting File :  C:\PEM-WE_measurements\2026\372_IV_IV IrOx, 5 min Pt, 30 min C, etched cathode\new station\Loopeis new\1,46 V different time gaps open cell\Loopeis 1,46V_120s_2_PEIS from 65kHz to 10kHz.mps
Saved on :
	File : L_22_Loopeis 1,46V_120s_2_PEIS from 65kHz to 10kHz_12_OCV_C01.mpr
	Directory : C:\PEM-WE_measurements\2026\372_IV_IV IrOx, 5 min Pt, 30 min C, etched cathode\new station\Loopeis new\1,46 V different time gaps open cell\
	Host : 192.168.0.2
Device : SP-150e (SN .005491)
Address : 192.168.0.91
EC-LAB for windows v11.71 (software)
Internet server v28.00 (firmware)
Command interpretor v14.01 (firmware)
Electrode material : 
Initial state : 
Electrolyte : 
Comments : 
Current amplifier : SP-150eB-20A
Electrode surface area : 0.001 cm²
Characteristic mass : 0.001 g
Equivalent Weight : 0.000 g/eq.
Density : 0.000 g/cm3
Volume (V) : 0.001 cm³
Record Analogic IN 1
Text export
   Mode : Standard
   Time format : Elapsed
Cycle Definition : Charge/Discharge alternance
tR (h:m:s)          0:02:0.0000         
dER/dt (mV/h)       1.0                 
record              <Ewe>               
dER (mV)            10.00               
dtR (s)             0.5000              
E range min (V)     -2.500              
E range max (V)     2.500               

mode	error	time/s	<Ewe/V>	Analog IN 1/V	
3	0	8.704805878330808E+002	9.5936960E-001	-1.5220648E-005
3	0	8.709805878204497E+002	1.1550798E+000	-1.4881945E-004
3	0	8.714805878078187E+002	8.9824742E-001	-9.1562819E-005
3	0	8.719805877951876E+002	4.4861388E-001	-1.1064836E-004
3	0	8.724805877825565E+002	3.2339701E-001	2.2950437E-005
3	0	8.729805877699255E+002	3.0954310E-001	-9.1562819E-005
3	0	8.734805877572944E+002	3.0276859E-001	3.8648941E-006
3	0	8.739805877446634E+002	2.9694492E-001	9.9292607E-005
3	0	8.744805877320323E+002	2.9231945E-001	4.2035979E-005
3	0	8.749805877194012E+002	2.8871849E-001	-2.2516162E-004
3	0	8.754805877067702E+002	2.8590220E-001	2.2950437E-005
3	0	8.759805876941391E+002	2.8364751E-001	-9.1562819E-005
3	0	8.764805876815080E+002	2.8179026E-001	-1.5220648E-005
3	0	8.769805876688770E+002	2.8023300E-001	4.2035979E-005
3	0	8.774805876562459E+002	2.7890375E-001	-5.3391734E-005
3	0	8.779805876436149E+002	2.7773070E-001	2.2950437E-005
3	0	8.784805876309838E+002	2.7667299E-001	4.2035979E-005
3	0	8.789805876183527E+002	2.7570209E-001	4.2035979E-005
3	0	8.794805876057217E+002	2.7483359E-001	-7.2477276E-005
3	0	8.799805875930906E+002	2.7404833E-001	-3.4306191E-005
3	0	8.804805875804595E+002	2.7329993E-001	1.1837815E-004
3	0	8.809805875678285E+002	2.7259728E-001	-9.1562819E-005
3	0	8.814805875551974E+002	2.7193394E-001	3.8648941E-006
3	0	8.819805875425664E+002	2.7128166E-001	-3.4306191E-005
3	0	8.824805875299353E+002	2.7063832E-001	3.8648941E-006
3	0	8.829805875173042E+002	2.6999354E-001	-1.5220648E-005
3	0	8.834805875046732E+002	2.6940548E-001	2.2950437E-005
3	0	8.839805874920421E+002	2.6883185E-001	4.2035979E-005
3	0	8.844805874794110E+002	2.6826748E-001	-1.1064836E-004
3	0	8.849805874667800E+002	2.6772121E-001	-3.4306191E-005
3	0	8.854805874541489E+002	2.6718086E-001	-7.2477276E-005
3	0	8.859805874415179E+002	2.6663730E-001	6.1121522E-005
3	0	8.864805874288868E+002	2.6608750E-001	2.2950437E-005
3	0	8.869805874162557E+002	2.6553532E-001	-1.5220648E-005
3	0	8.874805874036247E+002	2.6500529E-001	-5.3391734E-005
3	0	8.879805873909936E+002	2.6450711E-001	1.1837815E-004
3	0	8.884805873783625E+002	2.6400217E-001	3.8648941E-006
3	0	8.889805873657315E+002	2.6350749E-001	-7.2477276E-005
3	0	8.894805873531004E+002	2.6301703E-001	-1.4881945E-004
3	0	8.899805873404694E+002	2.6252416E-001	-1.5220648E-005
3	0	8.904805873278383E+002	2.6202822E-001	-5.3391734E-005
3	0	8.909805873152072E+002	2.6151264E-001	-1.8699054E-004
3	0	8.914805873025762E+002	2.6103354E-001	-1.4881945E-004
3	0	8.919805872899451E+002	2.6057214E-001	-7.2477276E-005
3	0	8.924805872773140E+002	2.6010749E-001	-1.1064836E-004
3	0	8.929805872646830E+002	2.5965557E-001	-1.5220648E-005
3	0	8.934805872520519E+002	2.5920206E-001	-3.4306191E-005
3	0	8.939805872394209E+002	2.5874785E-001	2.2950437E-005
3	0	8.944805872267898E+002	2.5827777E-001	-3.4306191E-005
3	0	8.949805872141587E+002	2.5779393E-001	-1.4881945E-004
3	0	8.954805872015277E+002	2.5734651E-001	-5.3391734E-005
3	0	8.959805871888966E+002	2.5691462E-001	-1.4881945E-004
3	0	8.964805871762655E+002	2.5648120E-001	3.8648941E-006
3	0	8.969805871636345E+002	2.5605553E-001	-1.2973390E-004
3	0	8.974805871510034E+002	2.5562927E-001	4.2035979E-005
3	0	8.979805871383724E+002	2.5520927E-001	-3.4306191E-005
3	0	8.984805871257413E+002	2.5477618E-001	-1.6790499E-004
3	0	8.989805871131102E+002	2.5433165E-001	-3.4306191E-005
3	0	8.994805871004792E+002	2.5391206E-001	3.8648941E-006
3	0	8.999805870878481E+002	2.5351468E-001	-7.2477276E-005
3	0	9.004805870752170E+002	2.5311103E-001	-5.3391734E-005
3	0	9.009805870625860E+002	2.5271606E-001	-1.2973390E-004
3	0	9.014805870499549E+002	2.5232086E-001	6.1121522E-005
3	0	9.019805870373239E+002	2.5192440E-001	-1.5220648E-005
3	0	9.024805870246928E+002	2.5151306E-001	-9.1562819E-005
3	0	9.029805870120617E+002	2.5109038E-001	-3.4306191E-005
3	0	9.034805869994307E+002	2.5070029E-001	-1.1064836E-004
3	0	9.039805869867996E+002	2.5033543E-001	-1.5220648E-005
3	0	9.044805869741685E+002	2.4995853E-001	-1.4881945E-004
3	0	9.049805869615375E+002	2.4959305E-001	-9.1562819E-005
3	0	9.054805869489064E+002	2.4923597E-001	-7.2477276E-005
3	0	9.059805869362754E+002	2.4886808E-001	2.2950437E-005
3	0	9.064805869236443E+002	2.4848868E-001	-1.5220648E-005
3	0	9.069805869110132E+002	2.4809848E-001	-9.1562819E-005
3	0	9.074805868983822E+002	2.4774425E-001	2.2950437E-005
3	0	9.079805868857511E+002	2.4740489E-001	-1.1064836E-004
3	0	9.084805868731200E+002	2.4705684E-001	-7.2477276E-005
3	0	9.089805868604890E+002	2.4672450E-001	2.2950437E-005
3	0	9.094805868478579E+002	2.4639347E-001	-5.3391734E-005
3	0	9.099805868352269E+002	2.4605913E-001	-1.1064836E-004
3	0	9.104805868225958E+002	2.4571849E-001	-1.1064836E-004
3	0	9.109805868099647E+002	2.4536040E-001	-1.5220648E-005
3	0	9.114805867973337E+002	2.4503124E-001	-7.2477276E-005
3	0	9.119805867847026E+002	2.4472006E-001	-1.5220648E-005
3	0	9.124805867720715E+002	2.4440701E-001	3.8648941E-006
3	0	9.129805867594405E+002	2.4410394E-001	3.8648941E-006
3	0	9.134805867468094E+002	2.4379726E-001	-2.0607607E-004
3	0	9.139805867341784E+002	2.4348944E-001	-5.3391734E-005
3	0	9.144805867215473E+002	2.4317101E-001	2.2950437E-005
3	0	9.149805867089162E+002	2.4283893E-001	-1.1064836E-004
3	0	9.154805866962852E+002	2.4253470E-001	4.2035979E-005
3	0	9.159805866836541E+002	2.4225111E-001	4.2035979E-005
3	0	9.164805866710230E+002	2.4196716E-001	3.8648941E-006
3	0	9.169805866583920E+002	2.4168831E-001	-1.5220648E-005
3	0	9.174805866457609E+002	2.4140893E-001	-1.5220648E-005
3	0	9.179805866331299E+002	2.4112251E-001	-1.5220648E-005
3	0	9.184805866204988E+002	2.4082249E-001	4.2035979E-005
3	0	9.189805866078677E+002	2.4051666E-001	-1.5220648E-005
3	0	9.194805865952367E+002	2.4023995E-001	-1.8699054E-004
3	0	9.199805865826056E+002	2.3998839E-001	-3.4306191E-005
3	0	9.204805865699745E+002	2.3972572E-001	-9.1562819E-005
3	0	9.209805865573435E+002	2.3946932E-001	3.8648941E-006
3	0	9.214805865447124E+002	2.3921281E-001	-2.2516162E-004
3	0	9.219805865320814E+002	2.3896217E-001	-5.3391734E-005
3	0	9.224805865194503E+002	2.3868366E-001	-9.1562819E-005
3	0	9.229805865068192E+002	2.3839772E-001	4.2035979E-005
3	0	9.234805864941882E+002	2.3814881E-001	-1.1064836E-004
3	0	9.239805864815571E+002	2.3791537E-001	2.2950437E-005
3	0	9.244805864689260E+002	2.3767325E-001	4.2035979E-005
3	0	9.249805864562950E+002	2.3743802E-001	6.1121522E-005
3	0	9.254805864436639E+002	2.3719889E-001	1.1837815E-004
3	0	9.259805864310329E+002	2.3695961E-001	-3.4306191E-005
3	0	9.264805864184018E+002	2.3670147E-001	-9.1562819E-005
3	0	9.269805864057707E+002	2.3644188E-001	2.2950437E-005
3	0	9.274805863931397E+002	2.3619935E-001	-1.1064836E-004
3	0	9.279805863805086E+002	2.3598832E-001	-3.4306191E-005
3	0	9.284805863678776E+002	2.3577318E-001	-1.5220648E-005
3	0	9.289805863552465E+002	2.3556441E-001	3.8648941E-006
3	0	9.294805863426154E+002	2.3535408E-001	-1.5220648E-005
3	0	9.299805863299844E+002	2.3514080E-001	-1.5220648E-005
3	0	9.304805863173533E+002	2.3490851E-001	3.8648941E-006
3	0	9.309805863047222E+002	2.3465961E-001	-5.3391734E-005
3	0	9.314805862920912E+002	2.3445101E-001	-1.1064836E-004
3	0	9.319805862794601E+002	2.3425516E-001	2.2950437E-005
3	0	9.324805862668291E+002	2.3405851E-001	-1.6790499E-004
3	0	9.329805862541980E+002	2.3386495E-001	4.2035979E-005
3	0	9.334805862415669E+002	2.3367380E-001	-5.3391734E-005
3	0	9.339805862289359E+002	2.3347667E-001	-1.5220648E-005
3	0	9.344805862163048E+002	2.3326507E-001	-1.1064836E-004
3	0	9.349805862036737E+002	2.3304230E-001	-7.2477276E-005
3	0	9.354805861910427E+002	2.3284730E-001	-1.5220648E-005
3	0	9.359805861784116E+002	2.3267002E-001	1.3746369E-004
3	0	9.364805861657806E+002	2.3248316E-001	-1.1064836E-004
3	0	9.369805861531495E+002	2.3230895E-001	-1.6790499E-004
3	0	9.374805861405184E+002	2.3213668E-001	-1.5220648E-005
3	0	9.379805861278874E+002	2.3194738E-001	8.0207064E-005
3	0	9.384805861152563E+002	2.3174752E-001	-1.5220648E-005
3	0	9.389805861026252E+002	2.3153839E-001	-7.2477276E-005
3	0	9.394805860899942E+002	2.3135182E-001	-1.5220648E-005
3	0	9.399805860773631E+002	2.3118922E-001	-1.2973390E-004
3	0	9.404805860647321E+002	2.3102570E-001	2.2950437E-005
3	0	9.409805860521010E+002	2.3086557E-001	-5.3391734E-005
3	0	9.414805860394699E+002	2.3070084E-001	6.1121522E-005
3	0	9.419805860268389E+002	2.3051605E-001	-9.1562819E-005
3	0	9.424805860142078E+002	2.3032118E-001	-9.1562819E-005
3	0	9.429805860015767E+002	2.3013756E-001	-3.4306191E-005
3	0	9.434805859889457E+002	2.2998749E-001	-3.4306191E-005
3	0	9.439805859763146E+002	2.2985280E-001	-1.4881945E-004
3	0	9.444805859636836E+002	2.2970563E-001	2.2950437E-005
3	0	9.449805859510525E+002	2.2955114E-001	-9.1562819E-005
3	0	9.454805859384214E+002	2.2940651E-001	-3.4306191E-005
3	0	9.459805859257904E+002	2.2924803E-001	-1.1064836E-004
3	0	9.464805859131593E+002	2.2906864E-001	1.1837815E-004
3	0	9.469805859005282E+002	2.2887452E-001	-1.8699054E-004
3	0	9.474805858878972E+002	2.2871776E-001	8.0207064E-005
3	0	9.479805858752661E+002	2.2858195E-001	2.2950437E-005
3	0	9.484805858626351E+002	2.2844413E-001	-9.1562819E-005
3	0	9.489805858500040E+002	2.2829962E-001	4.2035979E-005
3	0	9.494805858373729E+002	2.2815841E-001	-1.5220648E-005
3	0	9.499805858247419E+002	2.2801095E-001	-3.4306191E-005
3	0	9.504805858121108E+002	2.2784571E-001	-7.2477276E-005
3	0	9.509805857994797E+002	2.2766021E-001	-5.3391734E-005
3	0	9.514805857868487E+002	2.2751468E-001	3.8648941E-006
3	0	9.519805857742176E+002	2.2739762E-001	-1.4881945E-004
3	0	9.524805857615866E+002	2.2727616E-001	-9.1562819E-005
3	0	9.529805857489555E+002	2.2714603E-001	-7.2477276E-005
3	0	9.534805857363244E+002	2.2701685E-001	-1.4881945E-004
3	0	9.539805857236934E+002	2.2687933E-001	3.8648941E-006
3	0	9.544805857110623E+002	2.2672112E-001	-9.1562819E-005
3	0	9.549805856984312E+002	2.2655152E-001	-1.2973390E-004
3	0	9.554805856858002E+002	2.2641540E-001	3.8648941E-006
3	0	9.559805856731691E+002	2.2630131E-001	4.2035979E-005
3	0	9.564805856605381E+002	2.2618935E-001	-1.8699054E-004
3	0	9.569805856479070E+002	2.2606896E-001	-1.6790499E-004
3	0	9.574805856352759E+002	2.2594933E-001	3.8648941E-006
3	0	9.579805856226449E+002	2.2582582E-001	-5.3391734E-005
3	0	9.584805856100138E+002	2.2568133E-001	4.2035979E-005
3	0	9.589805855973827E+002	2.2552420E-001	-9.1562819E-005
3	0	9.594805855847517E+002	2.2539875E-001	-1.5220648E-005
3	0	9.599805855721206E+002	2.2529562E-001	4.2035979E-005
3	0	9.604805855594896E+002	2.2519065E-001	3.8648941E-006
3	0	9.609805855468585E+002	2.2507603E-001	-1.8699054E-004
3	0	9.614805855342274E+002	2.2496720E-001	2.2950437E-005
3	0	9.619805855215964E+002	2.2484711E-001	3.8648941E-006
3	0	9.624805855089653E+002	2.2470573E-001	4.2035979E-005
3	0	9.629805854963342E+002	2.2455016E-001	-7.2477276E-005
3	0	9.634805854837032E+002	2.2443084E-001	-9.1562819E-005
3	0	9.639805854710721E+002	2.2433336E-001	-5.3391734E-005
3	0	9.644805854584411E+002	2.2423439E-001	-1.8699054E-004
3	0	9.649805854458100E+002	2.2412814E-001	-1.2973390E-004
3	0	9.654805854331789E+002	2.2401874E-001	-7.2477276E-005
3	0	9.659805854205479E+002	2.2390699E-001	-1.5220648E-005
3	0	9.664805854079168E+002	2.2377296E-001	-1.2973390E-004
3	0	9.669805853952857E+002	2.2362508E-001	2.2950437E-005
3	0	9.674805853826547E+002	2.2351646E-001	-7.2477276E-005
3	0	9.679805853700236E+002	2.2342758E-001	-1.4881945E-004
3	0	9.684805853573926E+002	2.2333564E-001	6.1121522E-005
3	0	9.689805853447615E+002	2.2323847E-001	-1.8699054E-004
3	0	9.694805853321304E+002	2.2314206E-001	-7.2477276E-005
3	0	9.699805853194994E+002	2.2303869E-001	-1.4881945E-004
3	0	9.704805853068683E+002	2.2291589E-001	3.8648941E-006
3	0	9.709805852942372E+002	2.2277211E-001	6.1121522E-005
3	0	9.714805852816062E+002	2.2266343E-001	3.8648941E-006
3	0	9.719805852689751E+002	2.2258911E-001	-1.4881945E-004
3	0	9.724805852563441E+002	2.2250004E-001	-1.1064836E-004
3	0	9.729805852437130E+002	2.2240697E-001	-3.4306191E-005
3	0	9.734805852310819E+002	2.2231910E-001	-9.1562819E-005
3	0	9.739805852184509E+002	2.2222100E-001	3.8648941E-006
3	0	9.744805852058198E+002	2.2210374E-001	3.8648941E-006
3	0	9.749805851931887E+002	2.2197287E-001	3.8648941E-006
3	0	9.754805851805577E+002	2.2186525E-001	1.1837815E-004
3	0	9.759805851679266E+002	2.2179125E-001	3.8648941E-006
3	0	9.764805851552956E+002	2.2171424E-001	-7.2477276E-005
3	0	9.769805851426645E+002	2.2162887E-001	-5.3391734E-005
3	0	9.774805851300334E+002	2.2154406E-001	-1.5220648E-005
3	0	9.779805851174024E+002	2.2145155E-001	4.2035979E-005
3	0	9.784805851047713E+002	2.2133812E-001	-9.1562819E-005
3	0	9.789805850921402E+002	2.2120558E-001	4.2035979E-005
3	0	9.794805850795092E+002	2.2110905E-001	-5.3391734E-005
3	0	9.799805850668781E+002	2.2104003E-001	-7.2477276E-005
3	0	9.804805850542471E+002	2.2096829E-001	-1.2973390E-004
3	0	9.809805850416160E+002	2.2089183E-001	-3.4306191E-005
3	0	9.814805850289849E+002	2.2081019E-001	-7.2477276E-005
3	0	9.819805850163539E+002	2.2072908E-001	6.1121522E-005
3	0	9.824805850037228E+002	2.2062699E-001	-1.4881945E-004
3	0	9.829805849910917E+002	2.2050478E-001	3.8648941E-006
3	0	9.834805849784607E+002	2.2041108E-001	2.2950437E-005
3	0	9.839805849658296E+002	2.2034779E-001	-2.0607607E-004
3	0	9.844805849531986E+002	2.2027521E-001	4.2035979E-005
3	0	9.849805849405675E+002	2.2019605E-001	-3.4306191E-005
3	0	9.854805849279364E+002	2.2011708E-001	-7.2477276E-005
3	0	9.859805849153054E+002	2.2003542E-001	-3.4306191E-005
3	0	9.864805849026743E+002	2.1993075E-001	8.0207064E-005
3	0	9.869805848900432E+002	2.1980369E-001	-9.1562819E-005
3	0	9.874805848774122E+002	2.1970746E-001	6.1121522E-005
3	0	9.879805848647811E+002	2.1964395E-001	3.8648941E-006
3	0	9.884805848521501E+002	2.1957384E-001	-1.2973390E-004
3	0	9.889805848395190E+002	2.1949962E-001	-1.1064836E-004
3	0	9.894805848268879E+002	2.1942553E-001	-1.2973390E-004
3	0	9.899805848142569E+002	2.1935093E-001	-5.3391734E-005
3	0	9.900145848133980E+002	2.1930225E-001	-7.2477276E-005