EC-Lab ASCII FILE
Nb header lines : 48                          

Open Circuit Voltage

Run on channel : 1 (SN 81504)
User : 
CE vs. WE compliance from -10 V to 10 V
Electrode connection : standard
Potential control : Ewe
Ewe ctrl range : min = -2.50 V, max = 2.50 V
Safety Limits :
	Do not start on E overload
Acquisition started on : 05/10/2026 00:41:40.044
Loaded Setting File :  C:\PEM-WE_measurements\2026\372_IV_IV IrOx, 5 min Pt, 30 min C, etched cathode\new station\Loopeis new\1,46 V different time gaps closed cell\Loopeis 1,46V_45s_2_PEIS from 65kHz to 10kHz.mps
Saved on :
	File : L_07_Loopeis 1,46V_45s_2_PEIS from 65kHz to 10kHz_16_OCV_C01.mpr
	Directory : C:\PEM-WE_measurements\2026\372_IV_IV IrOx, 5 min Pt, 30 min C, etched cathode\new station\Loopeis new\1,46 V different time gaps closed cell\
	Host : 192.168.0.2
Device : SP-150e (SN .005491)
Address : 192.168.0.91
EC-LAB for windows v11.71 (software)
Internet server v28.00 (firmware)
Command interpretor v14.01 (firmware)
Electrode material : 
Initial state : 
Electrolyte : 
Comments : 
Current amplifier : SP-150eB-20A
Electrode surface area : 0.001 cm²
Characteristic mass : 0.001 g
Equivalent Weight : 0.000 g/eq.
Density : 0.000 g/cm3
Volume (V) : 0.001 cm³
Record Analogic IN 1
Text export
   Mode : Standard
   Time format : Elapsed
Cycle Definition : Charge/Discharge alternance
tR (h:m:s)          0:00:45.0000        
dER/dt (mV/h)       1.0                 
record              <Ewe>               
dER (mV)            10.00               
dtR (s)             0.5000              
E range min (V)     -2.500              
E range max (V)     2.500               

mode	error	time/s	<Ewe/V>	Analog IN 1/V	
3	0	6.784073961722606E+002	1.2106540E+000	-1.1064836E-004
3	0	6.789073961596296E+002	1.2530477E+000	-1.5220648E-005
3	0	6.794073961469985E+002	1.2575506E+000	-5.3391734E-005
3	0	6.799073961343674E+002	1.2603291E+000	2.2950437E-005
3	0	6.804073961217364E+002	1.2622715E+000	-1.6790499E-004
3	0	6.809073961091053E+002	1.2637247E+000	-5.3391734E-005
3	0	6.814073960964743E+002	1.2648479E+000	-7.2477276E-005
3	0	6.819073960838432E+002	1.2657157E+000	3.8648941E-006
3	0	6.824073960712121E+002	1.2663393E+000	-1.5220648E-005
3	0	6.829073960585811E+002	1.2668092E+000	-9.1562819E-005
3	0	6.834073960459500E+002	1.2672524E+000	1.3746369E-004
3	0	6.839073960333189E+002	1.2676331E+000	-1.4881945E-004
3	0	6.844073960206879E+002	1.2679430E+000	-1.1064836E-004
3	0	6.849073960080568E+002	1.2681872E+000	-1.5220648E-005
3	0	6.854073959954258E+002	1.2683932E+000	-5.3391734E-005
3	0	6.859073959827947E+002	1.2685297E+000	2.2950437E-005
3	0	6.864073959701636E+002	1.2685539E+000	4.2035979E-005
3	0	6.869073959575326E+002	1.2684957E+000	-1.1064836E-004
3	0	6.874073959449015E+002	1.2684999E+000	2.2950437E-005
3	0	6.879073959322704E+002	1.2685118E+000	-1.5220648E-005
3	0	6.884073959196394E+002	1.2684994E+000	4.2035979E-005
3	0	6.889073959070083E+002	1.2684535E+000	2.2950437E-005
3	0	6.894073958943773E+002	1.2684145E+000	-3.4306191E-005
3	0	6.899073958817462E+002	1.2683322E+000	2.2950437E-005
3	0	6.904073958691151E+002	1.2681749E+000	-3.4306191E-005
3	0	6.909073958564841E+002	1.2679677E+000	-1.5220648E-005
3	0	6.914073958438530E+002	1.2678549E+000	-1.2973390E-004
3	0	6.919073958312219E+002	1.2677747E+000	1.1837815E-004
3	0	6.924073958185909E+002	1.2676983E+000	-1.2973390E-004
3	0	6.929073958059598E+002	1.2676142E+000	3.8648941E-006
3	0	6.934073957933288E+002	1.2675321E+000	-1.5220648E-005
3	0	6.939073957806977E+002	1.2674093E+000	-1.6790499E-004
3	0	6.944073957680666E+002	1.2672133E+000	-7.2477276E-005
3	0	6.949073957554356E+002	1.2669778E+000	6.1121522E-005
3	0	6.954073957428045E+002	1.2668374E+000	-7.2477276E-005
3	0	6.959073957301734E+002	1.2667283E+000	3.8648941E-006
3	0	6.964073957175424E+002	1.2666092E+000	-1.5220648E-005
3	0	6.969073957049113E+002	1.2664769E+000	-1.6790499E-004
3	0	6.974073956922803E+002	1.2663490E+000	-5.3391734E-005
3	0	6.979073956796492E+002	1.2661711E+000	-3.4306191E-005
3	0	6.984073956670181E+002	1.2659349E+000	-1.4881945E-004
3	0	6.989073956543871E+002	1.2656550E+000	-1.5220648E-005
3	0	6.994073956417560E+002	1.2654518E+000	3.8648941E-006
3	0	6.999073956291249E+002	1.2652746E+000	-5.3391734E-005
3	0	7.004073956164939E+002	1.2650884E+000	-5.3391734E-005
3	0	7.009073956038628E+002	1.2648941E+000	4.2035979E-005
3	0	7.014073955912318E+002	1.2647012E+000	-7.2477276E-005
3	0	7.019073955786007E+002	1.2644703E+000	-1.5220648E-005
3	0	7.024073955659696E+002	1.2641761E+000	-3.4306191E-005
3	0	7.029073955533386E+002	1.2638372E+000	-1.1064836E-004
3	0	7.034073955407075E+002	1.2635748E+000	4.2035979E-005
3	0	7.039073955280764E+002	1.2633437E+000	-9.1562819E-005
3	0	7.044073955154454E+002	1.2631092E+000	-3.4306191E-005
3	0	7.049073955028143E+002	1.2628701E+000	-7.2477276E-005
3	0	7.054073954901833E+002	1.2626199E+000	4.2035979E-005
3	0	7.059073954775522E+002	1.2623471E+000	2.2950437E-005
3	0	7.064073954649211E+002	1.2619991E+000	-7.2477276E-005
3	0	7.069073954522901E+002	1.2616094E+000	-3.4306191E-005
3	0	7.074073954396590E+002	1.2612947E+000	-1.1064836E-004
3	0	7.079073954270280E+002	1.2610114E+000	-5.3391734E-005
3	0	7.084073954143969E+002	1.2607219E+000	-3.4306191E-005
3	0	7.089073954017658E+002	1.2604328E+000	-5.3391734E-005
3	0	7.094073953891348E+002	1.2601466E+000	-3.4306191E-005
3	0	7.099073953765037E+002	1.2598571E+000	6.1121522E-005
3	0	7.104073953638726E+002	1.2594916E+000	-5.3391734E-005
3	0	7.109073953512416E+002	1.2590957E+000	4.2035979E-005
3	0	7.114073953386105E+002	1.2587917E+000	-3.4306191E-005
3	0	7.119073953259795E+002	1.2585225E+000	-1.8699054E-004
3	0	7.124073953133484E+002	1.2582508E+000	-1.1064836E-004
3	0	7.129073953007173E+002	1.2579852E+000	-5.3391734E-005
3	0	7.134073952880863E+002	1.2577163E+000	-1.5220648E-005
3	0	7.139073952754552E+002	1.2574295E+000	-1.5220648E-005
3	0	7.144073952628241E+002	1.2570736E+000	6.1121522E-005
3	0	7.149073952501931E+002	1.2566781E+000	8.0207064E-005
3	0	7.154073952375620E+002	1.2563658E+000	9.9292607E-005
3	0	7.159073952249310E+002	1.2560955E+000	-1.5220648E-005
3	0	7.164073952122999E+002	1.2558171E+000	-9.1562819E-005
3	0	7.169073951996688E+002	1.2555389E+000	-1.1064836E-004
3	0	7.174073951870378E+002	1.2552552E+000	-1.2973390E-004
3	0	7.179073951744067E+002	1.2549393E+000	-1.5220648E-005
3	0	7.184073951617756E+002	1.2545552E+000	-1.1064836E-004
3	0	7.189073951491446E+002	1.2541227E+000	-5.3391734E-005
3	0	7.194073951365135E+002	1.2537742E+000	8.0207064E-005
3	0	7.199073951238825E+002	1.2534580E+000	3.8648941E-006
3	0	7.204073951112514E+002	1.2531331E+000	9.9292607E-005
3	0	7.209073950986203E+002	1.2528090E+000	-3.4306191E-005
3	0	7.214073950859893E+002	1.2524779E+000	-5.3391734E-005
3	0	7.219073950733582E+002	1.2521278E+000	2.2950437E-005
3	0	7.224073950607271E+002	1.2516994E+000	-7.2477276E-005
3	0	7.229073950480961E+002	1.2512288E+000	1.1837815E-004
3	0	7.229413950472372E+002	1.2510184E+000	-5.3391734E-005