EC-Lab ASCII FILE
Nb header lines : 55                          

Open Circuit Voltage

Run on channel : 1 (SN 81504)
User : 
CE vs. WE compliance from -10 V to 10 V
Electrode connection : standard
Potential control : Ewe
Ewe ctrl range : min = -2.50 V, max = 2.50 V
Safety Limits :
	Do not start on E overload
Acquisition started on : 05/08/2026 01:25:27.042
Loaded Setting File :  C:\PEM-WE_measurements\2026\372_IV_IV IrOx, 5 min Pt, 30 min C, etched cathode\new station\Loopeis new\1,46 V different time gaps open cell\Loopeis 1,46V_180s_5_PEIS from 65Hz to 10Hz.mps
Saved on :
	File : L_30_Loopeis 1,46V_180s_5_PEIS from 65Hz to 10Hz_06_OCV_C01.mpr
	Directory : C:\PEM-WE_measurements\2026\372_IV_IV IrOx, 5 min Pt, 30 min C, etched cathode\new station\Loopeis new\1,46 V different time gaps open cell\
	Host : 192.168.0.2
Device : SP-150e (SN .005491)
Address : 192.168.0.91
EC-LAB for windows v11.71 (software)
Internet server v28.00 (firmware)
Command interpretor v14.01 (firmware)
Electrode material : 
Initial state : 
Electrolyte : 
Comments : 
Current amplifier : SP-150eB-20A
Electrode surface area : 0.001 cm²
Characteristic mass : 0.001 g
Equivalent Weight : 0.000 g/eq.
Density : 0.000 g/cm3
Volume (V) : 0.001 cm³
Record Analogic IN 1
Text export
   Mode : Standard
   Time format : Elapsed
Cycle Definition : Charge/Discharge alternance
External device configuration :
   device type : Temperature Probe
   device name : Other
   Analog IN 1 : 
      unit : T/Â°C
      max : 100.000 at 2.000 V
      min : 0.000 at 1.460 V
tR (h:m:s)          0:03:0.0000         
dER/dt (mV/h)       1.0                 
record              <Ewe>               
dER (mV)            10.00               
dtR (s)             0.5000              
E range min (V)     -2.500              
E range max (V)     2.500               

mode	error	time/s	<Ewe/V>	Analog IN 1/V	
3	0	5.086105913794017E+002	1.2259635E+000	-2.7038385E+002
3	0	5.091105913667707E+002	1.1833760E+000	-2.7037677E+002
3	0	5.096105913541396E+002	8.6733592E-001	-2.7036972E+002
3	0	5.101105913415086E+002	4.4247741E-001	-2.7037326E+002
3	0	5.106105913288775E+002	3.4779251E-001	-2.7035913E+002
3	0	5.111105913162464E+002	3.3431798E-001	-2.7036618E+002
3	0	5.116105913036154E+002	3.2617885E-001	-2.7036267E+002
3	0	5.121105912909843E+002	3.1973535E-001	-2.7038742E+002
3	0	5.126105912783532E+002	3.1482932E-001	-2.7039093E+002
3	0	5.131105912657222E+002	3.1106818E-001	-2.7036972E+002
3	0	5.136105912530911E+002	3.0811873E-001	-2.7039801E+002
3	0	5.141105912404601E+002	3.0572414E-001	-2.7034143E+002
3	0	5.146105912278290E+002	3.0372468E-001	-2.7039447E+002
3	0	5.151105912151979E+002	3.0202049E-001	-2.7039093E+002
3	0	5.156105912025669E+002	3.0057544E-001	-2.7038031E+002
3	0	5.161105911899358E+002	2.9931867E-001	-2.7035913E+002
3	0	5.166105911773047E+002	2.9819787E-001	-2.7038031E+002
3	0	5.171105911646737E+002	2.9716739E-001	-2.7039447E+002
3	0	5.176105911520426E+002	2.9622281E-001	-2.7039093E+002
3	0	5.181105911394116E+002	2.9533470E-001	-2.7038031E+002
3	0	5.186105911267805E+002	2.9448190E-001	-2.7038742E+002
3	0	5.191105911141494E+002	2.9367220E-001	-2.7036972E+002
3	0	5.196105911015184E+002	2.9293287E-001	-2.7037326E+002
3	0	5.201105910888873E+002	2.9224002E-001	-2.7038385E+002
3	0	5.206105910762562E+002	2.9156813E-001	-2.7034143E+002
3	0	5.211105910636252E+002	2.9091462E-001	-2.7039447E+002
3	0	5.216105910509941E+002	2.9028153E-001	-2.7038385E+002
3	0	5.221105910383631E+002	2.8964970E-001	-2.7035913E+002
3	0	5.226105910257320E+002	2.8901878E-001	-2.7038031E+002
3	0	5.231105910131009E+002	2.8839296E-001	-2.7039801E+002
3	0	5.236105910004699E+002	2.8780732E-001	-2.7037326E+002
3	0	5.241105909878388E+002	2.8723997E-001	-2.7036972E+002
3	0	5.246105909752077E+002	2.8668752E-001	-2.7040506E+002
3	0	5.251105909625767E+002	2.8613397E-001	-2.7038742E+002
3	0	5.256105909499456E+002	2.8559992E-001	-2.7038031E+002
3	0	5.261105909373146E+002	2.8505301E-001	-2.7038742E+002
3	0	5.266105909246835E+002	2.8449649E-001	-2.7037677E+002
3	0	5.271105909120524E+002	2.8393671E-001	-2.7036618E+002
3	0	5.276105908994214E+002	2.8341761E-001	-2.7036618E+002
3	0	5.281105908867903E+002	2.8291488E-001	-2.7039093E+002
3	0	5.286105908741592E+002	2.8242069E-001	-2.7037326E+002
3	0	5.291105908615282E+002	2.8193298E-001	-2.7039801E+002
3	0	5.296105908488971E+002	2.8143847E-001	-2.7040506E+002
3	0	5.301105908362661E+002	2.8094408E-001	-2.7037326E+002
3	0	5.306105908236350E+002	2.8042907E-001	-2.7036972E+002
3	0	5.311105908110039E+002	2.7991489E-001	-2.7036267E+002
3	0	5.316105907983729E+002	2.7944234E-001	-2.7036972E+002
3	0	5.321105907857418E+002	2.7899036E-001	-2.7038385E+002
3	0	5.326105907731107E+002	2.7852911E-001	-2.7037326E+002
3	0	5.331105907604797E+002	2.7807808E-001	-2.7036618E+002
3	0	5.336105907478486E+002	2.7763462E-001	-2.7037677E+002
3	0	5.341105907352176E+002	2.7717248E-001	-2.7038031E+002
3	0	5.346105907225865E+002	2.7670106E-001	-2.7038742E+002
3	0	5.351105907099554E+002	2.7622360E-001	-2.7036972E+002
3	0	5.356105906973244E+002	2.7578646E-001	-2.7040506E+002
3	0	5.361105906846933E+002	2.7536577E-001	-2.7039801E+002
3	0	5.366105906720622E+002	2.7494380E-001	-2.7039093E+002
3	0	5.371105906594312E+002	2.7452564E-001	-2.7038031E+002
3	0	5.376105906468001E+002	2.7411306E-001	-2.7040506E+002
3	0	5.381105906341691E+002	2.7369252E-001	-2.7037677E+002
3	0	5.386105906215380E+002	2.7324989E-001	-2.7036618E+002
3	0	5.391105906089069E+002	2.7280265E-001	-2.7038031E+002
3	0	5.396105905962759E+002	2.7240187E-001	-2.7037326E+002
3	0	5.401105905836448E+002	2.7202147E-001	-2.7038031E+002
3	0	5.406105905710137E+002	2.7163202E-001	-2.7038031E+002
3	0	5.411105905583827E+002	2.7124307E-001	-2.7039447E+002
3	0	5.416105905457516E+002	2.7085817E-001	-2.7038385E+002
3	0	5.421105905331206E+002	2.7046925E-001	-2.7036972E+002
3	0	5.426105905204895E+002	2.7005488E-001	-2.7036972E+002
3	0	5.431105905078584E+002	2.6965392E-001	-2.7039801E+002
3	0	5.436105904952274E+002	2.6929435E-001	-2.7035205E+002
3	0	5.441105904825963E+002	2.6893947E-001	-2.7039093E+002
3	0	5.446105904699652E+002	2.6858756E-001	-2.7035205E+002
3	0	5.451105904573342E+002	2.6823327E-001	-2.7038742E+002
3	0	5.456105904447031E+002	2.6788211E-001	-2.7036267E+002
3	0	5.461105904320721E+002	2.6751974E-001	-2.7039093E+002
3	0	5.466105904194410E+002	2.6714477E-001	-2.7036972E+002
3	0	5.471105904068099E+002	2.6676235E-001	-2.7038385E+002
3	0	5.476105903941789E+002	2.6642409E-001	-2.7040860E+002
3	0	5.481105903815478E+002	2.6610336E-001	-2.7039093E+002
3	0	5.486105903689167E+002	2.6577860E-001	-2.7040506E+002
3	0	5.491105903562857E+002	2.6545143E-001	-2.7037677E+002
3	0	5.496105903436546E+002	2.6511884E-001	-2.7038742E+002
3	0	5.501105903310236E+002	2.6479459E-001	-2.7035913E+002
3	0	5.506105903183925E+002	2.6445255E-001	-2.7038385E+002
3	0	5.511105903057614E+002	2.6410007E-001	-2.7036618E+002
3	0	5.516105902931304E+002	2.6379657E-001	-2.7037326E+002
3	0	5.521105902804993E+002	2.6350182E-001	-2.7037326E+002
3	0	5.526105902678682E+002	2.6320598E-001	-2.7040155E+002
3	0	5.531105902552372E+002	2.6290667E-001	-2.7039093E+002
3	0	5.536105902426061E+002	2.6261142E-001	-2.7036618E+002
3	0	5.541105902299751E+002	2.6230517E-001	-2.7038742E+002
3	0	5.546105902173440E+002	2.6198742E-001	-2.7038031E+002
3	0	5.551105902047129E+002	2.6166278E-001	-2.7038031E+002
3	0	5.556105901920819E+002	2.6137930E-001	-2.7038031E+002
3	0	5.561105901794508E+002	2.6111174E-001	-2.7036267E+002
3	0	5.566105901668197E+002	2.6083714E-001	-2.7038742E+002
3	0	5.571105901541887E+002	2.6056600E-001	-2.7040155E+002
3	0	5.576105901415576E+002	2.6029310E-001	-2.7038385E+002
3	0	5.581105901289266E+002	2.6000980E-001	-2.7037326E+002
3	0	5.586105901162955E+002	2.5971249E-001	-2.7040860E+002
3	0	5.591105901036644E+002	2.5941271E-001	-2.7036972E+002
3	0	5.596105900910334E+002	2.5915328E-001	-2.7036972E+002
3	0	5.601105900784023E+002	2.5891030E-001	-2.7037677E+002
3	0	5.606105900657712E+002	2.5866410E-001	-2.7037677E+002
3	0	5.611105900531402E+002	2.5840911E-001	-2.7038385E+002
3	0	5.616105900405091E+002	2.5816467E-001	-2.7041919E+002
3	0	5.621105900278781E+002	2.5791475E-001	-2.7041214E+002
3	0	5.626105900152470E+002	2.5763702E-001	-2.7039093E+002
3	0	5.631105900026159E+002	2.5735843E-001	-2.7035913E+002
3	0	5.636105899899849E+002	2.5711897E-001	-2.7038742E+002
3	0	5.641105899773538E+002	2.5689772E-001	-2.7039447E+002
3	0	5.646105899647227E+002	2.5667489E-001	-2.7039447E+002
3	0	5.651105899520917E+002	2.5644666E-001	-2.7038742E+002
3	0	5.656105899394606E+002	2.5622293E-001	-2.7037326E+002
3	0	5.661105899268296E+002	2.5598061E-001	-2.7039801E+002
3	0	5.666105899141985E+002	2.5572595E-001	-2.7040506E+002
3	0	5.671105899015674E+002	2.5546908E-001	-2.7038385E+002
3	0	5.676105898889364E+002	2.5525072E-001	-2.7038385E+002
3	0	5.681105898763053E+002	2.5504741E-001	-2.7038742E+002
3	0	5.686105898636743E+002	2.5484356E-001	-2.7037677E+002
3	0	5.691105898510432E+002	2.5464034E-001	-2.7038031E+002
3	0	5.696105898384121E+002	2.5443068E-001	-2.7036618E+002
3	0	5.701105898257811E+002	2.5421622E-001	-2.7038031E+002
3	0	5.706105898131500E+002	2.5397691E-001	-2.7038031E+002
3	0	5.711105898005189E+002	2.5373581E-001	-2.7035205E+002
3	0	5.716105897878879E+002	2.5354466E-001	-2.7038385E+002
3	0	5.721105897752568E+002	2.5335425E-001	-2.7039093E+002
3	0	5.726105897626258E+002	2.5316554E-001	-2.7034497E+002
3	0	5.731105897499947E+002	2.5297731E-001	-2.7038742E+002
3	0	5.736105897373636E+002	2.5278610E-001	-2.7037677E+002
3	0	5.741105897247326E+002	2.5258204E-001	-2.7038742E+002
3	0	5.746105897121015E+002	2.5236452E-001	-2.7035559E+002
3	0	5.751105896994704E+002	2.5213403E-001	-2.7036267E+002
3	0	5.756105896868394E+002	2.5195500E-001	-2.7036618E+002
3	0	5.761105896742083E+002	2.5178465E-001	-2.7038385E+002
3	0	5.766105896615773E+002	2.5160518E-001	-2.7038031E+002
3	0	5.771105896489462E+002	2.5142545E-001	-2.7038742E+002
3	0	5.776105896363151E+002	2.5124449E-001	-2.7038742E+002
3	0	5.781105896236841E+002	2.5105199E-001	-2.7036618E+002
3	0	5.786105896110530E+002	2.5084904E-001	-2.7036618E+002
3	0	5.791105895984219E+002	2.5063673E-001	-2.7038031E+002
3	0	5.796105895857909E+002	2.5046736E-001	-2.7037677E+002
3	0	5.801105895731598E+002	2.5031227E-001	-2.7040860E+002
3	0	5.806105895605288E+002	2.5014985E-001	-2.7039447E+002
3	0	5.811105895478977E+002	2.4998771E-001	-2.7040155E+002
3	0	5.816105895352666E+002	2.4982923E-001	-2.7039801E+002
3	0	5.821105895226356E+002	2.4965858E-001	-2.7036267E+002
3	0	5.826105895100045E+002	2.4946696E-001	-2.7035913E+002
3	0	5.831105894973734E+002	2.4927239E-001	-2.7037326E+002
3	0	5.836105894847424E+002	2.4912244E-001	-2.7039447E+002
3	0	5.841105894721113E+002	2.4896912E-001	-2.7037326E+002
3	0	5.846105894594803E+002	2.4882337E-001	-2.7036618E+002
3	0	5.851105894468492E+002	2.4867204E-001	-2.7039447E+002
3	0	5.856105894342181E+002	2.4852245E-001	-2.7037326E+002
3	0	5.861105894215871E+002	2.4835829E-001	-2.7034851E+002
3	0	5.866105894089560E+002	2.4817638E-001	-2.7037677E+002
3	0	5.871105893963249E+002	2.4799488E-001	-2.7035913E+002
3	0	5.876105893836939E+002	2.4785328E-001	-2.7039447E+002
3	0	5.881105893710628E+002	2.4771920E-001	-2.7036972E+002
3	0	5.886105893584318E+002	2.4757914E-001	-2.7037677E+002
3	0	5.891105893458007E+002	2.4744079E-001	-2.7040860E+002
3	0	5.896105893331696E+002	2.4730377E-001	-2.7037326E+002
3	0	5.901105893205386E+002	2.4715136E-001	-2.7037677E+002
3	0	5.906105893079075E+002	2.4698165E-001	-2.7038385E+002
3	0	5.911105892952764E+002	2.4680737E-001	-2.7038031E+002
3	0	5.916105892826454E+002	2.4667384E-001	-2.7038031E+002
3	0	5.921105892700143E+002	2.4655579E-001	-2.7037677E+002
3	0	5.926105892573833E+002	2.4642804E-001	-2.7038385E+002
3	0	5.931105892447522E+002	2.4630094E-001	-2.7037677E+002
3	0	5.936105892321211E+002	2.4617404E-001	-2.7038742E+002
3	0	5.941105892194901E+002	2.4603564E-001	-2.7038031E+002
3	0	5.946105892068590E+002	2.4587438E-001	-2.7038742E+002
3	0	5.951105891942279E+002	2.4570745E-001	-2.7039801E+002
3	0	5.956105891815969E+002	2.4558587E-001	-2.7037326E+002
3	0	5.961105891689658E+002	2.4547225E-001	-2.7035559E+002
3	0	5.966105891563348E+002	2.4535133E-001	-2.7041568E+002
3	0	5.971105891437037E+002	2.4522953E-001	-2.7040506E+002
3	0	5.976105891310726E+002	2.4510729E-001	-2.7036618E+002
3	0	5.981105891184416E+002	2.4497120E-001	-2.7039801E+002
3	0	5.986105891058105E+002	2.4481276E-001	-2.7038385E+002
3	0	5.991105890931794E+002	2.4464540E-001	-2.7036267E+002
3	0	5.996105890805484E+002	2.4453178E-001	-2.7039801E+002
3	0	6.001105890679173E+002	2.4442616E-001	-2.7037326E+002
3	0	6.006105890552863E+002	2.4431403E-001	-2.7036267E+002
3	0	6.011105890426552E+002	2.4420023E-001	-2.7038031E+002
3	0	6.016105890300241E+002	2.4408528E-001	-2.7035559E+002
3	0	6.021105890173931E+002	2.4396278E-001	-2.7036618E+002
3	0	6.026105890047620E+002	2.4382015E-001	-2.7038031E+002
3	0	6.031105889921309E+002	2.4366549E-001	-2.7038031E+002
3	0	6.036105889794999E+002	2.4355893E-001	-2.7035559E+002
3	0	6.041105889668688E+002	2.4346532E-001	-2.7035559E+002
3	0	6.046105889542378E+002	2.4336635E-001	-2.7036972E+002
3	0	6.051105889416067E+002	2.4326509E-001	-2.7037326E+002
3	0	6.056105889289756E+002	2.4316542E-001	-2.7036972E+002
3	0	6.061105889163446E+002	2.4304681E-001	-2.7038742E+002
3	0	6.066105889037135E+002	2.4291065E-001	-2.7039093E+002
3	0	6.071105888910824E+002	2.4276732E-001	-2.7038385E+002
3	0	6.076105888784514E+002	2.4266942E-001	-2.7038742E+002
3	0	6.081105888658203E+002	2.4257775E-001	-2.7037677E+002
3	0	6.086105888531893E+002	2.4247859E-001	-2.7037677E+002
3	0	6.091105888405582E+002	2.4237312E-001	-2.7039093E+002
3	0	6.096105888279271E+002	2.4227816E-001	-2.7037326E+002
3	0	6.101105888152961E+002	2.4217032E-001	-2.7038385E+002
3	0	6.106105888026650E+002	2.4204086E-001	-2.7035205E+002
3	0	6.111105887900339E+002	2.4190377E-001	-2.7037326E+002
3	0	6.116105887774029E+002	2.4181098E-001	-2.7039801E+002
3	0	6.121105887647718E+002	2.4172272E-001	-2.7038031E+002
3	0	6.126105887521408E+002	2.4163350E-001	-2.7036267E+002
3	0	6.131105887395097E+002	2.4154051E-001	-2.7038742E+002
3	0	6.136105887268786E+002	2.4145262E-001	-2.7039801E+002
3	0	6.141105887142476E+002	2.4134278E-001	-2.7039093E+002
3	0	6.146105887016165E+002	2.4121563E-001	-2.7037326E+002
3	0	6.151105886889854E+002	2.4107911E-001	-2.7035205E+002
3	0	6.156105886763544E+002	2.4098971E-001	-2.7038385E+002
3	0	6.161105886637233E+002	2.4091358E-001	-2.7036618E+002
3	0	6.166105886510923E+002	2.4082845E-001	-2.7038385E+002
3	0	6.171105886384612E+002	2.4073949E-001	-2.7036267E+002
3	0	6.176105886258301E+002	2.4064818E-001	-2.7037677E+002
3	0	6.181105886131991E+002	2.4054469E-001	-2.7036972E+002
3	0	6.186105886005680E+002	2.4041688E-001	-2.7036972E+002
3	0	6.191105885879369E+002	2.4028923E-001	-2.7037677E+002
3	0	6.196105885753059E+002	2.4020526E-001	-2.7037326E+002
3	0	6.201105885626748E+002	2.4012922E-001	-2.7037326E+002
3	0	6.206105885500438E+002	2.4005075E-001	-2.7038031E+002
3	0	6.211105885374127E+002	2.3996639E-001	-2.7040506E+002
3	0	6.216105885247816E+002	2.3988129E-001	-2.7038385E+002
3	0	6.221105885121506E+002	2.3978898E-001	-2.7035205E+002
3	0	6.226105884995195E+002	2.3966935E-001	-2.7036618E+002
3	0	6.231105884868884E+002	2.3954950E-001	-2.7038385E+002
3	0	6.236105884742574E+002	2.3946680E-001	-2.7036972E+002
3	0	6.241105884616263E+002	2.3939838E-001	-2.7040506E+002
3	0	6.246105884489953E+002	2.3932198E-001	-2.7037326E+002
3	0	6.251105884363642E+002	2.3924510E-001	-2.7036972E+002
3	0	6.256105884237331E+002	2.3916838E-001	-2.7039447E+002
3	0	6.261105884111021E+002	2.3908317E-001	-2.7038031E+002
3	0	6.266105883984710E+002	2.3897040E-001	-2.7037677E+002
3	0	6.271105883858399E+002	2.3884964E-001	-2.7039093E+002
3	0	6.276105883732089E+002	2.3877633E-001	-2.7038031E+002
3	0	6.281105883605778E+002	2.3870966E-001	-2.7039093E+002
3	0	6.286105883479468E+002	2.3864017E-001	-2.7038031E+002
3	0	6.291105883353157E+002	2.3856579E-001	-2.7039093E+002
3	0	6.296105883226846E+002	2.3849247E-001	-2.7039093E+002
3	0	6.301105883100536E+002	2.3840773E-001	-2.7036972E+002
3	0	6.306105882974225E+002	2.3830050E-001	-2.7038031E+002
3	0	6.311105882847914E+002	2.3819022E-001	-2.7040155E+002
3	0	6.316105882721604E+002	2.3811935E-001	-2.7038385E+002
3	0	6.321105882595293E+002	2.3805805E-001	-2.7037677E+002
3	0	6.326105882468983E+002	2.3798987E-001	-2.7038742E+002
3	0	6.331105882342672E+002	2.3792183E-001	-2.7036618E+002
3	0	6.336105882216361E+002	2.3785307E-001	-2.7037677E+002
3	0	6.341105882090051E+002	2.3777333E-001	-2.7039093E+002
3	0	6.346105881963740E+002	2.3766829E-001	-2.7037677E+002
3	0	6.351105881837429E+002	2.3755534E-001	-2.7036972E+002
3	0	6.356105881711119E+002	2.3748201E-001	-2.7038742E+002
3	0	6.361105881584808E+002	2.3741974E-001	-2.7039801E+002
3	0	6.366105881458498E+002	2.3735143E-001	-2.7038385E+002
3	0	6.371105881332187E+002	2.3728180E-001	-2.7037677E+002
3	0	6.376105881205876E+002	2.3721053E-001	-2.7038031E+002
3	0	6.381105881079566E+002	2.3712811E-001	-2.7038742E+002
3	0	6.386105880953255E+002	2.3701876E-001	-2.7039093E+002
3	0	6.391105880826944E+002	2.3690538E-001	-2.7038385E+002
3	0	6.396105880700634E+002	2.3683868E-001	-2.7038031E+002
3	0	6.401105880574323E+002	2.3677838E-001	-2.7038742E+002
3	0	6.406105880448013E+002	2.3671085E-001	-2.7039447E+002
3	0	6.411105880321702E+002	2.3665035E-001	-2.7038742E+002
3	0	6.416105880195391E+002	2.3658174E-001	-2.7040155E+002
3	0	6.421105880069081E+002	2.3649950E-001	-2.7038385E+002
3	0	6.426105879942770E+002	2.3638918E-001	-2.7038742E+002
3	0	6.431105879816459E+002	2.3628123E-001	-2.7037326E+002
3	0	6.436105879690149E+002	2.3621270E-001	-2.7038031E+002
3	0	6.441105879563838E+002	2.3615719E-001	-2.7040506E+002
3	0	6.446105879437528E+002	2.3609518E-001	-2.7039447E+002
3	0	6.451105879311217E+002	2.3603061E-001	-2.7037677E+002
3	0	6.456105879184906E+002	2.3596251E-001	-2.7037677E+002
3	0	6.461105879058596E+002	2.3588565E-001	-2.7036972E+002
3	0	6.466105878932285E+002	2.3579417E-001	-2.7038031E+002
3	0	6.471105878805975E+002	2.3569073E-001	-2.7037326E+002
3	0	6.476105878679664E+002	2.3563415E-001	-2.7039801E+002
3	0	6.481105878553353E+002	2.3558529E-001	-2.7037677E+002
3	0	6.486105878427043E+002	2.3551989E-001	-2.7037326E+002
3	0	6.491105878300732E+002	2.3546259E-001	-2.7038031E+002
3	0	6.496105878174421E+002	2.3540734E-001	-2.7035559E+002
3	0	6.501105878048111E+002	2.3533721E-001	-2.7039447E+002
3	0	6.506105877921800E+002	2.3524404E-001	-2.7036618E+002
3	0	6.511105877795490E+002	2.3513925E-001	-2.7040506E+002
3	0	6.516105877669179E+002	2.3507862E-001	-2.7039093E+002
3	0	6.521105877542868E+002	2.3503222E-001	-2.7038031E+002
3	0	6.526105877416558E+002	2.3497425E-001	-2.7038031E+002
3	0	6.531105877290247E+002	2.3491669E-001	-2.7036618E+002
3	0	6.536105877163936E+002	2.3485917E-001	-2.7038385E+002
3	0	6.541105877037626E+002	2.3478946E-001	-2.7036972E+002
3	0	6.546105876911315E+002	2.3469359E-001	-2.7038385E+002
3	0	6.551105876785005E+002	2.3459703E-001	-2.7036618E+002
3	0	6.556105876658694E+002	2.3453698E-001	-2.7036618E+002
3	0	6.561105876532383E+002	2.3448832E-001	-2.7036267E+002
3	0	6.566105876406073E+002	2.3443498E-001	-2.7036972E+002
3	0	6.571105876279762E+002	2.3437464E-001	-2.7038742E+002
3	0	6.576105876153451E+002	2.3431705E-001	-2.7039093E+002
3	0	6.581105876027141E+002	2.3425080E-001	-2.7036618E+002
3	0	6.586105875900830E+002	2.3415478E-001	-2.7038031E+002
3	0	6.591105875774520E+002	2.3405094E-001	-2.7037326E+002
3	0	6.596105875648209E+002	2.3398937E-001	-2.7038385E+002
3	0	6.601105875521898E+002	2.3394430E-001	-2.7035559E+002
3	0	6.606105875395588E+002	2.3389098E-001	-2.7037677E+002
3	0	6.611105875269277E+002	2.3383243E-001	-2.7037677E+002
3	0	6.616105875142966E+002	2.3377560E-001	-2.7039447E+002
3	0	6.621105875016656E+002	2.3370963E-001	-2.7037326E+002
3	0	6.626105874890345E+002	2.3361652E-001	-2.7036972E+002
3	0	6.631105874764035E+002	2.3352054E-001	-2.7038742E+002
3	0	6.636105874637724E+002	2.3346666E-001	-2.7037677E+002
3	0	6.641105874511413E+002	2.3342325E-001	-2.7037326E+002
3	0	6.646105874385103E+002	2.3337390E-001	-2.7038031E+002
3	0	6.651105874258792E+002	2.3332921E-001	-2.7038031E+002
3	0	6.656105874132481E+002	2.3327857E-001	-2.7036267E+002
3	0	6.661105874006171E+002	2.3321673E-001	-2.7038031E+002
3	0	6.666105873879860E+002	2.3312743E-001	-2.7038385E+002
3	0	6.671105873753550E+002	2.3303615E-001	-2.7037677E+002
3	0	6.676105873627239E+002	2.3298304E-001	-2.7038385E+002
3	0	6.681105873500928E+002	2.3294005E-001	-2.7038385E+002
3	0	6.686105873374618E+002	2.3289829E-001	-2.7036972E+002
3	0	6.691105873248307E+002	2.3285438E-001	-2.7038385E+002
3	0	6.696105873121996E+002	2.3280394E-001	-2.7041919E+002
3	0	6.701105872995686E+002	2.3274612E-001	-2.7037677E+002
3	0	6.706105872869375E+002	2.3266293E-001	-2.7036618E+002
3	0	6.711105872743065E+002	2.3257250E-001	-2.7039093E+002
3	0	6.716105872616754E+002	2.3252171E-001	-2.7037326E+002
3	0	6.721105872490443E+002	2.3248327E-001	-2.7038031E+002
3	0	6.726105872364133E+002	2.3243938E-001	-2.7039447E+002
3	0	6.731105872237822E+002	2.3239627E-001	-2.7038031E+002
3	0	6.736105872111511E+002	2.3234618E-001	-2.7035205E+002
3	0	6.741105871985201E+002	2.3229057E-001	-2.7038385E+002
3	0	6.746105871858890E+002	2.3220938E-001	-2.7037677E+002
3	0	6.751105871732580E+002	2.3211822E-001	-2.7037326E+002
3	0	6.756105871606269E+002	2.3207170E-001	-2.7037326E+002
3	0	6.761105871479958E+002	2.3203629E-001	-2.7038031E+002
3	0	6.766105871353648E+002	2.3199196E-001	-2.7037677E+002
3	0	6.771105871227337E+002	2.3194352E-001	-2.7038031E+002
3	0	6.776105871101026E+002	2.3189595E-001	-2.7038742E+002
3	0	6.781105870974716E+002	2.3183770E-001	-2.7038742E+002
3	0	6.786105870848405E+002	2.3175319E-001	-2.7039447E+002
3	0	6.791105870722095E+002	2.3165773E-001	-2.7037677E+002
3	0	6.796105870595784E+002	2.3160577E-001	-2.7035913E+002
3	0	6.801105870469473E+002	2.3156248E-001	-2.7036267E+002
3	0	6.806105870343163E+002	2.3151550E-001	-2.7038031E+002
3	0	6.811105870216852E+002	2.3146862E-001	-2.7038031E+002
3	0	6.816105870090541E+002	2.3142257E-001	-2.7038031E+002
3	0	6.821105869964231E+002	2.3136054E-001	-2.7036618E+002
3	0	6.826105869837920E+002	2.3127389E-001	-2.7035913E+002
3	0	6.831105869711610E+002	2.3118705E-001	-2.7036972E+002
3	0	6.836105869585299E+002	2.3114093E-001	-2.7037326E+002
3	0	6.841105869458988E+002	2.3110566E-001	-2.7039447E+002
3	0	6.846105869332678E+002	2.3106577E-001	-2.7037326E+002
3	0	6.851105869206367E+002	2.3102532E-001	-2.7038742E+002
3	0	6.856105869080056E+002	2.3098421E-001	-2.7039093E+002
3	0	6.861105868953746E+002	2.3092528E-001	-2.7039093E+002
3	0	6.866105868827435E+002	2.3085065E-001	-2.7039801E+002
3	0	6.871105868701125E+002	2.3076645E-001	-2.7035913E+002
3	0	6.876105868574814E+002	2.3072198E-001	-2.7038742E+002
3	0	6.881105868448503E+002	2.3068905E-001	-2.7037677E+002
3	0	6.881109868448402E+002	2.3069352E-001	-2.7038742E+002