EC-Lab ASCII FILE
Nb header lines : 55                          

Open Circuit Voltage

Run on channel : 1 (SN 81504)
User : 
CE vs. WE compliance from -10 V to 10 V
Electrode connection : standard
Potential control : Ewe
Ewe ctrl range : min = -2.50 V, max = 2.50 V
Safety Limits :
	Do not start on E overload
Acquisition started on : 05/10/2026 10:21:59.442
Loaded Setting File :  C:\PEM-WE_measurements\2026\372_IV_IV IrOx, 5 min Pt, 30 min C, etched cathode\new station\Loopeis new\1,46 V different time gaps closed cell\Loopeis 1,46V_180s_5_PEIS from 65Hz to 10Hz.mps
Saved on :
	File : L_30_Loopeis 1,46V_180s_5_PEIS from 65Hz to 10Hz_04_OCV_C01.mpr
	Directory : C:\PEM-WE_measurements\2026\372_IV_IV IrOx, 5 min Pt, 30 min C, etched cathode\new station\Loopeis new\1,46 V different time gaps closed cell\
	Host : 192.168.0.2
Device : SP-150e (SN .005491)
Address : 192.168.0.91
EC-LAB for windows v11.71 (software)
Internet server v28.00 (firmware)
Command interpretor v14.01 (firmware)
Electrode material : 
Initial state : 
Electrolyte : 
Comments : 
Current amplifier : SP-150eB-20A
Electrode surface area : 0.001 cm²
Characteristic mass : 0.001 g
Equivalent Weight : 0.000 g/eq.
Density : 0.000 g/cm3
Volume (V) : 0.001 cm³
Record Analogic IN 1
Text export
   Mode : Standard
   Time format : Elapsed
Cycle Definition : Charge/Discharge alternance
External device configuration :
   device type : Temperature Probe
   device name : Other
   Analog IN 1 : 
      unit : T/Â°C
      max : 100.000 at 2.000 V
      min : 0.000 at 1.460 V
tR (h:m:s)          0:03:0.0000         
dER/dt (mV/h)       1.0                 
record              <Ewe>               
dER (mV)            10.00               
dtR (s)             0.5000              
E range min (V)     -2.500              
E range max (V)     2.500               

mode	error	time/s	<Ewe/V>	Analog IN 1/V	
3	0	4.936296070404933E+002	1.1483536E+000	-2.7038385E+002
3	0	4.941296070278622E+002	1.2624187E+000	-2.7037326E+002
3	0	4.946296070152312E+002	1.2643462E+000	-2.7038742E+002
3	0	4.951296070026001E+002	1.2645192E+000	-2.7038742E+002
3	0	4.956296069899690E+002	1.2636452E+000	-2.7039093E+002
3	0	4.961296069773380E+002	1.2618333E+000	-2.7038742E+002
3	0	4.966296069647069E+002	1.2590281E+000	-2.7038385E+002
3	0	4.971296069520758E+002	1.2549366E+000	-2.7039093E+002
3	0	4.976296069394448E+002	1.2487737E+000	-2.7038031E+002
3	0	4.981296069268137E+002	1.2396635E+000	-2.7038742E+002
3	0	4.986296069141827E+002	1.2267932E+000	-2.7037326E+002
3	0	4.991296069015516E+002	1.2092117E+000	-2.7039093E+002
3	0	4.996296068889205E+002	1.1856424E+000	-2.7036972E+002
3	0	5.001296068762895E+002	1.1543447E+000	-2.7036618E+002
3	0	5.006296068636584E+002	1.1133443E+000	-2.7037677E+002
3	0	5.011296068510273E+002	1.0612818E+000	-2.7039447E+002
3	0	5.016296068383963E+002	9.9786353E-001	-2.7036267E+002
3	0	5.021296068257652E+002	9.2350483E-001	-2.7038031E+002
3	0	5.026296068131342E+002	8.4372014E-001	-2.7039447E+002
3	0	5.031296068005031E+002	7.7216703E-001	-2.7038742E+002
3	0	5.036296067878720E+002	7.1940988E-001	-2.7038742E+002
3	0	5.041296067752410E+002	6.9010460E-001	-2.7038742E+002
3	0	5.046296067626099E+002	6.8216711E-001	-2.7035559E+002
3	0	5.051296067499788E+002	6.8358451E-001	-2.7037326E+002
3	0	5.056296067373478E+002	6.8487650E-001	-2.7036618E+002
3	0	5.061296067247167E+002	6.8472773E-001	-2.7036267E+002
3	0	5.066296067120857E+002	6.8377632E-001	-2.7037326E+002
3	0	5.071296066994546E+002	6.8263686E-001	-2.7036972E+002
3	0	5.076296066868235E+002	6.8125439E-001	-2.7038385E+002
3	0	5.081296066741925E+002	6.7961127E-001	-2.7038385E+002
3	0	5.086296066615614E+002	6.7800546E-001	-2.7036618E+002
3	0	5.091296066489303E+002	6.7800915E-001	-2.7037677E+002
3	0	5.096296066362993E+002	6.7916292E-001	-2.7038385E+002
3	0	5.101296066236682E+002	6.8035471E-001	-2.7037326E+002
3	0	5.106296066110372E+002	6.8145883E-001	-2.7036267E+002
3	0	5.111296065984061E+002	6.8274796E-001	-2.7037326E+002
3	0	5.116296065857750E+002	6.8454742E-001	-2.7038385E+002
3	0	5.121296065731440E+002	6.8640828E-001	-2.7037677E+002
3	0	5.126296065605129E+002	6.8887687E-001	-2.7037677E+002
3	0	5.131296065478818E+002	6.9367659E-001	-2.7036618E+002
3	0	5.136296065352508E+002	7.0036829E-001	-2.7038031E+002
3	0	5.141296065226197E+002	7.0739782E-001	-2.7037677E+002
3	0	5.146296065099887E+002	7.1410614E-001	-2.7036618E+002
3	0	5.151296064973576E+002	7.2035599E-001	-2.7036972E+002
3	0	5.156296064847265E+002	7.2598958E-001	-2.7040155E+002
3	0	5.161296064720955E+002	7.3063689E-001	-2.7036618E+002
3	0	5.166296064594644E+002	7.3472434E-001	-2.7037677E+002
3	0	5.171296064468334E+002	7.3932952E-001	-2.7038385E+002
3	0	5.176296064342023E+002	7.4439579E-001	-2.7038031E+002
3	0	5.181296064215712E+002	7.4884152E-001	-2.7037326E+002
3	0	5.186296064089402E+002	7.5203830E-001	-2.7036972E+002
3	0	5.191296063963091E+002	7.5384086E-001	-2.7036618E+002
3	0	5.196296063836780E+002	7.5406057E-001	-2.7037326E+002
3	0	5.201296063710470E+002	7.5290358E-001	-2.7039447E+002
3	0	5.206296063584159E+002	7.5112611E-001	-2.7039447E+002
3	0	5.211296063457849E+002	7.4993372E-001	-2.7035205E+002
3	0	5.216296063331538E+002	7.4927282E-001	-2.7037677E+002
3	0	5.221296063205227E+002	7.4823976E-001	-2.7037326E+002
3	0	5.226296063078917E+002	7.4639136E-001	-2.7038031E+002
3	0	5.231296062952606E+002	7.4367654E-001	-2.7039801E+002
3	0	5.236296062826295E+002	7.4000221E-001	-2.7038385E+002
3	0	5.241296062699985E+002	7.3539042E-001	-2.7038742E+002
3	0	5.246296062573674E+002	7.3051351E-001	-2.7037326E+002
3	0	5.251296062447364E+002	7.2651494E-001	-2.7036618E+002
3	0	5.256296062321053E+002	7.2340572E-001	-2.7037326E+002
3	0	5.261296062194742E+002	7.2036582E-001	-2.7037326E+002
3	0	5.266296062068432E+002	7.1703476E-001	-2.7039093E+002
3	0	5.271296061942121E+002	7.1332717E-001	-2.7039093E+002
3	0	5.276296061815810E+002	7.0910501E-001	-2.7037677E+002
3	0	5.281296061689500E+002	7.0430797E-001	-2.7039447E+002
3	0	5.286296061563189E+002	6.9934177E-001	-2.7037677E+002
3	0	5.291296061436879E+002	6.9545662E-001	-2.7038385E+002
3	0	5.296296061310568E+002	6.9278252E-001	-2.7038031E+002
3	0	5.301296061184257E+002	6.9051349E-001	-2.7038385E+002
3	0	5.306296061057947E+002	6.8847108E-001	-2.7038385E+002
3	0	5.311296060931636E+002	6.8669289E-001	-2.7037677E+002
3	0	5.316296060805325E+002	6.8524855E-001	-2.7038385E+002
3	0	5.321296060679015E+002	6.8423706E-001	-2.7038031E+002
3	0	5.326296060552704E+002	6.8429387E-001	-2.7035205E+002
3	0	5.331296060426394E+002	6.8672705E-001	-2.7038031E+002
3	0	5.336296060300083E+002	6.9128054E-001	-2.7038742E+002
3	0	5.341296060173772E+002	6.9671994E-001	-2.7037677E+002
3	0	5.346296060047462E+002	7.0231634E-001	-2.7036267E+002
3	0	5.351296059921151E+002	7.0764685E-001	-2.7037326E+002
3	0	5.356296059794840E+002	7.1221763E-001	-2.7038742E+002
3	0	5.361296059668530E+002	7.1564406E-001	-2.7037326E+002
3	0	5.366296059542219E+002	7.1825898E-001	-2.7038742E+002
3	0	5.371296059415909E+002	7.2117615E-001	-2.7039801E+002
3	0	5.376296059289598E+002	7.2429347E-001	-2.7039093E+002
3	0	5.381296059163287E+002	7.2675979E-001	-2.7037677E+002
3	0	5.386296059036977E+002	7.2823519E-001	-2.7036267E+002
3	0	5.391296058910666E+002	7.2860324E-001	-2.7038385E+002
3	0	5.396296058784355E+002	7.2773582E-001	-2.7039093E+002
3	0	5.401296058658045E+002	7.2562933E-001	-2.7039447E+002
3	0	5.406296058531734E+002	7.2281390E-001	-2.7038385E+002
3	0	5.411296058405424E+002	7.2039276E-001	-2.7036267E+002
3	0	5.416296058279113E+002	7.1839070E-001	-2.7038385E+002
3	0	5.421296058152802E+002	7.1599418E-001	-2.7040155E+002
3	0	5.426296058026492E+002	7.1285444E-001	-2.7038031E+002
3	0	5.431296057900181E+002	7.0888704E-001	-2.7037326E+002
3	0	5.436296057773870E+002	7.0398831E-001	-2.7036972E+002
3	0	5.441296057647560E+002	6.9816267E-001	-2.7038385E+002
3	0	5.446296057521249E+002	6.9209045E-001	-2.7038385E+002
3	0	5.451296057394939E+002	6.8703419E-001	-2.7039801E+002
3	0	5.456296057268628E+002	6.8301719E-001	-2.7034497E+002
3	0	5.461296057142317E+002	6.7928249E-001	-2.7038031E+002
3	0	5.466296057016007E+002	6.7542005E-001	-2.7037326E+002
3	0	5.471296056889696E+002	6.7126840E-001	-2.7038742E+002
3	0	5.476296056763385E+002	6.6669679E-001	-2.7038385E+002
3	0	5.481296056637075E+002	6.6160250E-001	-2.7039801E+002
3	0	5.486296056510764E+002	6.5632874E-001	-2.7038031E+002
3	0	5.491296056384454E+002	6.5217078E-001	-2.7038385E+002
3	0	5.496296056258143E+002	6.4912456E-001	-2.7038742E+002
3	0	5.501296056131832E+002	6.4642400E-001	-2.7036972E+002
3	0	5.506296056005522E+002	6.4389414E-001	-2.7039093E+002
3	0	5.511296055879211E+002	6.4168048E-001	-2.7037326E+002
3	0	5.516296055752900E+002	6.3988221E-001	-2.7039093E+002
3	0	5.521296055626590E+002	6.3847739E-001	-2.7036618E+002
3	0	5.526296055500279E+002	6.3783538E-001	-2.7035913E+002
3	0	5.531296055373969E+002	6.3932604E-001	-2.7038385E+002
3	0	5.536296055247658E+002	6.4303780E-001	-2.7039801E+002
3	0	5.541296055121347E+002	6.4794743E-001	-2.7037677E+002
3	0	5.546296054995037E+002	6.5336728E-001	-2.7035559E+002
3	0	5.551296054868726E+002	6.5878975E-001	-2.7038385E+002
3	0	5.556296054742415E+002	6.6369730E-001	-2.7038031E+002
3	0	5.561296054616105E+002	6.6761303E-001	-2.7036618E+002
3	0	5.566296054489794E+002	6.7072928E-001	-2.7035559E+002
3	0	5.571296054363484E+002	6.7417032E-001	-2.7037326E+002
3	0	5.576296054237173E+002	6.7788798E-001	-2.7038031E+002
3	0	5.581296054110862E+002	6.8103957E-001	-2.7037326E+002
3	0	5.586296053984552E+002	6.8321204E-001	-2.7040155E+002
3	0	5.591296053858241E+002	6.8424267E-001	-2.7038031E+002
3	0	5.596296053731930E+002	6.8405885E-001	-2.7036267E+002
3	0	5.601296053605620E+002	6.8249029E-001	-2.7036972E+002
3	0	5.606296053479309E+002	6.7995667E-001	-2.7036267E+002
3	0	5.611296053352999E+002	6.7787915E-001	-2.7037326E+002
3	0	5.616296053226688E+002	6.7627907E-001	-2.7038385E+002
3	0	5.621296053100377E+002	6.7430496E-001	-2.7038031E+002
3	0	5.626296052974067E+002	6.7169267E-001	-2.7036618E+002
3	0	5.631296052847756E+002	6.6838348E-001	-2.7036618E+002
3	0	5.636296052721445E+002	6.6429871E-001	-2.7038742E+002
3	0	5.641296052595135E+002	6.5937483E-001	-2.7038031E+002
3	0	5.646296052468824E+002	6.5400928E-001	-2.7037677E+002
3	0	5.651296052342514E+002	6.4947671E-001	-2.7039093E+002
3	0	5.656296052216203E+002	6.4596134E-001	-2.7040155E+002
3	0	5.661296052089892E+002	6.4264119E-001	-2.7036267E+002
3	0	5.666296051963582E+002	6.3906235E-001	-2.7038742E+002
3	0	5.671296051837271E+002	6.3506728E-001	-2.7038031E+002
3	0	5.676296051710960E+002	6.3057804E-001	-2.7039447E+002
3	0	5.681296051584650E+002	6.2546152E-001	-2.7035205E+002
3	0	5.686296051458339E+002	6.2010580E-001	-2.7036972E+002
3	0	5.691296051332029E+002	6.1580616E-001	-2.7039093E+002
3	0	5.696296051205718E+002	6.1260194E-001	-2.7038385E+002
3	0	5.701296051079407E+002	6.0967761E-001	-2.7038742E+002
3	0	5.706296050953097E+002	6.0682434E-001	-2.7039093E+002
3	0	5.711296050826786E+002	6.0432982E-001	-2.7038385E+002
3	0	5.716296050700475E+002	6.0217780E-001	-2.7038031E+002
3	0	5.721296050574165E+002	6.0001034E-001	-2.7038031E+002
3	0	5.726296050447854E+002	5.9799480E-001	-2.7039447E+002
3	0	5.731296050321544E+002	5.9729749E-001	-2.7037677E+002
3	0	5.736296050195233E+002	5.9770638E-001	-2.7039447E+002
3	0	5.741296050068922E+002	5.9835547E-001	-2.7037677E+002
3	0	5.746296049942612E+002	5.9878963E-001	-2.7039447E+002
3	0	5.751296049816301E+002	5.9875482E-001	-2.7038742E+002
3	0	5.756296049689990E+002	5.9820598E-001	-2.7037677E+002
3	0	5.761296049563680E+002	5.9684509E-001	-2.7036618E+002
3	0	5.766296049437369E+002	5.9490043E-001	-2.7038031E+002
3	0	5.771296049311059E+002	5.9370434E-001	-2.7038031E+002
3	0	5.776296049184748E+002	5.9340030E-001	-2.7036972E+002
3	0	5.781296049058437E+002	5.9303927E-001	-2.7038385E+002
3	0	5.786296048932127E+002	5.9222984E-001	-2.7036618E+002
3	0	5.791296048805816E+002	5.9098929E-001	-2.7036618E+002
3	0	5.796296048679505E+002	5.8905387E-001	-2.7034497E+002
3	0	5.801296048553195E+002	5.8617389E-001	-2.7038031E+002
3	0	5.806296048426884E+002	5.8279860E-001	-2.7038031E+002
3	0	5.811296048300574E+002	5.8034486E-001	-2.7037326E+002
3	0	5.816296048174263E+002	5.7873470E-001	-2.7040506E+002
3	0	5.821296048047952E+002	5.7714182E-001	-2.7039447E+002
3	0	5.826296047921642E+002	5.7520968E-001	-2.7036618E+002
3	0	5.831296047795331E+002	5.7297307E-001	-2.7037326E+002
3	0	5.836296047669020E+002	5.7037675E-001	-2.7036972E+002
3	0	5.841296047542710E+002	5.6692469E-001	-2.7038031E+002
3	0	5.846296047416399E+002	5.6319791E-001	-2.7038031E+002
3	0	5.851296047290089E+002	5.6067443E-001	-2.7035913E+002
3	0	5.856296047163778E+002	5.5900776E-001	-2.7035913E+002
3	0	5.861296047037467E+002	5.5740780E-001	-2.7037326E+002
3	0	5.866296046911157E+002	5.5552864E-001	-2.7035913E+002
3	0	5.871296046784846E+002	5.5337703E-001	-2.7036267E+002
3	0	5.876296046658535E+002	5.5079699E-001	-2.7036972E+002
3	0	5.881296046532225E+002	5.4744905E-001	-2.7038031E+002
3	0	5.886296046405914E+002	5.4393125E-001	-2.7039447E+002
3	0	5.891296046279604E+002	5.4167444E-001	-2.7038385E+002
3	0	5.896296046153293E+002	5.4036504E-001	-2.7039447E+002
3	0	5.901296046026982E+002	5.3901994E-001	-2.7039093E+002
3	0	5.906296045900672E+002	5.3766155E-001	-2.7037326E+002
3	0	5.911296045774361E+002	5.3650123E-001	-2.7038742E+002
3	0	5.916296045648050E+002	5.3541732E-001	-2.7038742E+002
3	0	5.921296045521740E+002	5.3432697E-001	-2.7038742E+002
3	0	5.926296045395429E+002	5.3378254E-001	-2.7040506E+002
3	0	5.931296045269119E+002	5.3524226E-001	-2.7037326E+002
3	0	5.936296045142808E+002	5.3828573E-001	-2.7037326E+002
3	0	5.941296045016497E+002	5.4197723E-001	-2.7038031E+002
3	0	5.946296044890187E+002	5.4581892E-001	-2.7038742E+002
3	0	5.951296044763876E+002	5.4968536E-001	-2.7037326E+002
3	0	5.956296044637566E+002	5.5342752E-001	-2.7038031E+002
3	0	5.961296044511255E+002	5.5638778E-001	-2.7038742E+002
3	0	5.966296044384944E+002	5.5869764E-001	-2.7039447E+002
3	0	5.971296044258634E+002	5.6187761E-001	-2.7037326E+002
3	0	5.976296044132323E+002	5.6551659E-001	-2.7035913E+002
3	0	5.981296044006012E+002	5.6865841E-001	-2.7037677E+002
3	0	5.986296043879702E+002	5.7106602E-001	-2.7039093E+002
3	0	5.991296043753391E+002	5.7282096E-001	-2.7036267E+002
3	0	5.996296043627081E+002	5.7383001E-001	-2.7039093E+002
3	0	6.001296043500770E+002	5.7378310E-001	-2.7037326E+002
3	0	6.006296043374459E+002	5.7294691E-001	-2.7040155E+002
3	0	6.011296043248149E+002	5.7279807E-001	-2.7037677E+002
3	0	6.016296043121838E+002	5.7326496E-001	-2.7035913E+002
3	0	6.021296042995527E+002	5.7339543E-001	-2.7038385E+002
3	0	6.026296042869217E+002	5.7292932E-001	-2.7039093E+002
3	0	6.031296042742906E+002	5.7196951E-001	-2.7038742E+002
3	0	6.036296042616596E+002	5.7025445E-001	-2.7036618E+002
3	0	6.041296042490285E+002	5.6754720E-001	-2.7039801E+002
3	0	6.046296042363974E+002	5.6420958E-001	-2.7036972E+002
3	0	6.051296042237664E+002	5.6190151E-001	-2.7038742E+002
3	0	6.056296042111353E+002	5.6026685E-001	-2.7038031E+002
3	0	6.061296041985042E+002	5.5842936E-001	-2.7037677E+002
3	0	6.066296041858732E+002	5.5620527E-001	-2.7036972E+002
3	0	6.071296041732421E+002	5.5375570E-001	-2.7036267E+002
3	0	6.076296041606111E+002	5.5096126E-001	-2.7036267E+002
3	0	6.081296041479800E+002	5.4735643E-001	-2.7035913E+002
3	0	6.086296041353489E+002	5.4333377E-001	-2.7037326E+002
3	0	6.091296041227179E+002	5.4053307E-001	-2.7038742E+002
3	0	6.096296041100868E+002	5.3852290E-001	-2.7036972E+002
3	0	6.101296040974557E+002	5.3645110E-001	-2.7039093E+002
3	0	6.106296040848247E+002	5.3411400E-001	-2.7037677E+002
3	0	6.111296040721936E+002	5.3172487E-001	-2.7038385E+002
3	0	6.116296040595626E+002	5.2943718E-001	-2.7040155E+002
3	0	6.121296040469315E+002	5.2721095E-001	-2.7038742E+002
3	0	6.126296040343004E+002	5.2555031E-001	-2.7038385E+002
3	0	6.131296040216694E+002	5.2586830E-001	-2.7038031E+002
3	0	6.136296040090383E+002	5.2771640E-001	-2.7039447E+002
3	0	6.141296039964072E+002	5.3009915E-001	-2.7036972E+002
3	0	6.146296039837762E+002	5.3271413E-001	-2.7041214E+002
3	0	6.151296039711451E+002	5.3528833E-001	-2.7039093E+002
3	0	6.156296039585141E+002	5.3748351E-001	-2.7036972E+002
3	0	6.161296039458830E+002	5.3907996E-001	-2.7040155E+002
3	0	6.166296039332519E+002	5.4021966E-001	-2.7036972E+002
3	0	6.171296039206209E+002	5.4238385E-001	-2.7037677E+002
3	0	6.176296039079898E+002	5.4504317E-001	-2.7037677E+002
3	0	6.181296038953587E+002	5.4729915E-001	-2.7036972E+002
3	0	6.186296038827277E+002	5.4901445E-001	-2.7038031E+002
3	0	6.191296038700966E+002	5.5022120E-001	-2.7036972E+002
3	0	6.196296038574656E+002	5.5077368E-001	-2.7038031E+002
3	0	6.201296038448345E+002	5.5006868E-001	-2.7038031E+002
3	0	6.206296038322034E+002	5.4857606E-001	-2.7038742E+002
3	0	6.211296038195724E+002	5.4804212E-001	-2.7037677E+002
3	0	6.216296038069413E+002	5.4797482E-001	-2.7036267E+002
3	0	6.221296037943102E+002	5.4752612E-001	-2.7039801E+002
3	0	6.226296037816792E+002	5.4636979E-001	-2.7036972E+002
3	0	6.231296037690481E+002	5.4472661E-001	-2.7038031E+002
3	0	6.236296037564171E+002	5.4243213E-001	-2.7041214E+002
3	0	6.241296037437860E+002	5.3918624E-001	-2.7037326E+002
3	0	6.246296037311549E+002	5.3544647E-001	-2.7039447E+002
3	0	6.251296037185239E+002	5.3283435E-001	-2.7038031E+002
3	0	6.256296037058928E+002	5.3095406E-001	-2.7036267E+002
3	0	6.261296036932617E+002	5.2888435E-001	-2.7039093E+002
3	0	6.266296036806307E+002	5.2641642E-001	-2.7034143E+002
3	0	6.271296036679996E+002	5.2363813E-001	-2.7037326E+002
3	0	6.276296036553686E+002	5.2046114E-001	-2.7037677E+002
3	0	6.281296036427375E+002	5.1664793E-001	-2.7038031E+002
3	0	6.286296036301064E+002	5.1239949E-001	-2.7036972E+002
3	0	6.291296036174754E+002	5.0939536E-001	-2.7036618E+002
3	0	6.296296036048443E+002	5.0700462E-001	-2.7037326E+002
3	0	6.301296035922132E+002	5.0439727E-001	-2.7037677E+002
3	0	6.306296035795822E+002	5.0163293E-001	-2.7036267E+002
3	0	6.311296035669511E+002	4.9903005E-001	-2.7035205E+002
3	0	6.316296035543201E+002	4.9659026E-001	-2.7036972E+002
3	0	6.321296035416890E+002	4.9393231E-001	-2.7038385E+002
3	0	6.326296035290579E+002	4.9164596E-001	-2.7038031E+002
3	0	6.331296035164269E+002	4.9128103E-001	-2.7036618E+002
3	0	6.336296035037958E+002	4.9213776E-001	-2.7036267E+002
3	0	6.341296034911647E+002	4.9338713E-001	-2.7036267E+002
3	0	6.346296034785337E+002	4.9470866E-001	-2.7039447E+002
3	0	6.351296034659026E+002	4.9604812E-001	-2.7037326E+002
3	0	6.356296034532716E+002	4.9707288E-001	-2.7039801E+002
3	0	6.361296034406405E+002	4.9748927E-001	-2.7035559E+002
3	0	6.366296034280094E+002	4.9747896E-001	-2.7036972E+002
3	0	6.371296034153784E+002	4.9858156E-001	-2.7038742E+002
3	0	6.376296034027473E+002	5.0011909E-001	-2.7036972E+002
3	0	6.381296033901162E+002	5.0119704E-001	-2.7038385E+002
3	0	6.386296033774852E+002	5.0173706E-001	-2.7035913E+002
3	0	6.391296033648541E+002	5.0186682E-001	-2.7035205E+002
3	0	6.396296033522231E+002	5.0142330E-001	-2.7035559E+002
3	0	6.401296033395920E+002	5.0011587E-001	-2.7037326E+002
3	0	6.406296033269609E+002	4.9825513E-001	-2.7036972E+002
3	0	6.411296033143299E+002	4.9742875E-001	-2.7036972E+002
3	0	6.416296033016988E+002	4.9690562E-001	-2.7037326E+002
3	0	6.421296032890677E+002	4.9588299E-001	-2.7038385E+002
3	0	6.426296032764367E+002	4.9432698E-001	-2.7037677E+002
3	0	6.431296032638056E+002	4.9232262E-001	-2.7038385E+002
3	0	6.436296032511746E+002	4.8986378E-001	-2.7040155E+002
3	0	6.441296032385435E+002	4.8661858E-001	-2.7034851E+002
3	0	6.446296032259124E+002	4.8300838E-001	-2.7037326E+002
3	0	6.451296032132814E+002	4.8048776E-001	-2.7039093E+002
3	0	6.456296032006503E+002	4.7837102E-001	-2.7039801E+002
3	0	6.461296031880192E+002	4.7597152E-001	-2.7039447E+002
3	0	6.466296031753882E+002	4.7320583E-001	-2.7037326E+002
3	0	6.471296031627571E+002	4.7006029E-001	-2.7038385E+002
3	0	6.476296031501261E+002	4.6647072E-001	-2.7037326E+002
3	0	6.481296031374950E+002	4.6237186E-001	-2.7036972E+002
3	0	6.486296031248639E+002	4.5803905E-001	-2.7036267E+002
3	0	6.491296031122329E+002	4.5491999E-001	-2.7038031E+002
3	0	6.496296030996018E+002	4.5231789E-001	-2.7036972E+002
3	0	6.501296030869707E+002	4.4938123E-001	-2.7036267E+002
3	0	6.506296030743397E+002	4.4626361E-001	-2.7038031E+002
3	0	6.511296030617086E+002	4.4323143E-001	-2.7037677E+002
3	0	6.516296030490776E+002	4.4020814E-001	-2.7038742E+002
3	0	6.521296030364465E+002	4.3695676E-001	-2.7035559E+002
3	0	6.526296030238154E+002	4.3407223E-001	-2.7037326E+002
3	0	6.531296030111844E+002	4.3288177E-001	-2.7039801E+002
3	0	6.536296029985533E+002	4.3261623E-001	-2.7036267E+002
3	0	6.541296029859222E+002	4.3265119E-001	-2.7038385E+002
3	0	6.546296029732912E+002	4.3287414E-001	-2.7038385E+002
3	0	6.551296029606601E+002	4.3325907E-001	-2.7039801E+002
3	0	6.556296029480291E+002	4.3347937E-001	-2.7038385E+002
3	0	6.561296029353980E+002	4.3311432E-001	-2.7037326E+002
3	0	6.566296029227669E+002	4.3244523E-001	-2.7038742E+002
3	0	6.571296029101359E+002	4.3285003E-001	-2.7036972E+002
3	0	6.576296028975048E+002	4.3349266E-001	-2.7037677E+002
3	0	6.581296028848737E+002	4.3377921E-001	-2.7037326E+002
3	0	6.586296028722427E+002	4.3364450E-001	-2.7039801E+002
3	0	6.591296028596116E+002	4.3312967E-001	-2.7037677E+002
3	0	6.596296028469806E+002	4.3214676E-001	-2.7036972E+002
3	0	6.601296028343495E+002	4.3046662E-001	-2.7039447E+002
3	0	6.606296028217184E+002	4.2843822E-001	-2.7038031E+002
3	0	6.611296028090874E+002	4.2731559E-001	-2.7039801E+002
3	0	6.616296027964563E+002	4.2644715E-001	-2.7037326E+002
3	0	6.621296027838252E+002	4.2521110E-001	-2.7037677E+002
3	0	6.626296027711942E+002	4.2345330E-001	-2.7038031E+002
3	0	6.631296027585631E+002	4.2136595E-001	-2.7037326E+002
3	0	6.636296027459321E+002	4.1884723E-001	-2.7038385E+002
3	0	6.641296027333010E+002	4.1545984E-001	-2.7039801E+002
3	0	6.646296027206699E+002	4.1196126E-001	-2.7038031E+002
3	0	6.651296027080389E+002	4.0943027E-001	-2.7037326E+002
3	0	6.656296026954078E+002	4.0719095E-001	-2.7037326E+002
3	0	6.661296026827767E+002	4.0462440E-001	-2.7037677E+002
3	0	6.666296026701457E+002	4.0170106E-001	-2.7040155E+002
3	0	6.671296026575146E+002	3.9854598E-001	-2.7038742E+002
3	0	6.676296026448836E+002	3.9520383E-001	-2.7038031E+002
3	0	6.681296026322525E+002	3.9132038E-001	-2.7038385E+002
3	0	6.686296026196214E+002	3.8734585E-001	-2.7037326E+002
3	0	6.691296026069904E+002	3.8447961E-001	-2.7037677E+002
3	0	6.696296025943593E+002	3.8195109E-001	-2.7036972E+002
3	0	6.701296025817283E+002	3.7924120E-001	-2.7036972E+002
3	0	6.706296025690972E+002	3.7627479E-001	-2.7039093E+002
3	0	6.711296025564661E+002	3.7343299E-001	-2.7037326E+002
3	0	6.716296025438351E+002	3.7066865E-001	-2.7038742E+002
3	0	6.721296025312040E+002	3.6782637E-001	-2.7034851E+002
3	0	6.726296025185729E+002	3.6522311E-001	-2.7037326E+002
3	0	6.731296025059419E+002	3.6388221E-001	-2.7038742E+002
3	0	6.731530025053507E+002	3.6356628E-001	-2.7038742E+002