EC-Lab ASCII FILE
Nb header lines : 55                          

Open Circuit Voltage

Run on channel : 1 (SN 81504)
User : 
CE vs. WE compliance from -10 V to 10 V
Electrode connection : standard
Potential control : Ewe
Ewe ctrl range : min = -2.50 V, max = 2.50 V
Safety Limits :
	Do not start on E overload
Acquisition started on : 05/10/2026 00:56:49.563
Loaded Setting File :  C:\PEM-WE_measurements\2026\372_IV_IV IrOx, 5 min Pt, 30 min C, etched cathode\new station\Loopeis new\1,46 V different time gaps closed cell\Loopeis 1,46V_45s_3_PEIS from 6500Hz to 1000Hz.mps
Saved on :
	File : L_08_Loopeis 1,46V_45s_3_PEIS from 6500Hz to 1000Hz_10_OCV_C01.mpr
	Directory : C:\PEM-WE_measurements\2026\372_IV_IV IrOx, 5 min Pt, 30 min C, etched cathode\new station\Loopeis new\1,46 V different time gaps closed cell\
	Host : 192.168.0.2
Device : SP-150e (SN .005491)
Address : 192.168.0.91
EC-LAB for windows v11.71 (software)
Internet server v28.00 (firmware)
Command interpretor v14.01 (firmware)
Electrode material : 
Initial state : 
Electrolyte : 
Comments : 
Current amplifier : SP-150eB-20A
Electrode surface area : 0.001 cm²
Characteristic mass : 0.001 g
Equivalent Weight : 0.000 g/eq.
Density : 0.000 g/cm3
Volume (V) : 0.001 cm³
Record Analogic IN 1
Text export
   Mode : Standard
   Time format : Elapsed
Cycle Definition : Charge/Discharge alternance
External device configuration :
   device type : Temperature Probe
   device name : Other
   Analog IN 1 : 
      unit : T/Â°C
      max : 100.000 at 2.000 V
      min : 0.000 at 1.460 V
tR (h:m:s)          0:00:45.0000        
dER/dt (mV/h)       1.0                 
record              <Ewe>               
dER (mV)            10.00               
dtR (s)             0.5000              
E range min (V)     -2.500              
E range max (V)     2.500               

mode	error	time/s	<Ewe/V>	Analog IN 1/V	
3	0	4.059733963268081E+002	1.4190193E+000	-2.7035559E+002
3	0	4.064733963141771E+002	1.4108458E+000	-2.7036267E+002
3	0	4.069733963015460E+002	1.4053403E+000	-2.7038742E+002
3	0	4.074733962889150E+002	1.4013157E+000	-2.7038742E+002
3	0	4.079733962762839E+002	1.3981417E+000	-2.7038385E+002
3	0	4.084733962636528E+002	1.3954805E+000	-2.7040506E+002
3	0	4.089733962510218E+002	1.3931274E+000	-2.7038385E+002
3	0	4.094733962383907E+002	1.3909472E+000	-2.7036972E+002
3	0	4.099733962257596E+002	1.3890229E+000	-2.7039093E+002
3	0	4.104733962131286E+002	1.3873289E+000	-2.7037326E+002
3	0	4.109733962004975E+002	1.3857827E+000	-2.7038031E+002
3	0	4.114733961878665E+002	1.3843577E+000	-2.7036972E+002
3	0	4.119733961752354E+002	1.3830446E+000	-2.7034851E+002
3	0	4.124733961626043E+002	1.3817984E+000	-2.7039447E+002
3	0	4.129733961499733E+002	1.3805773E+000	-2.7037677E+002
3	0	4.134733961373422E+002	1.3793356E+000	-2.7036972E+002
3	0	4.139733961247111E+002	1.3781927E+000	-2.7039801E+002
3	0	4.144733961120801E+002	1.3771738E+000	-2.7038031E+002
3	0	4.149733960994490E+002	1.3762183E+000	-2.7038385E+002
3	0	4.154733960868180E+002	1.3752986E+000	-2.7035913E+002
3	0	4.159733960741869E+002	1.3744292E+000	-2.7038385E+002
3	0	4.164733960615558E+002	1.3735772E+000	-2.7036618E+002
3	0	4.169733960489248E+002	1.3727045E+000	-2.7038385E+002
3	0	4.174733960362937E+002	1.3717914E+000	-2.7038031E+002
3	0	4.179733960236626E+002	1.3709444E+000	-2.7036972E+002
3	0	4.184733960110316E+002	1.3702048E+000	-2.7038385E+002
3	0	4.189733959984005E+002	1.3694974E+000	-2.7036972E+002
3	0	4.194733959857695E+002	1.3687974E+000	-2.7036972E+002
3	0	4.199733959731384E+002	1.3681403E+000	-2.7038385E+002
3	0	4.204733959605073E+002	1.3674684E+000	-2.7037677E+002
3	0	4.209733959478763E+002	1.3667608E+000	-2.7037677E+002
3	0	4.214733959352452E+002	1.3659863E+000	-2.7036267E+002
3	0	4.219733959226141E+002	1.3652806E+000	-2.7036972E+002
3	0	4.224733959099831E+002	1.3646624E+000	-2.7036972E+002
3	0	4.229733958973520E+002	1.3640592E+000	-2.7039801E+002
3	0	4.234733958847210E+002	1.3634647E+000	-2.7036618E+002
3	0	4.239733958720899E+002	1.3628898E+000	-2.7036618E+002
3	0	4.244733958594588E+002	1.3623337E+000	-2.7036972E+002
3	0	4.249733958468278E+002	1.3617394E+000	-2.7037326E+002
3	0	4.254733958341967E+002	1.3610773E+000	-2.7038742E+002
3	0	4.259733958215656E+002	1.3604915E+000	-2.7037326E+002
3	0	4.264733958089346E+002	1.3599926E+000	-2.7036267E+002
3	0	4.269733957963035E+002	1.3595225E+000	-2.7039093E+002
3	0	4.274733957836725E+002	1.3590491E+000	-2.7038742E+002
3	0	4.279733957710414E+002	1.3585962E+000	-2.7036972E+002
3	0	4.284733957584103E+002	1.3581387E+000	-2.7037326E+002
3	0	4.289733957457793E+002	1.3576251E+000	-2.7040155E+002
3	0	4.294733957331482E+002	1.3570615E+000	-2.7040155E+002
3	0	4.299733957205171E+002	1.3565406E+000	-2.7040506E+002
3	0	4.304733957078861E+002	1.3561044E+000	-2.7037326E+002
3	0	4.309733956952550E+002	1.3556876E+000	-2.7038031E+002
3	0	4.314733956826240E+002	1.3552730E+000	-2.7036267E+002
3	0	4.319733956699929E+002	1.3548584E+000	-2.7038742E+002
3	0	4.324733956573618E+002	1.3544344E+000	-2.7036618E+002
3	0	4.329733956447308E+002	1.3539529E+000	-2.7039093E+002
3	0	4.334733956320997E+002	1.3534046E+000	-2.7038742E+002
3	0	4.339733956194686E+002	1.3528984E+000	-2.7037326E+002
3	0	4.344733956068376E+002	1.3524760E+000	-2.7036972E+002
3	0	4.349733955942065E+002	1.3520615E+000	-2.7037326E+002
3	0	4.354733955815755E+002	1.3516355E+000	-2.7037326E+002
3	0	4.359733955689444E+002	1.3512176E+000	-2.7036618E+002
3	0	4.364733955563133E+002	1.3507898E+000	-2.7036972E+002
3	0	4.369733955436823E+002	1.3503094E+000	-2.7038031E+002
3	0	4.374733955310512E+002	1.3497510E+000	-2.7034497E+002
3	0	4.379733955184201E+002	1.3492390E+000	-2.7037677E+002
3	0	4.384733955057891E+002	1.3487952E+000	-2.7038385E+002
3	0	4.389733954931580E+002	1.3483669E+000	-2.7038742E+002
3	0	4.394733954805270E+002	1.3479320E+000	-2.7039447E+002
3	0	4.399733954678959E+002	1.3474945E+000	-2.7036267E+002
3	0	4.404733954552648E+002	1.3470510E+000	-2.7037326E+002
3	0	4.409733954426338E+002	1.3465419E+000	-2.7038031E+002
3	0	4.414733954300027E+002	1.3459686E+000	-2.7038385E+002
3	0	4.419733954173716E+002	1.3454467E+000	-2.7039093E+002
3	0	4.424733954047406E+002	1.3449975E+000	-2.7038742E+002
3	0	4.429733953921095E+002	1.3445566E+000	-2.7038031E+002
3	0	4.434733953794785E+002	1.3441192E+000	-2.7037677E+002
3	0	4.439733953668474E+002	1.3436826E+000	-2.7036267E+002
3	0	4.444733953542163E+002	1.3432399E+000	-2.7035205E+002
3	0	4.449733953415853E+002	1.3427494E+000	-2.7039801E+002
3	0	4.454733953289542E+002	1.3421931E+000	-2.7038385E+002
3	0	4.459733953163231E+002	1.3417029E+000	-2.7038031E+002
3	0	4.464733953036921E+002	1.3412889E+000	-2.7039447E+002
3	0	4.469733952910610E+002	1.3408914E+000	-2.7041568E+002
3	0	4.474733952784300E+002	1.3404965E+000	-2.7039447E+002
3	0	4.479733952657989E+002	1.3401140E+000	-2.7037677E+002
3	0	4.484733952531678E+002	1.3397201E+000	-2.7036972E+002
3	0	4.489733952405368E+002	1.3392712E+000	-2.7037677E+002
3	0	4.494733952279057E+002	1.3387564E+000	-2.7036972E+002
3	0	4.499733952152747E+002	1.3382879E+000	-2.7038742E+002
3	0	4.504733952026436E+002	1.3378958E+000	-2.7039447E+002
3	0	4.504737952026335E+002	1.3376679E+000	-2.7036618E+002