EC-Lab ASCII FILE
Nb header lines : 48                          

Open Circuit Voltage

Run on channel : 1 (SN 81504)
User : 
CE vs. WE compliance from -10 V to 10 V
Electrode connection : standard
Potential control : Ewe
Ewe ctrl range : min = -2.50 V, max = 2.50 V
Safety Limits :
	Do not start on E overload
Acquisition started on : 05/10/2026 03:53:31.165
Loaded Setting File :  C:\PEM-WE_measurements\2026\372_IV_IV IrOx, 5 min Pt, 30 min C, etched cathode\new station\Loopeis new\1,46 V different time gaps closed cell\Loopeis 1,46V_90s_2_PEIS from 65kHz to 10kHz.mps
Saved on :
	File : L_17_Loopeis 1,46V_90s_2_PEIS from 65kHz to 10kHz_08_OCV_C01.mpr
	Directory : C:\PEM-WE_measurements\2026\372_IV_IV IrOx, 5 min Pt, 30 min C, etched cathode\new station\Loopeis new\1,46 V different time gaps closed cell\
	Host : 192.168.0.2
Device : SP-150e (SN .005491)
Address : 192.168.0.91
EC-LAB for windows v11.71 (software)
Internet server v28.00 (firmware)
Command interpretor v14.01 (firmware)
Electrode material : 
Initial state : 
Electrolyte : 
Comments : 
Current amplifier : SP-150eB-20A
Electrode surface area : 0.001 cm²
Characteristic mass : 0.001 g
Equivalent Weight : 0.000 g/eq.
Density : 0.000 g/cm3
Volume (V) : 0.001 cm³
Record Analogic IN 1
Text export
   Mode : Standard
   Time format : Elapsed
Cycle Definition : Charge/Discharge alternance
tR (h:m:s)          0:01:30.0000        
dER/dt (mV/h)       1.0                 
record              <Ewe>               
dER (mV)            10.00               
dtR (s)             0.5000              
E range min (V)     -2.500              
E range max (V)     2.500               

mode	error	time/s	<Ewe/V>	Analog IN 1/V	
3	0	4.515771952212526E+002	1.1459510E+000	-1.1064836E-004
3	0	4.520771952086216E+002	1.2614640E+000	-3.4306191E-005
3	0	4.525771951959905E+002	1.2638669E+000	-3.4306191E-005
3	0	4.530771951833594E+002	1.2646136E+000	-7.2477276E-005
3	0	4.535771951707284E+002	1.2645354E+000	-9.1562819E-005
3	0	4.540771951580973E+002	1.2638962E+000	-9.1562819E-005
3	0	4.545771951454662E+002	1.2628274E+000	3.8648941E-006
3	0	4.550771951328352E+002	1.2615043E+000	3.8648941E-006
3	0	4.555771951202041E+002	1.2598993E+000	-7.2477276E-005
3	0	4.560771951075731E+002	1.2579129E+000	-9.1562819E-005
3	0	4.565771950949420E+002	1.2554206E+000	-5.3391734E-005
3	0	4.570771950823109E+002	1.2522081E+000	8.0207064E-005
3	0	4.575771950696799E+002	1.2479653E+000	-1.5220648E-005
3	0	4.580771950570488E+002	1.2422547E+000	3.8648941E-006
3	0	4.585771950444177E+002	1.2347075E+000	-9.1562819E-005
3	0	4.590771950317867E+002	1.2250700E+000	-1.6790499E-004
3	0	4.595771950191556E+002	1.2127625E+000	-2.0607607E-004
3	0	4.600771950065246E+002	1.1970403E+000	-1.8699054E-004
3	0	4.605771949938935E+002	1.1771818E+000	3.8648941E-006
3	0	4.610771949812624E+002	1.1526572E+000	-9.1562819E-005
3	0	4.615771949686314E+002	1.1232831E+000	4.2035979E-005
3	0	4.620771949560003E+002	1.0894619E+000	-7.2477276E-005
3	0	4.625771949433693E+002	1.0525953E+000	-1.6790499E-004
3	0	4.630771949307382E+002	1.0151403E+000	-1.5220648E-005
3	0	4.635771949181071E+002	9.7940159E-001	8.0207064E-005
3	0	4.640771949054761E+002	9.4656986E-001	-1.8699054E-004
3	0	4.645771948928450E+002	9.1720396E-001	-2.2516162E-004
3	0	4.650771948802139E+002	8.9130229E-001	-1.1064836E-004
3	0	4.655771948675829E+002	8.6869919E-001	-9.1562819E-005
3	0	4.660771948549518E+002	8.4892875E-001	-1.5220648E-005
3	0	4.665771948423208E+002	8.3214158E-001	-1.5220648E-005
3	0	4.670771948296897E+002	8.1937319E-001	-1.1064836E-004
3	0	4.675771948170586E+002	8.1089240E-001	-1.5220648E-005
3	0	4.680771948044276E+002	8.0533618E-001	-1.8699054E-004
3	0	4.685771947917965E+002	8.0128306E-001	-5.3391734E-005
3	0	4.690771947791654E+002	7.9776645E-001	-1.5220648E-005
3	0	4.695771947665344E+002	7.9431641E-001	8.0207064E-005
3	0	4.700771947539033E+002	7.9055333E-001	-1.5220648E-005
3	0	4.705771947412723E+002	7.8684777E-001	2.2950437E-005
3	0	4.710771947286412E+002	7.8454489E-001	3.8648941E-006
3	0	4.715771947160101E+002	7.8474998E-001	-1.1064836E-004
3	0	4.720771947033791E+002	7.8713387E-001	-1.5220648E-005
3	0	4.725771946907480E+002	7.9131228E-001	-5.3391734E-005
3	0	4.730771946781169E+002	7.9708683E-001	-5.3391734E-005
3	0	4.735771946654859E+002	8.0433893E-001	-7.2477276E-005
3	0	4.740771946528548E+002	8.1301332E-001	2.2950437E-005
3	0	4.745771946402238E+002	8.2329398E-001	-1.6790499E-004
3	0	4.750771946275927E+002	8.3565462E-001	-7.2477276E-005
3	0	4.755771946149616E+002	8.4994340E-001	-1.5220648E-005
3	0	4.760771946023306E+002	8.6499417E-001	9.9292607E-005
3	0	4.765771945896995E+002	8.7978178E-001	4.2035979E-005
3	0	4.770771945770684E+002	8.9362758E-001	6.1121522E-005
3	0	4.775771945644374E+002	9.0620559E-001	-1.2973390E-004
3	0	4.780771945518063E+002	9.1743374E-001	3.8648941E-006
3	0	4.785771945391753E+002	9.2767727E-001	8.0207064E-005
3	0	4.790771945265442E+002	9.3758452E-001	-5.3391734E-005
3	0	4.795771945139131E+002	9.4719535E-001	3.8648941E-006
3	0	4.800771945012821E+002	9.5604450E-001	3.8648941E-006
3	0	4.805771944886510E+002	9.6376908E-001	4.2035979E-005
3	0	4.810771944760199E+002	9.7026783E-001	-9.1562819E-005
3	0	4.815771944633889E+002	9.7550708E-001	2.2950437E-005
3	0	4.820771944507578E+002	9.7962976E-001	-9.1562819E-005
3	0	4.825771944381268E+002	9.8307008E-001	-1.5220648E-005
3	0	4.830771944254957E+002	9.8635435E-001	-5.3391734E-005
3	0	4.835771944128646E+002	9.8949808E-001	-1.5220648E-005
3	0	4.840771944002336E+002	9.9215978E-001	4.2035979E-005
3	0	4.845771943876025E+002	9.9408507E-001	2.2950437E-005
3	0	4.850771943749714E+002	9.9520886E-001	-1.5220648E-005
3	0	4.855771943623404E+002	9.9553430E-001	4.2035979E-005
3	0	4.860771943497093E+002	9.9517912E-001	-5.3391734E-005
3	0	4.865771943370783E+002	9.9445522E-001	-7.2477276E-005
3	0	4.870771943244472E+002	9.9384272E-001	3.8648941E-006
3	0	4.875771943118161E+002	9.9337131E-001	8.0207064E-005
3	0	4.880771942991851E+002	9.9272525E-001	-1.6790499E-004
3	0	4.885771942865540E+002	9.9164468E-001	-1.2973390E-004
3	0	4.890771942739229E+002	9.8991936E-001	4.2035979E-005
3	0	4.895771942612919E+002	9.8747379E-001	-3.4306191E-005
3	0	4.900771942486608E+002	9.8434967E-001	-7.2477276E-005
3	0	4.905771942360298E+002	9.8094535E-001	-7.2477276E-005
3	0	4.910771942233987E+002	9.7792816E-001	4.2035979E-005
3	0	4.915771942107676E+002	9.7559661E-001	3.8648941E-006
3	0	4.920771941981366E+002	9.7390044E-001	-3.4306191E-005
3	0	4.925771941855055E+002	9.7286087E-001	-1.5220648E-005
3	0	4.930771941728744E+002	9.7254741E-001	-1.2973390E-004
3	0	4.935771941602434E+002	9.7304147E-001	2.2950437E-005
3	0	4.940771941476123E+002	9.7446662E-001	3.8648941E-006
3	0	4.945771941349813E+002	9.7703528E-001	-1.5220648E-005
3	0	4.950771941223502E+002	9.8100764E-001	-9.1562819E-005
3	0	4.955771941097191E+002	9.8605925E-001	2.2950437E-005
3	0	4.960771940970881E+002	9.9149919E-001	3.8648941E-006
3	0	4.965771940844570E+002	9.9678087E-001	-1.1064836E-004
3	0	4.970771940718259E+002	1.0015569E+000	-3.4306191E-005
3	0	4.975771940591949E+002	1.0056847E+000	-5.3391734E-005
3	0	4.980771940465638E+002	1.0090950E+000	-1.5220648E-005
3	0	4.985771940339328E+002	1.0120232E+000	-5.3391734E-005
3	0	4.990771940213017E+002	1.0148160E+000	-1.2973390E-004
3	0	4.995771940086706E+002	1.0174407E+000	3.8648941E-006
3	0	5.000771939960396E+002	1.0196276E+000	-5.3391734E-005
3	0	5.005771939834085E+002	1.0212370E+000	-7.2477276E-005
3	0	5.010771939707774E+002	1.0222105E+000	-2.6333271E-004
3	0	5.015771939581464E+002	1.0227622E+000	-3.4306191E-005
3	0	5.020771939455153E+002	1.0230205E+000	2.2950437E-005
3	0	5.025771939328843E+002	1.0230036E+000	4.2035979E-005
3	0	5.030771939202532E+002	1.0229690E+000	-1.6790499E-004
3	0	5.035771939076221E+002	1.0227697E+000	-7.2477276E-005
3	0	5.040771938949911E+002	1.0222018E+000	3.8648941E-006
3	0	5.045771938823600E+002	1.0212401E+000	-1.5220648E-005
3	0	5.050771938697289E+002	1.0198419E+000	3.8648941E-006
3	0	5.055771938570979E+002	1.0180010E+000	-9.1562819E-005
3	0	5.060771938444668E+002	1.0157106E+000	-9.1562819E-005
3	0	5.065771938318358E+002	1.0131955E+000	4.2035979E-005
3	0	5.070771938192047E+002	1.0108131E+000	-3.4306191E-005
3	0	5.075771938065736E+002	1.0084307E+000	-1.1064836E-004
3	0	5.080771937939426E+002	1.0057098E+000	6.1121522E-005
3	0	5.085771937813115E+002	1.0025330E+000	-1.5220648E-005
3	0	5.090771937686804E+002	9.9880934E-001	3.8648941E-006
3	0	5.095771937560494E+002	9.9448860E-001	-1.8699054E-004
3	0	5.100771937434183E+002	9.8957145E-001	-1.5220648E-005
3	0	5.105771937307873E+002	9.8432523E-001	-1.5220648E-005
3	0	5.110771937181562E+002	9.7929758E-001	-5.3391734E-005
3	0	5.115771937055251E+002	9.7468483E-001	6.1121522E-005
3	0	5.120771936928941E+002	9.7041041E-001	2.2950437E-005
3	0	5.125771936802630E+002	9.6663159E-001	-7.2477276E-005
3	0	5.130771936676319E+002	9.6351850E-001	1.1837815E-004
3	0	5.135771936550009E+002	9.6120882E-001	-9.1562819E-005
3	0	5.140771936423698E+002	9.5987767E-001	-1.4881945E-004
3	0	5.145771936297388E+002	9.5988548E-001	6.1121522E-005
3	0	5.150771936171077E+002	9.6156710E-001	3.8648941E-006
3	0	5.155771936044766E+002	9.6468520E-001	-1.2973390E-004
3	0	5.160771935918456E+002	9.6859252E-001	-1.4881945E-004
3	0	5.165771935792145E+002	9.7284251E-001	-5.3391734E-005
3	0	5.170771935665834E+002	9.7705817E-001	-3.4306191E-005
3	0	5.175771935539524E+002	9.8090065E-001	2.2950437E-005
3	0	5.180771935413213E+002	9.8419094E-001	-3.4306191E-005
3	0	5.185771935286903E+002	9.8711979E-001	-1.1064836E-004
3	0	5.190771935160592E+002	9.9000442E-001	6.1121522E-005
3	0	5.195771935034281E+002	9.9270844E-001	-1.5220648E-005
3	0	5.200771934907971E+002	9.9490637E-001	-9.1562819E-005
3	0	5.205771934781660E+002	9.9650353E-001	-1.1064836E-004
3	0	5.210771934655349E+002	9.9744123E-001	-1.6790499E-004
3	0	5.215771934529039E+002	9.9770296E-001	4.2035979E-005
3	0	5.220771934402728E+002	9.9736130E-001	-1.2973390E-004
3	0	5.225771934276418E+002	9.9667937E-001	-9.1562819E-005
3	0	5.230771934150107E+002	9.9598294E-001	-1.1064836E-004
3	0	5.235771934023796E+002	9.9521184E-001	2.2950437E-005
3	0	5.240771933897486E+002	9.9404848E-001	2.2950437E-005
3	0	5.245771933771175E+002	9.9239153E-001	-1.2973390E-004
3	0	5.250771933644864E+002	9.9011946E-001	2.2950437E-005
3	0	5.255771933518554E+002	9.8715729E-001	-1.5220648E-005
3	0	5.260771933392243E+002	9.8348188E-001	-7.2477276E-005
3	0	5.265771933265933E+002	9.7935295E-001	-1.8699054E-004
3	0	5.270771933139622E+002	9.7516400E-001	2.2950437E-005
3	0	5.275771933013311E+002	9.7087747E-001	3.8648941E-006
3	0	5.280771932887001E+002	9.6614957E-001	-1.2973390E-004
3	0	5.285771932760690E+002	9.6081012E-001	3.8648941E-006
3	0	5.290771932634379E+002	9.5471704E-001	-3.4306191E-005
3	0	5.295771932508069E+002	9.4769496E-001	9.9292607E-005
3	0	5.300771932381758E+002	9.3967319E-001	-3.4306191E-005
3	0	5.305771932255448E+002	9.3091857E-001	-1.5220648E-005
3	0	5.310771932129137E+002	9.2210686E-001	-3.4306191E-005
3	0	5.315771932002826E+002	9.1367602E-001	-9.1562819E-005
3	0	5.320771931876516E+002	9.0561938E-001	-1.4881945E-004
3	0	5.325771931750205E+002	8.9819866E-001	-3.4306191E-005
3	0	5.330771931623894E+002	8.9163804E-001	-9.1562819E-005
3	0	5.335771931497584E+002	8.8620627E-001	-3.4306191E-005
3	0	5.340771931371273E+002	8.8212436E-001	-9.1562819E-005
3	0	5.345771931244963E+002	8.7974918E-001	3.8648941E-006
3	0	5.350771931118652E+002	8.7942809E-001	-5.3391734E-005
3	0	5.355771930992341E+002	8.8106900E-001	-3.4306191E-005
3	0	5.360771930866031E+002	8.8392103E-001	6.1121522E-005
3	0	5.365771930739720E+002	8.8736802E-001	-7.2477276E-005
3	0	5.370771930613410E+002	8.9088356E-001	-7.2477276E-005
3	0	5.375771930487099E+002	8.9409518E-001	-7.2477276E-005
3	0	5.380771930360788E+002	8.9673567E-001	4.2035979E-005
3	0	5.385771930234478E+002	8.9896119E-001	-5.3391734E-005
3	0	5.390771930108167E+002	9.0114594E-001	-7.2477276E-005
3	0	5.395771929981856E+002	9.0332067E-001	4.2035979E-005
3	0	5.400771929855546E+002	9.0509254E-001	-1.2973390E-004
3	0	5.405771929729235E+002	9.0627337E-001	-1.8699054E-004
3	0	5.410771929602925E+002	9.0668237E-001	3.8648941E-006
3	0	5.411117929594184E+002	9.0657163E-001	-1.8699054E-004