EC-Lab ASCII FILE
Nb header lines : 48                          

Open Circuit Voltage

Run on channel : 1 (SN 81504)
User : 
CE vs. WE compliance from -10 V to 10 V
Electrode connection : standard
Potential control : Ewe
Ewe ctrl range : min = -2.50 V, max = 2.50 V
Safety Limits :
	Do not start on E overload
Acquisition started on : 05/07/2026 15:31:18.757
Loaded Setting File :  C:\PEM-WE_measurements\2026\372_IV_IV IrOx, 5 min Pt, 30 min C, etched cathode\new station\Loopeis new\1,46 V different time gaps open cell\Loopeis 1,46V_45s_2_PEIS from 65kHz to 10kHz.mps
Saved on :
	File : L_07_Loopeis 1,46V_45s_2_PEIS from 65kHz to 10kHz_16_OCV_C01.mpr
	Directory : C:\PEM-WE_measurements\2026\372_IV_IV IrOx, 5 min Pt, 30 min C, etched cathode\new station\Loopeis new\1,46 V different time gaps open cell\
	Host : 192.168.0.2
Device : SP-150e (SN .005491)
Address : 192.168.0.91
EC-LAB for windows v11.71 (software)
Internet server v28.00 (firmware)
Command interpretor v14.01 (firmware)
Electrode material : 
Initial state : 
Electrolyte : 
Comments : 
Current amplifier : SP-150eB-20A
Electrode surface area : 0.001 cm²
Characteristic mass : 0.001 g
Equivalent Weight : 0.000 g/eq.
Density : 0.000 g/cm3
Volume (V) : 0.001 cm³
Record Analogic IN 1
Text export
   Mode : Standard
   Time format : Elapsed
Cycle Definition : Charge/Discharge alternance
tR (h:m:s)          0:00:45.0000        
dER/dt (mV/h)       1.0                 
record              <Ewe>               
dER (mV)            10.00               
dtR (s)             0.5000              
E range min (V)     -2.500              
E range max (V)     2.500               

mode	error	time/s	<Ewe/V>	Analog IN 1/V	
3	0	6.770153961062897E+002	1.0650897E+000	-1.4881945E-004
3	0	6.775153960936586E+002	1.2247543E+000	4.2035979E-005
3	0	6.780153960810276E+002	1.1885313E+000	2.2950437E-005
3	0	6.785153960683965E+002	1.1090798E+000	-3.4306191E-005
3	0	6.790153960557655E+002	8.4334350E-001	-1.1064836E-004
3	0	6.795153960431344E+002	4.3034393E-001	-5.3391734E-005
3	0	6.800153960305033E+002	3.2564652E-001	-5.3391734E-005
3	0	6.805153960178723E+002	3.1284761E-001	4.2035979E-005
3	0	6.810153960052412E+002	3.0523205E-001	2.2950437E-005
3	0	6.815153959926101E+002	2.9890329E-001	-9.1562819E-005
3	0	6.820153959799791E+002	2.9401502E-001	-9.1562819E-005
3	0	6.825153959673480E+002	2.9025665E-001	-5.3391734E-005
3	0	6.830153959547170E+002	2.8732258E-001	3.8648941E-006
3	0	6.835153959420859E+002	2.8495863E-001	-1.5220648E-005
3	0	6.840153959294548E+002	2.8300989E-001	-1.2973390E-004
3	0	6.845153959168238E+002	2.8137359E-001	6.1121522E-005
3	0	6.850153959041927E+002	2.7994660E-001	-1.1064836E-004
3	0	6.855153958915616E+002	2.7869180E-001	-5.3391734E-005
3	0	6.860153958789306E+002	2.7759227E-001	-9.1562819E-005
3	0	6.865153958662995E+002	2.7662489E-001	-3.4306191E-005
3	0	6.870153958536685E+002	2.7574119E-001	3.8648941E-006
3	0	6.875153958410374E+002	2.7491659E-001	6.1121522E-005
3	0	6.880153958284063E+002	2.7415860E-001	-9.1562819E-005
3	0	6.885153958157753E+002	2.7341959E-001	-5.3391734E-005
3	0	6.890153958031442E+002	2.7269840E-001	-9.1562819E-005
3	0	6.895153957905131E+002	2.7200210E-001	-3.4306191E-005
3	0	6.900153957778821E+002	2.7134255E-001	-7.2477276E-005
3	0	6.905153957652510E+002	2.7073348E-001	-9.1562819E-005
3	0	6.910153957526200E+002	2.7013469E-001	-1.4881945E-004
3	0	6.915153957399889E+002	2.6955685E-001	3.8648941E-006
3	0	6.920153957273578E+002	2.6898792E-001	-5.3391734E-005
3	0	6.925153957147268E+002	2.6841760E-001	-5.3391734E-005
3	0	6.930153957020957E+002	2.6783863E-001	-1.5220648E-005
3	0	6.935153956894646E+002	2.6725358E-001	4.2035979E-005
3	0	6.940153956768336E+002	2.6670477E-001	-1.1064836E-004
3	0	6.945153956642025E+002	2.6617715E-001	6.1121522E-005
3	0	6.950153956515715E+002	2.6565889E-001	-1.1064836E-004
3	0	6.955153956389404E+002	2.6514566E-001	-7.2477276E-005
3	0	6.960153956263093E+002	2.6464087E-001	2.2950437E-005
3	0	6.965153956136783E+002	2.6412746E-001	-1.1064836E-004
3	0	6.970153956010472E+002	2.6359928E-001	6.1121522E-005
3	0	6.975153955884161E+002	2.6306754E-001	-5.3391734E-005
3	0	6.980153955757851E+002	2.6255694E-001	-5.3391734E-005
3	0	6.985153955631540E+002	2.6207262E-001	1.3746369E-004
3	0	6.990153955505230E+002	2.6158920E-001	-3.4306191E-005
3	0	6.995153955378919E+002	2.6110828E-001	4.2035979E-005
3	0	7.000153955252608E+002	2.6063418E-001	3.8648941E-006
3	0	7.005153955126298E+002	2.6015130E-001	-1.4881945E-004
3	0	7.010153954999987E+002	2.5965899E-001	-1.4881945E-004
3	0	7.015153954873676E+002	2.5914913E-001	-1.5220648E-005
3	0	7.020153954747366E+002	2.5867692E-001	-1.2973390E-004
3	0	7.025153954621055E+002	2.5822392E-001	-1.1064836E-004
3	0	7.030153954494745E+002	2.5777310E-001	-9.1562819E-005
3	0	7.035153954368434E+002	2.5732052E-001	4.2035979E-005
3	0	7.040153954242123E+002	2.5687107E-001	-1.5220648E-005
3	0	7.045153954115813E+002	2.5641704E-001	-3.4306191E-005
3	0	7.050153953989502E+002	2.5595358E-001	-9.1562819E-005
3	0	7.055153953863191E+002	2.5547689E-001	9.9292607E-005
3	0	7.060153953736881E+002	2.5503981E-001	-5.3391734E-005
3	0	7.065153953610570E+002	2.5462446E-001	-7.2477276E-005
3	0	7.070153953484260E+002	2.5420424E-001	-1.5220648E-005
3	0	7.075153953357949E+002	2.5378004E-001	-1.5220648E-005
3	0	7.080153953231638E+002	2.5336072E-001	-3.4306191E-005
3	0	7.085153953105328E+002	2.5294212E-001	-5.3391734E-005
3	0	7.090153952979017E+002	2.5250322E-001	2.2950437E-005
3	0	7.095153952852706E+002	2.5205946E-001	3.8648941E-006
3	0	7.100153952726396E+002	2.5165361E-001	2.2950437E-005
3	0	7.105153952600085E+002	2.5126773E-001	4.2035979E-005
3	0	7.110153952473775E+002	2.5087577E-001	-9.1562819E-005
3	0	7.115153952347464E+002	2.5049314E-001	-7.2477276E-005
3	0	7.120153952221153E+002	2.5010550E-001	4.2035979E-005
3	0	7.125153952094843E+002	2.4972235E-001	-1.4881945E-004
3	0	7.130153951968532E+002	2.4931876E-001	-5.3391734E-005
3	0	7.135153951842221E+002	2.4890414E-001	-1.2973390E-004
3	0	7.140153951715911E+002	2.4852411E-001	3.8648941E-006
3	0	7.145153951589600E+002	2.4816546E-001	-7.2477276E-005
3	0	7.150153951463290E+002	2.4780890E-001	8.0207064E-005
3	0	7.155153951336979E+002	2.4744140E-001	-1.5220648E-005
3	0	7.160153951210668E+002	2.4707855E-001	-1.1064836E-004
3	0	7.165153951084358E+002	2.4672195E-001	4.2035979E-005
3	0	7.170153950958047E+002	2.4634621E-001	-5.3391734E-005
3	0	7.175153950831736E+002	2.4596007E-001	-3.4306191E-005
3	0	7.180153950705426E+002	2.4561073E-001	-2.0607607E-004
3	0	7.185153950579115E+002	2.4528693E-001	-9.1562819E-005
3	0	7.190153950452805E+002	2.4495599E-001	4.2035979E-005
3	0	7.195153950326494E+002	2.4461989E-001	-5.3391734E-005
3	0	7.200153950200183E+002	2.4428689E-001	-5.3391734E-005
3	0	7.205153950073873E+002	2.4395533E-001	-1.6790499E-004
3	0	7.210153949947562E+002	2.4360135E-001	-5.3391734E-005
3	0	7.215153949821251E+002	2.4324408E-001	-5.3391734E-005
3	0	7.215513949812157E+002	2.4306047E-001	-7.2477276E-005