EC-Lab ASCII FILE
Nb header lines : 55                          

Open Circuit Voltage

Run on channel : 1 (SN 81504)
User : 
CE vs. WE compliance from -10 V to 10 V
Electrode connection : standard
Potential control : Ewe
Ewe ctrl range : min = -2.50 V, max = 2.50 V
Safety Limits :
	Do not start on E overload
Acquisition started on : 05/07/2026 16:01:37.735
Loaded Setting File :  C:\PEM-WE_measurements\2026\372_IV_IV IrOx, 5 min Pt, 30 min C, etched cathode\new station\Loopeis new\1,46 V different time gaps open cell\Loopeis 1,46V_45s_4_PEIS from 650Hz to 100Hz.mps
Saved on :
	File : L_09_Loopeis 1,46V_45s_4_PEIS from 650Hz to 100Hz_06_OCV_C01.mpr
	Directory : C:\PEM-WE_measurements\2026\372_IV_IV IrOx, 5 min Pt, 30 min C, etched cathode\new station\Loopeis new\1,46 V different time gaps open cell\
	Host : 192.168.0.2
Device : SP-150e (SN .005491)
Address : 192.168.0.91
EC-LAB for windows v11.71 (software)
Internet server v28.00 (firmware)
Command interpretor v14.01 (firmware)
Electrode material : 
Initial state : 
Electrolyte : 
Comments : 
Current amplifier : SP-150eB-20A
Electrode surface area : 0.001 cm²
Characteristic mass : 0.001 g
Equivalent Weight : 0.000 g/eq.
Density : 0.000 g/cm3
Volume (V) : 0.001 cm³
Record Analogic IN 1
Text export
   Mode : Standard
   Time format : Elapsed
Cycle Definition : Charge/Discharge alternance
External device configuration :
   device type : Temperature Probe
   device name : Other
   Analog IN 1 : 
      unit : T/Â°C
      max : 100.000 at 2.000 V
      min : 0.000 at 1.460 V
tR (h:m:s)          0:00:45.0000        
dER/dt (mV/h)       1.0                 
record              <Ewe>               
dER (mV)            10.00               
dtR (s)             0.5000              
E range min (V)     -2.500              
E range max (V)     2.500               

mode	error	time/s	<Ewe/V>	Analog IN 1/V	
3	0	2.254685975759639E+002	1.2769963E+000	-2.7038385E+002
3	0	2.259685975633329E+002	1.2719132E+000	-2.7038031E+002
3	0	2.264685975507018E+002	1.2362763E+000	-2.7038742E+002
3	0	2.269685975380708E+002	1.1637614E+000	-2.7038742E+002
3	0	2.274685975254397E+002	9.4017327E-001	-2.7035205E+002
3	0	2.279685975128086E+002	4.8551047E-001	-2.7037677E+002
3	0	2.284685975001776E+002	3.5776615E-001	-2.7038031E+002
3	0	2.289685974875465E+002	3.4023565E-001	-2.7037326E+002
3	0	2.294685974749154E+002	3.3126339E-001	-2.7036972E+002
3	0	2.299685974622844E+002	3.2414985E-001	-2.7037677E+002
3	0	2.304685974496533E+002	3.1874397E-001	-2.7038385E+002
3	0	2.309685974370223E+002	3.1461105E-001	-2.7036267E+002
3	0	2.314685974243912E+002	3.1141496E-001	-2.7038742E+002
3	0	2.319685974117601E+002	3.0885249E-001	-2.7036972E+002
3	0	2.324685973991291E+002	3.0674019E-001	-2.7038742E+002
3	0	2.329685973864980E+002	3.0495480E-001	-2.7038742E+002
3	0	2.334685973738669E+002	3.0343211E-001	-2.7037326E+002
3	0	2.339685973612359E+002	3.0209047E-001	-2.7038385E+002
3	0	2.344685973486048E+002	3.0086714E-001	-2.7036972E+002
3	0	2.349685973359738E+002	2.9974428E-001	-2.7036972E+002
3	0	2.354685973233427E+002	2.9874539E-001	-2.7037677E+002
3	0	2.359685973107116E+002	2.9784051E-001	-2.7038031E+002
3	0	2.364685972980806E+002	2.9697874E-001	-2.7037677E+002
3	0	2.369685972854495E+002	2.9617187E-001	-2.7039447E+002
3	0	2.374685972728184E+002	2.9540989E-001	-2.7035205E+002
3	0	2.379685972601874E+002	2.9467469E-001	-2.7038031E+002
3	0	2.384685972475563E+002	2.9394141E-001	-2.7039447E+002
3	0	2.389685972349253E+002	2.9322749E-001	-2.7036267E+002
3	0	2.394685972222942E+002	2.9255733E-001	-2.7039447E+002
3	0	2.399685972096631E+002	2.9191431E-001	-2.7037677E+002
3	0	2.404685971970321E+002	2.9127648E-001	-2.7036267E+002
3	0	2.409685971844010E+002	2.9066339E-001	-2.7039801E+002
3	0	2.414685971717699E+002	2.9006025E-001	-2.7036267E+002
3	0	2.419685971591389E+002	2.8946632E-001	-2.7037326E+002
3	0	2.424685971465078E+002	2.8886053E-001	-2.7035559E+002
3	0	2.429685971338768E+002	2.8825527E-001	-2.7035913E+002
3	0	2.434685971212457E+002	2.8767672E-001	-2.7038031E+002
3	0	2.439685971086146E+002	2.8712022E-001	-2.7036972E+002
3	0	2.444685970959836E+002	2.8656676E-001	-2.7038385E+002
3	0	2.449685970833525E+002	2.8602377E-001	-2.7037326E+002
3	0	2.454685970707214E+002	2.8548715E-001	-2.7034851E+002
3	0	2.459685970580904E+002	2.8494668E-001	-2.7039447E+002
3	0	2.464685970454593E+002	2.8439543E-001	-2.7035913E+002
3	0	2.469685970328283E+002	2.8383619E-001	-2.7037677E+002
3	0	2.474685970201972E+002	2.8330529E-001	-2.7036972E+002
3	0	2.479685970075661E+002	2.8279582E-001	-2.7038742E+002
3	0	2.484685969949351E+002	2.8228727E-001	-2.7038031E+002
3	0	2.489685969823040E+002	2.8178737E-001	-2.7036618E+002
3	0	2.494685969696729E+002	2.8128427E-001	-2.7036972E+002
3	0	2.499685969570419E+002	2.8078148E-001	-2.7038385E+002
3	0	2.504685969444108E+002	2.8026593E-001	-2.7039447E+002
3	0	2.509685969317798E+002	2.7974242E-001	-2.7037677E+002
3	0	2.514685969191487E+002	2.7925768E-001	-2.7039447E+002
3	0	2.519685969065176E+002	2.7878863E-001	-2.7039447E+002
3	0	2.524685968938866E+002	2.7831256E-001	-2.7037326E+002
3	0	2.529685968812555E+002	2.7784976E-001	-2.7038385E+002
3	0	2.534685968686244E+002	2.7738714E-001	-2.7037677E+002
3	0	2.539685968559934E+002	2.7692237E-001	-2.7037677E+002
3	0	2.544685968433623E+002	2.7644271E-001	-2.7037326E+002
3	0	2.549685968307313E+002	2.7595761E-001	-2.7038742E+002
3	0	2.554685968181002E+002	2.7550626E-001	-2.7039447E+002
3	0	2.559685968054691E+002	2.7506784E-001	-2.7037677E+002
3	0	2.564685967928381E+002	2.7463371E-001	-2.7036267E+002
3	0	2.569685967802070E+002	2.7420294E-001	-2.7038385E+002
3	0	2.574685967675759E+002	2.7377698E-001	-2.7036972E+002
3	0	2.579685967549449E+002	2.7334729E-001	-2.7035205E+002
3	0	2.584685967423138E+002	2.7290156E-001	-2.7039093E+002
3	0	2.589685967296828E+002	2.7245235E-001	-2.7038742E+002
3	0	2.594685967170517E+002	2.7204266E-001	-2.7036972E+002
3	0	2.599685967044206E+002	2.7163604E-001	-2.7038742E+002
3	0	2.604685966917896E+002	2.7122816E-001	-2.7036267E+002
3	0	2.609685966791585E+002	2.7082774E-001	-2.7038031E+002
3	0	2.614685966665274E+002	2.7043524E-001	-2.7039093E+002
3	0	2.619685966538964E+002	2.7003798E-001	-2.7037677E+002
3	0	2.624685966412653E+002	2.6962414E-001	-2.7038031E+002
3	0	2.629685966286343E+002	2.6920658E-001	-2.7036267E+002
3	0	2.634685966160032E+002	2.6881766E-001	-2.7037677E+002
3	0	2.639685966033721E+002	2.6845014E-001	-2.7037677E+002
3	0	2.644685965907411E+002	2.6807734E-001	-2.7036972E+002
3	0	2.649685965781100E+002	2.6770726E-001	-2.7035205E+002
3	0	2.654685965654789E+002	2.6734534E-001	-2.7040506E+002
3	0	2.659685965528479E+002	2.6697856E-001	-2.7038031E+002
3	0	2.664685965402168E+002	2.6659682E-001	-2.7036972E+002
3	0	2.669685965275858E+002	2.6620653E-001	-2.7039093E+002
3	0	2.674685965149547E+002	2.6585582E-001	-2.7038385E+002
3	0	2.679685965023236E+002	2.6551417E-001	-2.7037326E+002
3	0	2.684685964896926E+002	2.6517087E-001	-2.7037677E+002
3	0	2.689685964770615E+002	2.6483250E-001	-2.7038385E+002
3	0	2.694685964644304E+002	2.6450190E-001	-2.7038031E+002
3	0	2.699685964517994E+002	2.6416159E-001	-2.7036972E+002
3	0	2.699689964517893E+002	2.6400438E-001	-2.7040506E+002