EC-Lab ASCII FILE
Nb header lines : 48                          

Open Circuit Voltage

Run on channel : 1 (SN 81504)
User : 
CE vs. WE compliance from -10 V to 10 V
Electrode connection : standard
Potential control : Ewe
Ewe ctrl range : min = -2.50 V, max = 2.50 V
Safety Limits :
	Do not start on E overload
Acquisition started on : 05/10/2026 05:54:37.151
Loaded Setting File :  C:\PEM-WE_measurements\2026\372_IV_IV IrOx, 5 min Pt, 30 min C, etched cathode\new station\Loopeis new\1,46 V different time gaps closed cell\Loopeis 1,46V_120s_2_PEIS from 65kHz to 10kHz.mps
Saved on :
	File : L_22_Loopeis 1,46V_120s_2_PEIS from 65kHz to 10kHz_04_OCV_C01.mpr
	Directory : C:\PEM-WE_measurements\2026\372_IV_IV IrOx, 5 min Pt, 30 min C, etched cathode\new station\Loopeis new\1,46 V different time gaps closed cell\
	Host : 192.168.0.2
Device : SP-150e (SN .005491)
Address : 192.168.0.91
EC-LAB for windows v11.71 (software)
Internet server v28.00 (firmware)
Command interpretor v14.01 (firmware)
Electrode material : 
Initial state : 
Electrolyte : 
Comments : 
Current amplifier : SP-150eB-20A
Electrode surface area : 0.001 cm²
Characteristic mass : 0.001 g
Equivalent Weight : 0.000 g/eq.
Density : 0.000 g/cm3
Volume (V) : 0.001 cm³
Record Analogic IN 1
Text export
   Mode : Standard
   Time format : Elapsed
Cycle Definition : Charge/Discharge alternance
tR (h:m:s)          0:02:0.0000         
dER/dt (mV/h)       1.0                 
record              <Ewe>               
dER (mV)            10.00               
dtR (s)             0.5000              
E range min (V)     -2.500              
E range max (V)     2.500               

mode	error	time/s	<Ewe/V>	Analog IN 1/V	
3	0	2.110333979842835E+002	1.1219381E+000	-1.4881945E-004
3	0	2.115333979716524E+002	1.2605137E+000	-1.5220648E-005
3	0	2.120333979590214E+002	1.2584426E+000	-9.1562819E-005
3	0	2.125333979463903E+002	1.2511399E+000	3.8648941E-006
3	0	2.130333979337593E+002	1.2371575E+000	-7.2477276E-005
3	0	2.135333979211282E+002	1.2136757E+000	-3.4306191E-005
3	0	2.140333979084971E+002	1.1757101E+000	-3.4306191E-005
3	0	2.145333978958661E+002	1.1107775E+000	-2.0607607E-004
3	0	2.150333978832350E+002	9.5514554E-001	-5.3391734E-005
3	0	2.155333978706039E+002	6.2145942E-001	-5.3391734E-005
3	0	2.160333978579729E+002	4.6749356E-001	3.8648941E-006
3	0	2.165333978453418E+002	4.1432634E-001	2.2950437E-005
3	0	2.170333978327108E+002	3.9920893E-001	-1.2973390E-004
3	0	2.175333978200797E+002	3.9427418E-001	-5.3391734E-005
3	0	2.180333978074486E+002	3.9132312E-001	2.2950437E-005
3	0	2.185333977948176E+002	3.8889858E-001	2.2950437E-005
3	0	2.190333977821865E+002	3.8680694E-001	4.2035979E-005
3	0	2.195333977695554E+002	3.8492489E-001	3.8648941E-006
3	0	2.200333977569244E+002	3.8298139E-001	-5.3391734E-005
3	0	2.205333977442933E+002	3.8150883E-001	2.2950437E-005
3	0	2.210333977316623E+002	3.8105667E-001	-1.1064836E-004
3	0	2.215333977190312E+002	3.8064831E-001	-1.4881945E-004
3	0	2.220333977064001E+002	3.8009456E-001	2.2950437E-005
3	0	2.225333976937691E+002	3.7954006E-001	-5.3391734E-005
3	0	2.230333976811380E+002	3.7904266E-001	-5.3391734E-005
3	0	2.235333976685070E+002	3.7855276E-001	-3.4306191E-005
3	0	2.240333976558759E+002	3.7786812E-001	-3.4306191E-005
3	0	2.245333976432448E+002	3.7733340E-001	-5.3391734E-005
3	0	2.250333976306138E+002	3.7758398E-001	-5.3391734E-005
3	0	2.255333976179827E+002	3.7781686E-001	-5.3391734E-005
3	0	2.260333976053516E+002	3.7783557E-001	-1.2973390E-004
3	0	2.265333975927206E+002	3.7775031E-001	-5.3391734E-005
3	0	2.270333975800895E+002	3.7772775E-001	-9.1562819E-005
3	0	2.275333975674585E+002	3.7748751E-001	3.8648941E-006
3	0	2.280333975548274E+002	3.7705249E-001	-1.6790499E-004
3	0	2.285333975421963E+002	3.7675709E-001	-7.2477276E-005
3	0	2.290333975295653E+002	3.7712079E-001	-3.4306191E-005
3	0	2.295333975169342E+002	3.7758496E-001	3.8648941E-006
3	0	2.300333975043031E+002	3.7793732E-001	-7.2477276E-005
3	0	2.305333974916721E+002	3.7826717E-001	-1.6790499E-004
3	0	2.310333974790410E+002	3.7874860E-001	-7.2477276E-005
3	0	2.315333974664100E+002	3.7919205E-001	4.2035979E-005
3	0	2.320333974537789E+002	3.7956434E-001	-5.3391734E-005
3	0	2.325333974411478E+002	3.8007805E-001	3.8648941E-006
3	0	2.330333974285168E+002	3.8127446E-001	-1.6790499E-004
3	0	2.335333974158857E+002	3.8240504E-001	4.2035979E-005
3	0	2.340333974032546E+002	3.8330022E-001	-9.1562819E-005
3	0	2.345333973906236E+002	3.8406575E-001	-1.5220648E-005
3	0	2.350333973779925E+002	3.8474721E-001	9.9292607E-005
3	0	2.355333973653615E+002	3.8526455E-001	-7.2477276E-005
3	0	2.360333973527304E+002	3.8548899E-001	-7.2477276E-005
3	0	2.365333973400993E+002	3.8564730E-001	-7.2477276E-005
3	0	2.370333973274683E+002	3.8643691E-001	-7.2477276E-005
3	0	2.375333973148372E+002	3.8716340E-001	2.2950437E-005
3	0	2.380333973022061E+002	3.8760021E-001	-1.2973390E-004
3	0	2.385333972895751E+002	3.8790691E-001	-1.5220648E-005
3	0	2.390333972769440E+002	3.8810995E-001	-5.3391734E-005
3	0	2.395333972643130E+002	3.8816276E-001	-1.8699054E-004
3	0	2.400333972516819E+002	3.8794953E-001	-3.4306191E-005
3	0	2.405333972390508E+002	3.8771582E-001	-5.3391734E-005
3	0	2.410333972264198E+002	3.8810474E-001	6.1121522E-005
3	0	2.415333972137887E+002	3.8849470E-001	-1.1064836E-004
3	0	2.420333972011576E+002	3.8865376E-001	2.2950437E-005
3	0	2.425333971885266E+002	3.8859805E-001	6.1121522E-005
3	0	2.430333971758955E+002	3.8848576E-001	-1.1064836E-004
3	0	2.435333971632645E+002	3.8826212E-001	3.8648941E-006
3	0	2.440333971506334E+002	3.8772401E-001	-1.5220648E-005
3	0	2.445333971380023E+002	3.8721693E-001	-3.4306191E-005
3	0	2.450333971253713E+002	3.8729820E-001	-1.6790499E-004
3	0	2.455333971127402E+002	3.8737646E-001	8.0207064E-005
3	0	2.460333971001091E+002	3.8725111E-001	4.2035979E-005
3	0	2.465333970874781E+002	3.8696682E-001	-3.4306191E-005
3	0	2.470333970748470E+002	3.8663146E-001	2.2950437E-005
3	0	2.475333970622160E+002	3.8625729E-001	-1.4881945E-004
3	0	2.480333970495849E+002	3.8552579E-001	6.1121522E-005
3	0	2.485333970369538E+002	3.8480821E-001	3.8648941E-006
3	0	2.490333970243228E+002	3.8475692E-001	3.8648941E-006
3	0	2.495333970116917E+002	3.8478494E-001	-1.5220648E-005
3	0	2.500333969990606E+002	3.8473007E-001	-1.2973390E-004
3	0	2.505333969864296E+002	3.8466299E-001	-1.2973390E-004
3	0	2.510333969737985E+002	3.8467923E-001	-1.1064836E-004
3	0	2.515333969611675E+002	3.8470411E-001	-7.2477276E-005
3	0	2.520333969485364E+002	3.8463220E-001	4.2035979E-005
3	0	2.525333969359053E+002	3.8469642E-001	3.8648941E-006
3	0	2.530333969232743E+002	3.8532516E-001	-3.4306191E-005
3	0	2.535333969106432E+002	3.8600078E-001	2.2950437E-005
3	0	2.540333968980121E+002	3.8647169E-001	-2.0607607E-004
3	0	2.545333968853811E+002	3.8678482E-001	-1.1064836E-004
3	0	2.550333968727500E+002	3.8697442E-001	-9.1562819E-005
3	0	2.555333968601190E+002	3.8701010E-001	-5.3391734E-005
3	0	2.560333968474879E+002	3.8673449E-001	-3.4306191E-005
3	0	2.565333968348568E+002	3.8644624E-001	-1.5220648E-005
3	0	2.570333968222258E+002	3.8667759E-001	-3.4306191E-005
3	0	2.575333968095947E+002	3.8686901E-001	3.8648941E-006
3	0	2.580333967969636E+002	3.8688681E-001	-1.6790499E-004
3	0	2.585333967843326E+002	3.8671932E-001	8.0207064E-005
3	0	2.590333967717015E+002	3.8651294E-001	-1.5220648E-005
3	0	2.595333967590705E+002	3.8617337E-001	-3.4306191E-005
3	0	2.600333967464394E+002	3.8556132E-001	-1.6790499E-004
3	0	2.605333967338083E+002	3.8495570E-001	-3.4306191E-005
3	0	2.610333967211773E+002	3.8492751E-001	3.8648941E-006
3	0	2.615333967085462E+002	3.8487113E-001	-7.2477276E-005
3	0	2.620333966959151E+002	3.8458365E-001	-3.4306191E-005
3	0	2.625333966832841E+002	3.8415483E-001	-5.3391734E-005
3	0	2.630333966706530E+002	3.8372275E-001	3.8648941E-006
3	0	2.635333966580220E+002	3.8319871E-001	-3.4306191E-005
3	0	2.640333966453909E+002	3.8243285E-001	-1.2973390E-004
3	0	2.645333966327598E+002	3.8170376E-001	3.8648941E-006
3	0	2.650333966201288E+002	3.8150695E-001	-1.1064836E-004
3	0	2.655333966074977E+002	3.8132909E-001	-1.4881945E-004
3	0	2.660333965948666E+002	3.8095886E-001	2.2950437E-005
3	0	2.665333965822356E+002	3.8048306E-001	9.9292607E-005
3	0	2.670333965696045E+002	3.7997380E-001	-9.1562819E-005
3	0	2.675333965569735E+002	3.7934810E-001	2.2950437E-005
3	0	2.680333965443424E+002	3.7850708E-001	-5.3391734E-005
3	0	2.685333965317113E+002	3.7774801E-001	-3.4306191E-005
3	0	2.690333965190803E+002	3.7749267E-001	-9.1562819E-005
3	0	2.695333965064492E+002	3.7729746E-001	-3.4306191E-005
3	0	2.700333964938181E+002	3.7698790E-001	-1.4881945E-004
3	0	2.705333964811871E+002	3.7671155E-001	-5.3391734E-005
3	0	2.710333964685560E+002	3.7653148E-001	-1.1064836E-004
3	0	2.715333964559250E+002	3.7642324E-001	-1.1064836E-004
3	0	2.720333964432939E+002	3.7617818E-001	3.8648941E-006
3	0	2.725333964306628E+002	3.7605074E-001	-1.5220648E-005
3	0	2.730333964180318E+002	3.7644172E-001	2.2950437E-005
3	0	2.735333964054007E+002	3.7682202E-001	-7.2477276E-005
3	0	2.740333963927696E+002	3.7705171E-001	-5.3391734E-005
3	0	2.745333963801386E+002	3.7713531E-001	-1.5220648E-005
3	0	2.750333963675075E+002	3.7716740E-001	-1.5220648E-005
3	0	2.755333963548765E+002	3.7708187E-001	-7.2477276E-005
3	0	2.760333963422454E+002	3.7676916E-001	-9.1562819E-005
3	0	2.765333963296143E+002	3.7643683E-001	-1.1064836E-004
3	0	2.770333963169833E+002	3.7650833E-001	1.3746369E-004
3	0	2.775333963043522E+002	3.7657657E-001	-5.3391734E-005
3	0	2.780333962917211E+002	3.7648180E-001	-3.4306191E-005
3	0	2.785333962790901E+002	3.7623799E-001	-1.4881945E-004
3	0	2.790333962664590E+002	3.7596422E-001	6.1121522E-005
3	0	2.795333962538280E+002	3.7556547E-001	-1.5220648E-005
3	0	2.800333962411969E+002	3.7494290E-001	4.2035979E-005
3	0	2.805333962285658E+002	3.7434006E-001	-1.2973390E-004
3	0	2.810333962159348E+002	3.7420639E-001	-5.3391734E-005
3	0	2.815333962033037E+002	3.7410066E-001	-1.5220648E-005
3	0	2.820333961906726E+002	3.7384266E-001	4.2035979E-005
3	0	2.825333961780416E+002	3.7349638E-001	-5.3391734E-005
3	0	2.830333961654105E+002	3.7312114E-001	-3.4306191E-005
3	0	2.835333961527795E+002	3.7266019E-001	-1.2973390E-004
3	0	2.840333961401484E+002	3.7202129E-001	1.5654923E-004
3	0	2.845333961275173E+002	3.7140700E-001	-7.2477276E-005
3	0	2.850333961148863E+002	3.7122694E-001	-3.4306191E-005
3	0	2.855333961022552E+002	3.7106931E-001	2.2950437E-005
3	0	2.860333960896241E+002	3.7078065E-001	-5.3391734E-005
3	0	2.865333960769931E+002	3.7041229E-001	6.1121522E-005
3	0	2.870333960643620E+002	3.7000915E-001	3.8648941E-006
3	0	2.875333960517310E+002	3.6949852E-001	-1.4881945E-004
3	0	2.880333960390999E+002	3.6888584E-001	-9.1562819E-005
3	0	2.885333960264688E+002	3.6826283E-001	8.0207064E-005
3	0	2.890333960138378E+002	3.6804155E-001	-1.6790499E-004
3	0	2.895333960012067E+002	3.6789522E-001	-7.2477276E-005
3	0	2.900333959885756E+002	3.6768535E-001	-1.5220648E-005
3	0	2.905333959759446E+002	3.6751971E-001	-1.5220648E-005
3	0	2.910333959633135E+002	3.6746013E-001	6.1121522E-005
3	0	2.915333959506825E+002	3.6732769E-001	-5.3391734E-005
3	0	2.920333959380514E+002	3.6709782E-001	2.2950437E-005
3	0	2.925333959254203E+002	3.6695570E-001	-7.2477276E-005
3	0	2.930333959127893E+002	3.6728546E-001	-1.1064836E-004
3	0	2.935333959001582E+002	3.6766562E-001	-3.4306191E-005
3	0	2.940333958875271E+002	3.6792350E-001	6.1121522E-005
3	0	2.945333958748961E+002	3.6806926E-001	3.8648941E-006
3	0	2.950333958622650E+002	3.6815265E-001	2.2950437E-005
3	0	2.955333958496340E+002	3.6814857E-001	-5.3391734E-005
3	0	2.960333958370029E+002	3.6790693E-001	9.9292607E-005
3	0	2.965333958243718E+002	3.6768502E-001	2.2950437E-005
3	0	2.970333958117408E+002	3.6781767E-001	-5.3391734E-005
3	0	2.975333957991097E+002	3.6791709E-001	6.1121522E-005
3	0	2.980333957864787E+002	3.6787733E-001	-9.1562819E-005
3	0	2.985333957738476E+002	3.6772928E-001	2.2950437E-005
3	0	2.990333957612165E+002	3.6755836E-001	4.2035979E-005
3	0	2.995333957485855E+002	3.6719298E-001	-5.3391734E-005
3	0	3.000333957359544E+002	3.6672616E-001	-1.4881945E-004
3	0	3.005333957233233E+002	3.6628631E-001	-1.6790499E-004
3	0	3.010333957106923E+002	3.6623895E-001	-9.1562819E-005
3	0	3.015333956980612E+002	3.6614662E-001	-1.1064836E-004
3	0	3.020333956854302E+002	3.6594048E-001	6.1121522E-005
3	0	3.025333956727991E+002	3.6563957E-001	3.8648941E-006
3	0	3.030333956601680E+002	3.6536333E-001	-1.5220648E-005
3	0	3.035333956475370E+002	3.6496851E-001	-7.2477276E-005
3	0	3.040333956349059E+002	3.6445904E-001	-7.2477276E-005
3	0	3.045333956222748E+002	3.6392686E-001	3.8648941E-006
3	0	3.050333956096438E+002	3.6377135E-001	-1.5220648E-005
3	0	3.055333955970127E+002	3.6357695E-001	4.2035979E-005
3	0	3.060333955843817E+002	3.6330914E-001	3.8648941E-006
3	0	3.065333955717506E+002	3.6295086E-001	-1.8699054E-004
3	0	3.070333955591195E+002	3.6260727E-001	-3.4306191E-005
3	0	3.075333955464885E+002	3.6218864E-001	-7.2477276E-005
3	0	3.080333955338574E+002	3.6161473E-001	3.8648941E-006
3	0	3.085333955212263E+002	3.6105800E-001	-1.5220648E-005
3	0	3.090333955085953E+002	3.6087665E-001	-1.5220648E-005
3	0	3.095333954959642E+002	3.6072919E-001	8.0207064E-005
3	0	3.100333954833332E+002	3.6054096E-001	3.8648941E-006
3	0	3.105333954707021E+002	3.6028785E-001	2.2950437E-005
3	0	3.110333954580710E+002	3.6009735E-001	4.2035979E-005
3	0	3.115333954454400E+002	3.5995045E-001	-1.2973390E-004
3	0	3.120333954328089E+002	3.5977194E-001	3.8648941E-006
3	0	3.125333954201778E+002	3.5967144E-001	-1.5220648E-005
3	0	3.130333954075468E+002	3.5996607E-001	6.1121522E-005
3	0	3.135333953949157E+002	3.6027846E-001	-1.2973390E-004
3	0	3.140333953822847E+002	3.6047882E-001	-1.4881945E-004
3	0	3.145333953696536E+002	3.6056122E-001	-3.4306191E-005
3	0	3.150333953570225E+002	3.6061555E-001	-1.8699054E-004
3	0	3.155333953443915E+002	3.6054721E-001	6.1121522E-005
3	0	3.160333953317604E+002	3.6033368E-001	2.2950437E-005
3	0	3.165333953191293E+002	3.6010739E-001	-5.3391734E-005
3	0	3.170333953064983E+002	3.6017299E-001	-1.4881945E-004
3	0	3.175333952938672E+002	3.6018443E-001	-1.4881945E-004
3	0	3.180333952812362E+002	3.6008477E-001	-3.4306191E-005
3	0	3.185333952686051E+002	3.5986409E-001	-1.5220648E-005
3	0	3.190333952559740E+002	3.5966080E-001	-7.2477276E-005
3	0	3.195333952433430E+002	3.5937533E-001	-2.4424717E-004
3	0	3.200333952307119E+002	3.5899282E-001	3.8648941E-006
3	0	3.205333952180808E+002	3.5857651E-001	3.8648941E-006
3	0	3.210333952054498E+002	3.5848036E-001	6.1121522E-005
3	0	3.215333951928187E+002	3.5836759E-001	-1.4881945E-004
3	0	3.220333951801877E+002	3.5815221E-001	-7.2477276E-005
3	0	3.225333951675566E+002	3.5786736E-001	-3.4306191E-005
3	0	3.230333951549255E+002	3.5755748E-001	4.2035979E-005
3	0	3.235333951422945E+002	3.5715744E-001	-7.2477276E-005
3	0	3.240333951296634E+002	3.5667005E-001	4.2035979E-005
3	0	3.245333951170323E+002	3.5617474E-001	-1.5220648E-005
3	0	3.250333951044013E+002	3.5599938E-001	-1.8699054E-004
3	0	3.255333950917702E+002	3.5583863E-001	-1.1064836E-004
3	0	3.260333950791392E+002	3.5559818E-001	-1.5220648E-005
3	0	3.265333950665081E+002	3.5529974E-001	-7.2477276E-005
3	0	3.270333950538770E+002	3.5500452E-001	-1.6790499E-004
3	0	3.275333950412460E+002	3.5462865E-001	-1.4881945E-004
3	0	3.280333950286149E+002	3.5414684E-001	-9.1562819E-005
3	0	3.285333950159838E+002	3.5365412E-001	-1.2973390E-004
3	0	3.290333950033528E+002	3.5347077E-001	3.8648941E-006
3	0	3.295333949907217E+002	3.5331881E-001	-1.6790499E-004
3	0	3.300333949780907E+002	3.5311452E-001	-1.5220648E-005
3	0	3.305333949654596E+002	3.5285479E-001	1.1837815E-004
3	0	3.305679949645855E+002	3.5277647E-001	6.1121522E-005