EC-Lab ASCII FILE
Nb header lines : 55                          

Open Circuit Voltage

Run on channel : 1 (SN 81504)
User : 
CE vs. WE compliance from -10 V to 10 V
Electrode connection : standard
Potential control : Ewe
Ewe ctrl range : min = -2.50 V, max = 2.50 V
Safety Limits :
	Do not start on E overload
Acquisition started on : 05/07/2026 15:46:26.830
Loaded Setting File :  C:\PEM-WE_measurements\2026\372_IV_IV IrOx, 5 min Pt, 30 min C, etched cathode\new station\Loopeis new\1,46 V different time gaps open cell\Loopeis 1,46V_45s_3_PEIS from 6500Hz to 1000Hz.mps
Saved on :
	File : L_08_Loopeis 1,46V_45s_3_PEIS from 6500Hz to 1000Hz_20_OCV_C01.mpr
	Directory : C:\PEM-WE_measurements\2026\372_IV_IV IrOx, 5 min Pt, 30 min C, etched cathode\new station\Loopeis new\1,46 V different time gaps open cell\
	Host : 192.168.0.2
Device : SP-150e (SN .005491)
Address : 192.168.0.91
EC-LAB for windows v11.71 (software)
Internet server v28.00 (firmware)
Command interpretor v14.01 (firmware)
Electrode material : 
Initial state : 
Electrolyte : 
Comments : 
Current amplifier : SP-150eB-20A
Electrode surface area : 0.001 cm²
Characteristic mass : 0.001 g
Equivalent Weight : 0.000 g/eq.
Density : 0.000 g/cm3
Volume (V) : 0.001 cm³
Record Analogic IN 1
Text export
   Mode : Standard
   Time format : Elapsed
Cycle Definition : Charge/Discharge alternance
External device configuration :
   device type : Temperature Probe
   device name : Other
   Analog IN 1 : 
      unit : T/Â°C
      max : 100.000 at 2.000 V
      min : 0.000 at 1.460 V
tR (h:m:s)          0:00:45.0000        
dER/dt (mV/h)       1.0                 
record              <Ewe>               
dER (mV)            10.00               
dtR (s)             0.5000              
E range min (V)     -2.500              
E range max (V)     2.500               

mode	error	time/s	<Ewe/V>	Analog IN 1/V	
3	0	8.622435950806539E+002	1.0688725E+000	-2.7039447E+002
3	0	8.627435950680228E+002	1.2258309E+000	-2.7039093E+002
3	0	8.632435950553918E+002	1.1907421E+000	-2.7036267E+002
3	0	8.637435950427607E+002	1.1129320E+000	-2.7037677E+002
3	0	8.642435950301297E+002	8.4403688E-001	-2.7036972E+002
3	0	8.647435950174986E+002	4.2964280E-001	-2.7037677E+002
3	0	8.652435950048675E+002	3.2990888E-001	-2.7038742E+002
3	0	8.657435949922365E+002	3.1718263E-001	-2.7037326E+002
3	0	8.662435949796054E+002	3.0930638E-001	-2.7038385E+002
3	0	8.667435949669743E+002	3.0290046E-001	-2.7036972E+002
3	0	8.672435949543433E+002	2.9796445E-001	-2.7037677E+002
3	0	8.677435949417122E+002	2.9417682E-001	-2.7038742E+002
3	0	8.682435949290812E+002	2.9120609E-001	-2.7038742E+002
3	0	8.687435949164501E+002	2.8880033E-001	-2.7038742E+002
3	0	8.692435949038190E+002	2.8680936E-001	-2.7037326E+002
3	0	8.697435948911880E+002	2.8513891E-001	-2.7039093E+002
3	0	8.702435948785569E+002	2.8372863E-001	-2.7040155E+002
3	0	8.707435948659258E+002	2.8249818E-001	-2.7039801E+002
3	0	8.712435948532948E+002	2.8139183E-001	-2.7036972E+002
3	0	8.717435948406637E+002	2.8039983E-001	-2.7038031E+002
3	0	8.722435948280327E+002	2.7949715E-001	-2.7037326E+002
3	0	8.727435948154016E+002	2.7863881E-001	-2.7039447E+002
3	0	8.732435948027705E+002	2.7781430E-001	-2.7039093E+002
3	0	8.737435947901395E+002	2.7704290E-001	-2.7038031E+002
3	0	8.742435947775084E+002	2.7634376E-001	-2.7038742E+002
3	0	8.747435947648773E+002	2.7567726E-001	-2.7036972E+002
3	0	8.752435947522463E+002	2.7503124E-001	-2.7037326E+002
3	0	8.757435947396152E+002	2.7441290E-001	-2.7035205E+002
3	0	8.762435947269842E+002	2.7380487E-001	-2.7036972E+002
3	0	8.767435947143531E+002	2.7318838E-001	-2.7038385E+002
3	0	8.772435947017220E+002	2.7256626E-001	-2.7038385E+002
3	0	8.777435946890910E+002	2.7197796E-001	-2.7037677E+002
3	0	8.782435946764599E+002	2.7141997E-001	-2.7038031E+002
3	0	8.787435946638288E+002	2.7087426E-001	-2.7037677E+002
3	0	8.792435946511978E+002	2.7033433E-001	-2.7038742E+002
3	0	8.797435946385667E+002	2.6979491E-001	-2.7036972E+002
3	0	8.802435946259357E+002	2.6927286E-001	-2.7037326E+002
3	0	8.807435946133046E+002	2.6873368E-001	-2.7035205E+002
3	0	8.812435946006735E+002	2.6818296E-001	-2.7038742E+002
3	0	8.817435945880425E+002	2.6765105E-001	-2.7038742E+002
3	0	8.822435945754114E+002	2.6714769E-001	-2.7035205E+002
3	0	8.827435945627803E+002	2.6664993E-001	-2.7036267E+002
3	0	8.832435945501493E+002	2.6615334E-001	-2.7040506E+002
3	0	8.837435945375182E+002	2.6566777E-001	-2.7040155E+002
3	0	8.842435945248872E+002	2.6517218E-001	-2.7038385E+002
3	0	8.847435945122561E+002	2.6468047E-001	-2.7035913E+002
3	0	8.852435944996250E+002	2.6416031E-001	-2.7035559E+002
3	0	8.857435944869940E+002	2.6366645E-001	-2.7036972E+002
3	0	8.862435944743629E+002	2.6320294E-001	-2.7037677E+002
3	0	8.867435944617318E+002	2.6273951E-001	-2.7038385E+002
3	0	8.872435944491008E+002	2.6227692E-001	-2.7037326E+002
3	0	8.877435944364697E+002	2.6182008E-001	-2.7035913E+002
3	0	8.882435944238387E+002	2.6135564E-001	-2.7036267E+002
3	0	8.887435944112076E+002	2.6088983E-001	-2.7039447E+002
3	0	8.892435943985765E+002	2.6040238E-001	-2.7039093E+002
3	0	8.897435943859455E+002	2.5993490E-001	-2.7038031E+002
3	0	8.902435943733144E+002	2.5950956E-001	-2.7035913E+002
3	0	8.907435943606833E+002	2.5908083E-001	-2.7036267E+002
3	0	8.912435943480523E+002	2.5864676E-001	-2.7040506E+002
3	0	8.917435943354212E+002	2.5821784E-001	-2.7037326E+002
3	0	8.922435943227902E+002	2.5778875E-001	-2.7039447E+002
3	0	8.927435943101591E+002	2.5734377E-001	-2.7036972E+002
3	0	8.932435942975280E+002	2.5688428E-001	-2.7038385E+002
3	0	8.937435942848970E+002	2.5645092E-001	-2.7038742E+002
3	0	8.942435942722659E+002	2.5604722E-001	-2.7036972E+002
3	0	8.947435942596348E+002	2.5564694E-001	-2.7038031E+002
3	0	8.952435942470038E+002	2.5524697E-001	-2.7037326E+002
3	0	8.957435942343727E+002	2.5484943E-001	-2.7039093E+002
3	0	8.962435942217417E+002	2.5444713E-001	-2.7037326E+002
3	0	8.967435942091106E+002	2.5403610E-001	-2.7038742E+002
3	0	8.972435941964795E+002	2.5360778E-001	-2.7035913E+002
3	0	8.977435941838485E+002	2.5319937E-001	-2.7036267E+002
3	0	8.982435941712174E+002	2.5282580E-001	-2.7038742E+002
3	0	8.987435941585863E+002	2.5245520E-001	-2.7038385E+002
3	0	8.992435941459553E+002	2.5207961E-001	-2.7036618E+002
3	0	8.997435941333242E+002	2.5170580E-001	-2.7036618E+002
3	0	9.002435941206932E+002	2.5132921E-001	-2.7038385E+002
3	0	9.007435941080621E+002	2.5094810E-001	-2.7038031E+002
3	0	9.012435940954310E+002	2.5055039E-001	-2.7034143E+002
3	0	9.017435940828000E+002	2.5016913E-001	-2.7035913E+002
3	0	9.022435940701689E+002	2.4983408E-001	-2.7040506E+002
3	0	9.027435940575378E+002	2.4949236E-001	-2.7036972E+002
3	0	9.032435940449068E+002	2.4914916E-001	-2.7038742E+002
3	0	9.037435940322757E+002	2.4880636E-001	-2.7038742E+002
3	0	9.042435940196447E+002	2.4846408E-001	-2.7036972E+002
3	0	9.047435940070136E+002	2.4811091E-001	-2.7039801E+002
3	0	9.052435939943825E+002	2.4774469E-001	-2.7036972E+002
3	0	9.057435939817515E+002	2.4739853E-001	-2.7038031E+002
3	0	9.062435939691204E+002	2.4708334E-001	-2.7036972E+002
3	0	9.067435939564893E+002	2.4676937E-001	-2.7038742E+002
3	0	9.067681939558679E+002	2.4660562E-001	-2.7039801E+002