EC-Lab ASCII FILE
Nb header lines : 55                          

Open Circuit Voltage

Run on channel : 1 (SN 81504)
User : 
CE vs. WE compliance from -10 V to 10 V
Electrode connection : standard
Potential control : Ewe
Ewe ctrl range : min = -2.50 V, max = 2.50 V
Safety Limits :
	Do not start on E overload
Acquisition started on : 05/09/2026 23:59:42.806
Loaded Setting File :  C:\PEM-WE_measurements\2026\372_IV_IV IrOx, 5 min Pt, 30 min C, etched cathode\new station\Loopeis new\1,46 V different time gaps closed cell\Loopeis 1,46V_30s_4_PEIS from 650Hz to 100Hz.mps
Saved on :
	File : L_04_Loopeis 1,46V_30s_4_PEIS from 650Hz to 100Hz_08_OCV_C01.mpr
	Directory : C:\PEM-WE_measurements\2026\372_IV_IV IrOx, 5 min Pt, 30 min C, etched cathode\new station\Loopeis new\1,46 V different time gaps closed cell\
	Host : 192.168.0.2
Device : SP-150e (SN .005491)
Address : 192.168.0.91
EC-LAB for windows v11.71 (software)
Internet server v28.00 (firmware)
Command interpretor v14.01 (firmware)
Electrode material : 
Initial state : 
Electrolyte : 
Comments : 
Current amplifier : SP-150eB-20A
Electrode surface area : 0.001 cm²
Characteristic mass : 0.001 g
Equivalent Weight : 0.000 g/eq.
Density : 0.000 g/cm3
Volume (V) : 0.001 cm³
Record Analogic IN 1
Text export
   Mode : Standard
   Time format : Elapsed
Cycle Definition : Charge/Discharge alternance
External device configuration :
   device type : Temperature Probe
   device name : Other
   Analog IN 1 : 
      unit : T/Â°C
      max : 100.000 at 2.000 V
      min : 0.000 at 1.460 V
tR (h:m:s)          0:00:30.0000        
dER/dt (mV/h)       1.0                 
record              <Ewe>               
dER (mV)            10.00               
dtR (s)             0.5000              
E range min (V)     -2.500              
E range max (V)     2.500               

mode	error	time/s	<Ewe/V>	Analog IN 1/V	
3	0	2.712363997514331E+002	1.2155005E+000	-2.7038031E+002
3	0	2.717363997388020E+002	1.2507744E+000	-2.7037326E+002
3	0	2.722363997261709E+002	1.2552651E+000	-2.7037326E+002
3	0	2.727363997135399E+002	1.2580386E+000	-2.7040155E+002
3	0	2.732363997009088E+002	1.2600653E+000	-2.7039093E+002
3	0	2.737363996882777E+002	1.2616309E+000	-2.7038385E+002
3	0	2.742363996756467E+002	1.2628747E+000	-2.7035913E+002
3	0	2.747363996630156E+002	1.2638953E+000	-2.7039093E+002
3	0	2.752363996503846E+002	1.2647332E+000	-2.7038385E+002
3	0	2.757363996377535E+002	1.2654134E+000	-2.7039801E+002
3	0	2.762363996251224E+002	1.2659252E+000	-2.7036267E+002
3	0	2.767363996124914E+002	1.2663540E+000	-2.7037677E+002
3	0	2.772363995998603E+002	1.2667909E+000	-2.7039801E+002
3	0	2.777363995872292E+002	1.2671808E+000	-2.7038031E+002
3	0	2.782363995745982E+002	1.2674998E+000	-2.7035913E+002
3	0	2.787363995619671E+002	1.2677772E+000	-2.7037326E+002
3	0	2.792363995493361E+002	1.2680138E+000	-2.7036972E+002
3	0	2.797363995367050E+002	1.2681872E+000	-2.7038742E+002
3	0	2.802363995240739E+002	1.2682583E+000	-2.7038385E+002
3	0	2.807363995114429E+002	1.2682997E+000	-2.7039093E+002
3	0	2.812363994988118E+002	1.2683935E+000	-2.7036618E+002
3	0	2.817363994861807E+002	1.2684772E+000	-2.7036618E+002
3	0	2.822363994735497E+002	1.2685390E+000	-2.7039801E+002
3	0	2.827363994609186E+002	1.2685796E+000	-2.7038742E+002
3	0	2.832363994482876E+002	1.2685909E+000	-2.7040155E+002
3	0	2.837363994356565E+002	1.2685505E+000	-2.7036618E+002
3	0	2.842363994230254E+002	1.2684305E+000	-2.7038031E+002
3	0	2.847363994103944E+002	1.2682871E+000	-2.7036618E+002
3	0	2.852363993977633E+002	1.2682155E+000	-2.7035913E+002
3	0	2.857363993851322E+002	1.2681327E+000	-2.7036618E+002
3	0	2.862363993725012E+002	1.2680235E+000	-2.7035913E+002
3	0	2.867363993598701E+002	1.2679009E+000	-2.7039447E+002
3	0	2.872363993472391E+002	1.2677704E+000	-2.7035559E+002
3	0	2.877363993346080E+002	1.2675900E+000	-2.7035913E+002
3	0	2.882363993219769E+002	1.2673303E+000	-2.7038031E+002
3	0	2.887363993093459E+002	1.2670428E+000	-2.7039093E+002
3	0	2.892363992967148E+002	1.2668365E+000	-2.7038031E+002
3	0	2.897363992840837E+002	1.2666380E+000	-2.7036972E+002
3	0	2.902363992714527E+002	1.2664189E+000	-2.7039093E+002
3	0	2.907363992588216E+002	1.2662022E+000	-2.7037677E+002
3	0	2.912363992461906E+002	1.2659734E+000	-2.7037326E+002
3	0	2.917363992335595E+002	1.2657040E+000	-2.7038742E+002
3	0	2.922363992209284E+002	1.2653617E+000	-2.7037326E+002
3	0	2.927363992082974E+002	1.2650000E+000	-2.7039447E+002
3	0	2.932363991956663E+002	1.2647194E+000	-2.7038385E+002
3	0	2.937363991830352E+002	1.2644535E+000	-2.7034851E+002
3	0	2.942363991704042E+002	1.2641737E+000	-2.7037326E+002
3	0	2.947363991577731E+002	1.2638906E+000	-2.7038031E+002
3	0	2.952363991451421E+002	1.2636040E+000	-2.7038031E+002
3	0	2.957363991325110E+002	1.2632751E+000	-2.7039801E+002
3	0	2.962363991198799E+002	1.2628642E+000	-2.7036972E+002
3	0	2.967363991072489E+002	1.2624464E+000	-2.7040860E+002
3	0	2.972363990946178E+002	1.2621056E+000	-2.7036972E+002
3	0	2.977363990819867E+002	1.2617736E+000	-2.7039093E+002
3	0	2.982363990693557E+002	1.2614324E+000	-2.7038031E+002
3	0	2.987363990567246E+002	1.2610997E+000	-2.7037326E+002
3	0	2.992363990440936E+002	1.2607510E+000	-2.7035913E+002
3	0	2.997363990314625E+002	1.2603716E+000	-2.7035913E+002
3	0	3.002363990188314E+002	1.2599174E+000	-2.7038031E+002
3	0	3.007363990062004E+002	1.2594483E+000	-2.7036618E+002
3	0	3.007597990056092E+002	1.2592638E+000	-2.7040155E+002