EC-Lab ASCII FILE
Nb header lines : 55                          

Open Circuit Voltage

Run on channel : 1 (SN 81504)
User : 
CE vs. WE compliance from -10 V to 10 V
Electrode connection : standard
Potential control : Ewe
Ewe ctrl range : min = -2.50 V, max = 2.50 V
Safety Limits :
	Do not start on E overload
Acquisition started on : 05/09/2026 23:46:58.612
Loaded Setting File :  C:\PEM-WE_measurements\2026\372_IV_IV IrOx, 5 min Pt, 30 min C, etched cathode\new station\Loopeis new\1,46 V different time gaps closed cell\Loopeis 1,46V_30s_3_PEIS from 6500Hz to 1000Hz.mps
Saved on :
	File : L_03_Loopeis 1,46V_30s_3_PEIS from 6500Hz to 1000Hz_08_OCV_C01.mpr
	Directory : C:\PEM-WE_measurements\2026\372_IV_IV IrOx, 5 min Pt, 30 min C, etched cathode\new station\Loopeis new\1,46 V different time gaps closed cell\
	Host : 192.168.0.2
Device : SP-150e (SN .005491)
Address : 192.168.0.91
EC-LAB for windows v11.71 (software)
Internet server v28.00 (firmware)
Command interpretor v14.01 (firmware)
Electrode material : 
Initial state : 
Electrolyte : 
Comments : 
Current amplifier : SP-150eB-20A
Electrode surface area : 0.001 cm²
Characteristic mass : 0.001 g
Equivalent Weight : 0.000 g/eq.
Density : 0.000 g/cm3
Volume (V) : 0.001 cm³
Record Analogic IN 1
Text export
   Mode : Standard
   Time format : Elapsed
Cycle Definition : Charge/Discharge alternance
External device configuration :
   device type : Temperature Probe
   device name : Other
   Analog IN 1 : 
      unit : T/Â°C
      max : 100.000 at 2.000 V
      min : 0.000 at 1.460 V
tR (h:m:s)          0:00:30.0000        
dER/dt (mV/h)       1.0                 
record              <Ewe>               
dER (mV)            10.00               
dtR (s)             0.5000              
E range min (V)     -2.500              
E range max (V)     2.500               

mode	error	time/s	<Ewe/V>	Analog IN 1/V	
3	0	2.712063997500081E+002	1.2193123E+000	-2.7038385E+002
3	0	2.717063997373771E+002	1.2482331E+000	-2.7036618E+002
3	0	2.722063997247460E+002	1.2528820E+000	-2.7038385E+002
3	0	2.727063997121149E+002	1.2557375E+000	-2.7040860E+002
3	0	2.732063996994839E+002	1.2577907E+000	-2.7038742E+002
3	0	2.737063996868528E+002	1.2594062E+000	-2.7040155E+002
3	0	2.742063996742218E+002	1.2606916E+000	-2.7039801E+002
3	0	2.747063996615907E+002	1.2617420E+000	-2.7037677E+002
3	0	2.752063996489596E+002	1.2626165E+000	-2.7036267E+002
3	0	2.757063996363286E+002	1.2633632E+000	-2.7038385E+002
3	0	2.762063996236975E+002	1.2639552E+000	-2.7040506E+002
3	0	2.767063996110664E+002	1.2644094E+000	-2.7040155E+002
3	0	2.772063995984354E+002	1.2648052E+000	-2.7035559E+002
3	0	2.777063995858043E+002	1.2652010E+000	-2.7037677E+002
3	0	2.782063995731733E+002	1.2655277E+000	-2.7037326E+002
3	0	2.787063995605422E+002	1.2658004E+000	-2.7036972E+002
3	0	2.792063995479111E+002	1.2660351E+000	-2.7040155E+002
3	0	2.797063995352801E+002	1.2662367E+000	-2.7039093E+002
3	0	2.802063995226490E+002	1.2663550E+000	-2.7037677E+002
3	0	2.807063995100179E+002	1.2663939E+000	-2.7036618E+002
3	0	2.812063994973869E+002	1.2664193E+000	-2.7038385E+002
3	0	2.817063994847558E+002	1.2664874E+000	-2.7038031E+002
3	0	2.822063994721248E+002	1.2665093E+000	-2.7038031E+002
3	0	2.827063994594937E+002	1.2665114E+000	-2.7039801E+002
3	0	2.832063994468626E+002	1.2664993E+000	-2.7037677E+002
3	0	2.837063994342316E+002	1.2664744E+000	-2.7038031E+002
3	0	2.842063994216005E+002	1.2663883E+000	-2.7036618E+002
3	0	2.847063994089694E+002	1.2662200E+000	-2.7038385E+002
3	0	2.852063993963384E+002	1.2660525E+000	-2.7035913E+002
3	0	2.857063993837073E+002	1.2659267E+000	-2.7038031E+002
3	0	2.862063993710763E+002	1.2657722E+000	-2.7040155E+002
3	0	2.867063993584452E+002	1.2655966E+000	-2.7036618E+002
3	0	2.872063993458141E+002	1.2654123E+000	-2.7037326E+002
3	0	2.877063993331831E+002	1.2652086E+000	-2.7037677E+002
3	0	2.882063993205520E+002	1.2649544E+000	-2.7038031E+002
3	0	2.887063993079209E+002	1.2646379E+000	-2.7036972E+002
3	0	2.892063992952899E+002	1.2643210E+000	-2.7038742E+002
3	0	2.897063992826588E+002	1.2640660E+000	-2.7034851E+002
3	0	2.902063992700278E+002	1.2637767E+000	-2.7039447E+002
3	0	2.907063992573967E+002	1.2634928E+000	-2.7036267E+002
3	0	2.912063992447656E+002	1.2632028E+000	-2.7036618E+002
3	0	2.917063992321346E+002	1.2629116E+000	-2.7037677E+002
3	0	2.922063992195035E+002	1.2625670E+000	-2.7038031E+002
3	0	2.927063992068724E+002	1.2621493E+000	-2.7039447E+002
3	0	2.932063991942414E+002	1.2617493E+000	-2.7035559E+002
3	0	2.937063991816103E+002	1.2614115E+000	-2.7038742E+002
3	0	2.942063991689793E+002	1.2610477E+000	-2.7036972E+002
3	0	2.947063991563482E+002	1.2606795E+000	-2.7038031E+002
3	0	2.952063991437171E+002	1.2603168E+000	-2.7037326E+002
3	0	2.957063991310861E+002	1.2599424E+000	-2.7040860E+002
3	0	2.962063991184550E+002	1.2595315E+000	-2.7038385E+002
3	0	2.967063991058239E+002	1.2590485E+000	-2.7035559E+002
3	0	2.972063990931929E+002	1.2585796E+000	-2.7039093E+002
3	0	2.977063990805618E+002	1.2581699E+000	-2.7037677E+002
3	0	2.982063990679308E+002	1.2577450E+000	-2.7037677E+002
3	0	2.987063990552997E+002	1.2573173E+000	-2.7036972E+002
3	0	2.992063990426686E+002	1.2568871E+000	-2.7038742E+002
3	0	2.997063990300376E+002	1.2564521E+000	-2.7039447E+002
3	0	3.002063990174065E+002	1.2559847E+000	-2.7038742E+002
3	0	3.007063990047754E+002	1.2554476E+000	-2.7035913E+002
3	0	3.007297990041843E+002	1.2551535E+000	-2.7040506E+002