EC-Lab ASCII FILE
Nb header lines : 48                          

Open Circuit Voltage

Run on channel : 1 (SN 81504)
User : 
CE vs. WE compliance from -10 V to 10 V
Electrode connection : standard
Potential control : Ewe
Ewe ctrl range : min = -2.50 V, max = 2.50 V
Safety Limits :
	Do not start on E overload
Acquisition started on : 05/10/2026 00:41:40.044
Loaded Setting File :  C:\PEM-WE_measurements\2026\372_IV_IV IrOx, 5 min Pt, 30 min C, etched cathode\new station\Loopeis new\1,46 V different time gaps closed cell\Loopeis 1,46V_45s_2_PEIS from 65kHz to 10kHz.mps
Saved on :
	File : L_07_Loopeis 1,46V_45s_2_PEIS from 65kHz to 10kHz_08_OCV_C01.mpr
	Directory : C:\PEM-WE_measurements\2026\372_IV_IV IrOx, 5 min Pt, 30 min C, etched cathode\new station\Loopeis new\1,46 V different time gaps closed cell\
	Host : 192.168.0.2
Device : SP-150e (SN .005491)
Address : 192.168.0.91
EC-LAB for windows v11.71 (software)
Internet server v28.00 (firmware)
Command interpretor v14.01 (firmware)
Electrode material : 
Initial state : 
Electrolyte : 
Comments : 
Current amplifier : SP-150eB-20A
Electrode surface area : 0.001 cm²
Characteristic mass : 0.001 g
Equivalent Weight : 0.000 g/eq.
Density : 0.000 g/cm3
Volume (V) : 0.001 cm³
Record Analogic IN 1
Text export
   Mode : Standard
   Time format : Elapsed
Cycle Definition : Charge/Discharge alternance
tR (h:m:s)          0:00:45.0000        
dER/dt (mV/h)       1.0                 
record              <Ewe>               
dER (mV)            10.00               
dtR (s)             0.5000              
E range min (V)     -2.500              
E range max (V)     2.500               

mode	error	time/s	<Ewe/V>	Analog IN 1/V	
3	0	3.168161986429914E+002	1.2132215E+000	-1.5220648E-005
3	0	3.173161986303603E+002	1.2525265E+000	-5.3391734E-005
3	0	3.178161986177292E+002	1.2570676E+000	-9.1562819E-005
3	0	3.183161986050982E+002	1.2598433E+000	-9.1562819E-005
3	0	3.188161985924671E+002	1.2617435E+000	-5.3391734E-005
3	0	3.193161985798361E+002	1.2631142E+000	3.8648941E-006
3	0	3.198161985672050E+002	1.2642145E+000	-1.6790499E-004
3	0	3.203161985545739E+002	1.2651038E+000	-9.1562819E-005
3	0	3.208161985419429E+002	1.2658219E+000	-1.5220648E-005
3	0	3.213161985293118E+002	1.2664020E+000	-7.2477276E-005
3	0	3.218161985166807E+002	1.2668672E+000	-7.2477276E-005
3	0	3.223161985040497E+002	1.2672403E+000	-1.5220648E-005
3	0	3.228161984914186E+002	1.2674770E+000	9.9292607E-005
3	0	3.233161984787876E+002	1.2676194E+000	-1.1064836E-004
3	0	3.238161984661565E+002	1.2677631E+000	-5.3391734E-005
3	0	3.243161984535254E+002	1.2678998E+000	3.8648941E-006
3	0	3.248161984408944E+002	1.2680001E+000	-5.3391734E-005
3	0	3.253161984282633E+002	1.2680622E+000	-1.1064836E-004
3	0	3.258161984156322E+002	1.2680943E+000	-1.1064836E-004
3	0	3.263161984030012E+002	1.2680871E+000	3.8648941E-006
3	0	3.268161983903701E+002	1.2680057E+000	4.2035979E-005
3	0	3.273161983777391E+002	1.2678609E+000	2.2950437E-005
3	0	3.278161983651080E+002	1.2677577E+000	-9.1562819E-005
3	0	3.283161983524769E+002	1.2676833E+000	-3.4306191E-005
3	0	3.288161983398459E+002	1.2676183E+000	1.3746369E-004
3	0	3.293161983272148E+002	1.2675400E+000	-1.2973390E-004
3	0	3.298161983145837E+002	1.2674588E+000	-1.1064836E-004
3	0	3.303161983019527E+002	1.2673607E+000	-1.2973390E-004
3	0	3.308161982893216E+002	1.2671962E+000	-1.8699054E-004
3	0	3.313161982766906E+002	1.2669809E+000	3.8648941E-006
3	0	3.318161982640595E+002	1.2668315E+000	-1.2973390E-004
3	0	3.323161982514284E+002	1.2667189E+000	3.8648941E-006
3	0	3.328161982387974E+002	1.2666068E+000	-9.1562819E-005
3	0	3.333161982261663E+002	1.2664909E+000	-9.1562819E-005
3	0	3.338161982135352E+002	1.2663778E+000	-7.2477276E-005
3	0	3.343161982009042E+002	1.2662344E+000	-1.2973390E-004
3	0	3.348161981882731E+002	1.2660371E+000	-1.4881945E-004
3	0	3.353161981756421E+002	1.2657682E+000	-1.2973390E-004
3	0	3.358161981630110E+002	1.2655648E+000	-1.8699054E-004
3	0	3.363161981503799E+002	1.2653913E+000	-1.2973390E-004
3	0	3.368161981377489E+002	1.2652208E+000	8.0207064E-005
3	0	3.373161981251178E+002	1.2650409E+000	-1.1064836E-004
3	0	3.378161981124867E+002	1.2648679E+000	-5.3391734E-005
3	0	3.383161980998557E+002	1.2646617E+000	-1.1064836E-004
3	0	3.388161980872246E+002	1.2644039E+000	-1.2973390E-004
3	0	3.393161980745936E+002	1.2640778E+000	-3.4306191E-005
3	0	3.398161980619625E+002	1.2638093E+000	-1.5220648E-005
3	0	3.403161980493314E+002	1.2635787E+000	-2.2516162E-004
3	0	3.408161980367004E+002	1.2633443E+000	-7.2477276E-005
3	0	3.413161980240693E+002	1.2630993E+000	-2.2516162E-004
3	0	3.418161980114382E+002	1.2628577E+000	2.2950437E-005
3	0	3.423161979988072E+002	1.2625914E+000	-9.1562819E-005
3	0	3.428161979861761E+002	1.2622705E+000	3.8648941E-006
3	0	3.433161979735451E+002	1.2618856E+000	-1.2973390E-004
3	0	3.438161979609140E+002	1.2615547E+000	-3.4306191E-005
3	0	3.443161979482829E+002	1.2612702E+000	3.8648941E-006
3	0	3.448161979356519E+002	1.2609774E+000	-9.1562819E-005
3	0	3.453161979230208E+002	1.2606772E+000	9.9292607E-005
3	0	3.458161979103897E+002	1.2603736E+000	4.2035979E-005
3	0	3.463161978977587E+002	1.2600565E+000	2.2950437E-005
3	0	3.468161978851276E+002	1.2596858E+000	-1.4881945E-004
3	0	3.473161978724966E+002	1.2592448E+000	-1.1064836E-004
3	0	3.478161978598655E+002	1.2588836E+000	3.8648941E-006
3	0	3.483161978472344E+002	1.2585629E+000	3.8648941E-006
3	0	3.488161978346034E+002	1.2582536E+000	-7.2477276E-005
3	0	3.493161978219723E+002	1.2579519E+000	-9.1562819E-005
3	0	3.498161978093412E+002	1.2576599E+000	-3.4306191E-005
3	0	3.503161977967102E+002	1.2573510E+000	-2.4424717E-004
3	0	3.508161977840791E+002	1.2569929E+000	-5.3391734E-005
3	0	3.513161977714481E+002	1.2565858E+000	-9.1562819E-005
3	0	3.518161977588170E+002	1.2562412E+000	2.2950437E-005
3	0	3.523161977461859E+002	1.2559384E+000	1.1837815E-004
3	0	3.528161977335549E+002	1.2556372E+000	-5.3391734E-005
3	0	3.533161977209238E+002	1.2553375E+000	-7.2477276E-005
3	0	3.538161977082927E+002	1.2550374E+000	-7.2477276E-005
3	0	3.543161976956617E+002	1.2547183E+000	-3.4306191E-005
3	0	3.548161976830306E+002	1.2543343E+000	-1.2973390E-004
3	0	3.553161976703996E+002	1.2539022E+000	-9.1562819E-005
3	0	3.558161976577685E+002	1.2535175E+000	-1.5220648E-005
3	0	3.563161976451374E+002	1.2531859E+000	-1.1064836E-004
3	0	3.568161976325064E+002	1.2528485E+000	-7.2477276E-005
3	0	3.573161976198753E+002	1.2525147E+000	4.2035979E-005
3	0	3.578161976072442E+002	1.2521724E+000	-9.1562819E-005
3	0	3.583161975946132E+002	1.2518049E+000	-1.2973390E-004
3	0	3.588161975819821E+002	1.2513777E+000	-2.2516162E-004
3	0	3.593161975693511E+002	1.2508938E+000	-9.1562819E-005
3	0	3.598161975567200E+002	1.2504638E+000	-7.2477276E-005
3	0	3.603161975440889E+002	1.2500730E+000	-5.3391734E-005
3	0	3.608161975314579E+002	1.2496803E+000	4.2035979E-005
3	0	3.613161975188268E+002	1.2492881E+000	4.2035979E-005
3	0	3.613507975179527E+002	1.2490720E+000	4.2035979E-005