EC-Lab ASCII FILE
Nb header lines : 48                          

Open Circuit Voltage

Run on channel : 1 (SN 81504)
User : 
CE vs. WE compliance from -10 V to 10 V
Electrode connection : standard
Potential control : Ewe
Ewe ctrl range : min = -2.50 V, max = 2.50 V
Safety Limits :
	Do not start on E overload
Acquisition started on : 05/07/2026 14:16:32.051
Loaded Setting File :  C:\PEM-WE_measurements\2026\372_IV_IV IrOx, 5 min Pt, 30 min C, etched cathode\new station\Loopeis new\1,46 V different time gaps open cell\Loopeis 1,46V_30s_2_PEIS from 65kHz to 10kHz.mps
Saved on :
	File : L_02_Loopeis 1,46V_30s_2_PEIS from 65kHz to 10kHz_04_OCV_C01.mpr
	Directory : C:\PEM-WE_measurements\2026\372_IV_IV IrOx, 5 min Pt, 30 min C, etched cathode\new station\Loopeis new\1,46 V different time gaps open cell\
	Host : 192.168.0.2
Device : SP-150e (SN .005491)
Address : 192.168.0.91
EC-LAB for windows v11.71 (software)
Internet server v28.00 (firmware)
Command interpretor v14.01 (firmware)
Electrode material : 
Initial state : 
Electrolyte : 
Comments : 
Current amplifier : SP-150eB-20A
Electrode surface area : 0.001 cm²
Characteristic mass : 0.001 g
Equivalent Weight : 0.000 g/eq.
Density : 0.000 g/cm3
Volume (V) : 0.001 cm³
Record Analogic IN 1
Text export
   Mode : Standard
   Time format : Elapsed
Cycle Definition : Charge/Discharge alternance
tR (h:m:s)          0:00:30.0000        
dER/dt (mV/h)       1.0                 
record              <Ewe>               
dER (mV)            10.00               
dtR (s)             0.5000              
E range min (V)     -2.500              
E range max (V)     2.500               

mode	error	time/s	<Ewe/V>	Analog IN 1/V	
3	0	1.208534002493252E+002	9.9876601E-001	-2.2516162E-004
3	0	1.213534002366941E+002	1.1916196E+000	-9.1562819E-005
3	0	1.218534002240631E+002	1.0356939E+000	3.8648941E-006
3	0	1.223534002114320E+002	5.5834579E-001	-1.1064836E-004
3	0	1.228534001988010E+002	3.4548557E-001	-1.4881945E-004
3	0	1.233534001861699E+002	3.1848738E-001	-7.2477276E-005
3	0	1.238534001735388E+002	3.1113043E-001	-7.2477276E-005
3	0	1.243534001609078E+002	3.0517522E-001	-7.2477276E-005
3	0	1.248534001482767E+002	3.0046982E-001	8.0207064E-005
3	0	1.253534001356456E+002	2.9690877E-001	-1.5220648E-005
3	0	1.258534001230146E+002	2.9420194E-001	-1.6790499E-004
3	0	1.263534001103835E+002	2.9206544E-001	2.2950437E-005
3	0	1.268534000977525E+002	2.9032972E-001	4.2035979E-005
3	0	1.273534000851214E+002	2.8889507E-001	-3.4306191E-005
3	0	1.278534000724903E+002	2.8766951E-001	4.2035979E-005
3	0	1.283534000598593E+002	2.8658581E-001	-1.5220648E-005
3	0	1.288534000472282E+002	2.8559572E-001	6.1121522E-005
3	0	1.293534000345971E+002	2.8469908E-001	-7.2477276E-005
3	0	1.298534000219661E+002	2.8391480E-001	6.1121522E-005
3	0	1.303534000093350E+002	2.8318274E-001	-5.3391734E-005
3	0	1.308533999967040E+002	2.8250292E-001	-3.4306191E-005
3	0	1.313533999840729E+002	2.8186667E-001	-1.5220648E-005
3	0	1.318533999714418E+002	2.8124338E-001	9.9292607E-005
3	0	1.323533999588108E+002	2.8064117E-001	-3.4306191E-005
3	0	1.328533999461797E+002	2.8001982E-001	-5.3391734E-005
3	0	1.333533999335486E+002	2.7941445E-001	-1.1064836E-004
3	0	1.338533999209176E+002	2.7886066E-001	-1.5220648E-005
3	0	1.343533999082865E+002	2.7831489E-001	-5.3391734E-005
3	0	1.348533998956555E+002	2.7778167E-001	2.2950437E-005
3	0	1.353533998830244E+002	2.7726290E-001	-1.1064836E-004
3	0	1.358533998703933E+002	2.7674451E-001	-5.3391734E-005
3	0	1.363533998577623E+002	2.7620929E-001	2.2950437E-005
3	0	1.368533998451312E+002	2.7566028E-001	-9.1562819E-005
3	0	1.373533998325001E+002	2.7510229E-001	-3.4306191E-005
3	0	1.378533998198691E+002	2.7459753E-001	-5.3391734E-005
3	0	1.383533998072380E+002	2.7409837E-001	1.5654923E-004
3	0	1.388533997946070E+002	2.7361038E-001	3.8648941E-006
3	0	1.393533997819759E+002	2.7312592E-001	3.8648941E-006
3	0	1.398533997693448E+002	2.7264217E-001	3.8648941E-006
3	0	1.403533997567138E+002	2.7216598E-001	-1.2973390E-004
3	0	1.408533997440827E+002	2.7166241E-001	3.8648941E-006
3	0	1.413533997314516E+002	2.7114251E-001	-1.2973390E-004
3	0	1.418533997188206E+002	2.7067193E-001	-5.3391734E-005
3	0	1.423533997061895E+002	2.7019724E-001	1.1837815E-004
3	0	1.428533996935585E+002	2.6974577E-001	-5.3391734E-005
3	0	1.433533996809274E+002	2.6929468E-001	-9.1562819E-005
3	0	1.438533996682963E+002	2.6883993E-001	-3.4306191E-005
3	0	1.443533996556653E+002	2.6837343E-001	-3.4306191E-005
3	0	1.448533996430342E+002	2.6789144E-001	-1.5220648E-005
3	0	1.453533996304031E+002	2.6739815E-001	-5.3391734E-005
3	0	1.458533996177721E+002	2.6694885E-001	4.2035979E-005
3	0	1.463533996051410E+002	2.6650450E-001	4.2035979E-005
3	0	1.468533995925100E+002	2.6607367E-001	-1.2973390E-004
3	0	1.473533995798789E+002	2.6564762E-001	-3.4306191E-005
3	0	1.478533995672478E+002	2.6522192E-001	-1.2973390E-004
3	0	1.483533995546168E+002	2.6479015E-001	-3.4306191E-005
3	0	1.488533995419857E+002	2.6433861E-001	-1.5220648E-005
3	0	1.493533995293546E+002	2.6387680E-001	-7.2477276E-005
3	0	1.498533995167236E+002	2.6345560E-001	-1.4881945E-004
3	0	1.503533995040925E+002	2.6304513E-001	-7.2477276E-005
3	0	1.503879995032185E+002	2.6282787E-001	-1.1064836E-004