EC-Lab ASCII FILE
Nb header lines : 48                          

Open Circuit Voltage

Run on channel : 1 (SN 81504)
User : 
CE vs. WE compliance from -10 V to 10 V
Electrode connection : standard
Potential control : Ewe
Ewe ctrl range : min = -2.50 V, max = 2.50 V
Safety Limits :
	Do not start on E overload
Acquisition started on : 05/07/2026 20:50:15.926
Loaded Setting File :  C:\PEM-WE_measurements\2026\372_IV_IV IrOx, 5 min Pt, 30 min C, etched cathode\new station\Loopeis new\1,46 V different time gaps open cell\Loopeis 1,46V_120s_2_PEIS from 65kHz to 10kHz.mps
Saved on :
	File : L_22_Loopeis 1,46V_120s_2_PEIS from 65kHz to 10kHz_04_OCV_C01.mpr
	Directory : C:\PEM-WE_measurements\2026\372_IV_IV IrOx, 5 min Pt, 30 min C, etched cathode\new station\Loopeis new\1,46 V different time gaps open cell\
	Host : 192.168.0.2
Device : SP-150e (SN .005491)
Address : 192.168.0.91
EC-LAB for windows v11.71 (software)
Internet server v28.00 (firmware)
Command interpretor v14.01 (firmware)
Electrode material : 
Initial state : 
Electrolyte : 
Comments : 
Current amplifier : SP-150eB-20A
Electrode surface area : 0.001 cm²
Characteristic mass : 0.001 g
Equivalent Weight : 0.000 g/eq.
Density : 0.000 g/cm3
Volume (V) : 0.001 cm³
Record Analogic IN 1
Text export
   Mode : Standard
   Time format : Elapsed
Cycle Definition : Charge/Discharge alternance
tR (h:m:s)          0:02:0.0000         
dER/dt (mV/h)       1.0                 
record              <Ewe>               
dER (mV)            10.00               
dtR (s)             0.5000              
E range min (V)     -2.500              
E range max (V)     2.500               

mode	error	time/s	<Ewe/V>	Analog IN 1/V	
3	0	2.110263979840238E+002	9.7541821E-001	-1.1064836E-004
3	0	2.115263979713927E+002	1.1699516E+000	-7.2477276E-005
3	0	2.120263979587617E+002	9.8643208E-001	-9.1562819E-005
3	0	2.125263979461306E+002	5.1452643E-001	6.1121522E-005
3	0	2.130263979334995E+002	3.3129382E-001	-9.1562819E-005
3	0	2.135263979208685E+002	3.0947855E-001	-9.1562819E-005
3	0	2.140263979082374E+002	3.0244288E-001	3.8648941E-006
3	0	2.145263978956064E+002	2.9633528E-001	-3.4306191E-005
3	0	2.150263978829753E+002	2.9140005E-001	4.2035979E-005
3	0	2.155263978703442E+002	2.8756279E-001	2.2950437E-005
3	0	2.160263978577132E+002	2.8458393E-001	3.8648941E-006
3	0	2.165263978450821E+002	2.8222212E-001	4.2035979E-005
3	0	2.170263978324510E+002	2.8030297E-001	-7.2477276E-005
3	0	2.175263978198200E+002	2.7871051E-001	3.8648941E-006
3	0	2.180263978071889E+002	2.7734682E-001	-5.3391734E-005
3	0	2.185263977945579E+002	2.7616107E-001	-1.5220648E-005
3	0	2.190263977819268E+002	2.7509141E-001	-1.2973390E-004
3	0	2.195263977692957E+002	2.7412680E-001	-1.5220648E-005
3	0	2.200263977566647E+002	2.7326161E-001	-1.5220648E-005
3	0	2.205263977440336E+002	2.7246746E-001	-1.5220648E-005
3	0	2.210263977314025E+002	2.7172956E-001	-1.1064836E-004
3	0	2.215263977187715E+002	2.7102304E-001	-7.2477276E-005
3	0	2.220263977061404E+002	2.7034974E-001	4.2035979E-005
3	0	2.225263976935094E+002	2.6969755E-001	-9.1562819E-005
3	0	2.230263976808783E+002	2.6905560E-001	2.2950437E-005
3	0	2.235263976682472E+002	2.6841417E-001	2.2950437E-005
3	0	2.240263976556162E+002	2.6781821E-001	-9.1562819E-005
3	0	2.245263976429851E+002	2.6724321E-001	-7.2477276E-005
3	0	2.250263976303540E+002	2.6668108E-001	-1.2973390E-004
3	0	2.255263976177230E+002	2.6612815E-001	-1.5220648E-005
3	0	2.260263976050919E+002	2.6558954E-001	-9.1562819E-005
3	0	2.265263975924609E+002	2.6504782E-001	-3.4306191E-005
3	0	2.270263975798298E+002	2.6450208E-001	-5.3391734E-005
3	0	2.275263975671987E+002	2.6394284E-001	2.2950437E-005
3	0	2.280263975545677E+002	2.6341638E-001	-7.2477276E-005
3	0	2.285263975419366E+002	2.6290664E-001	2.2950437E-005
3	0	2.290263975293055E+002	2.6240101E-001	-1.4881945E-004
3	0	2.295263975166745E+002	2.6190454E-001	-1.5220648E-005
3	0	2.300263975040434E+002	2.6140544E-001	-3.4306191E-005
3	0	2.305263974914124E+002	2.6091442E-001	-1.1064836E-004
3	0	2.310263974787813E+002	2.6040205E-001	-3.4306191E-005
3	0	2.315263974661502E+002	2.5987586E-001	-7.2477276E-005
3	0	2.320263974535192E+002	2.5939727E-001	-7.2477276E-005
3	0	2.325263974408881E+002	2.5892386E-001	-1.5220648E-005
3	0	2.330263974282570E+002	2.5845316E-001	-9.1562819E-005
3	0	2.335263974156260E+002	2.5799239E-001	-3.4306191E-005
3	0	2.340263974029949E+002	2.5752768E-001	-2.0607607E-004
3	0	2.345263973903639E+002	2.5706211E-001	8.0207064E-005
3	0	2.350263973777328E+002	2.5658256E-001	-9.1562819E-005
3	0	2.355263973651017E+002	2.5609306E-001	-1.2973390E-004
3	0	2.360263973524707E+002	2.5564021E-001	-1.6790499E-004
3	0	2.365263973398396E+002	2.5520507E-001	-1.1064836E-004
3	0	2.370263973272085E+002	2.5476328E-001	-7.2477276E-005
3	0	2.375263973145775E+002	2.5433135E-001	2.2950437E-005
3	0	2.380263973019464E+002	2.5390553E-001	-9.1562819E-005
3	0	2.385263972893154E+002	2.5347212E-001	-3.4306191E-005
3	0	2.390263972766843E+002	2.5302121E-001	4.2035979E-005
3	0	2.395263972640532E+002	2.5255868E-001	-1.5220648E-005
3	0	2.400263972514222E+002	2.5213820E-001	-1.5220648E-005
3	0	2.405263972387911E+002	2.5172359E-001	2.2950437E-005
3	0	2.410263972261600E+002	2.5130856E-001	6.1121522E-005
3	0	2.415263972135290E+002	2.5090224E-001	-1.2973390E-004
3	0	2.420263972008979E+002	2.5049809E-001	-1.2973390E-004
3	0	2.425263971882669E+002	2.5009808E-001	4.2035979E-005
3	0	2.430263971756358E+002	2.4968165E-001	-1.5220648E-005
3	0	2.435263971630047E+002	2.4925801E-001	-1.4881945E-004
3	0	2.440263971503737E+002	2.4886109E-001	-1.1064836E-004
3	0	2.445263971377426E+002	2.4848570E-001	2.2950437E-005
3	0	2.450263971251115E+002	2.4810335E-001	-5.3391734E-005
3	0	2.455263971124805E+002	2.4773207E-001	-5.3391734E-005
3	0	2.460263970998494E+002	2.4735421E-001	-9.1562819E-005
3	0	2.465263970872184E+002	2.4694563E-001	-1.6790499E-004
3	0	2.470263970745873E+002	2.4656317E-001	6.1121522E-005
3	0	2.475263970619562E+002	2.4618155E-001	-7.2477276E-005
3	0	2.480263970493252E+002	2.4583417E-001	3.8648941E-006
3	0	2.485263970366941E+002	2.4550484E-001	-5.3391734E-005
3	0	2.490263970240630E+002	2.4516387E-001	-1.5220648E-005
3	0	2.495263970114320E+002	2.4482049E-001	3.8648941E-006
3	0	2.500263969988009E+002	2.4448234E-001	-3.4306191E-005
3	0	2.505263969861699E+002	2.4414118E-001	-1.2973390E-004
3	0	2.510263969735388E+002	2.4378105E-001	-7.2477276E-005
3	0	2.515263969609077E+002	2.4340180E-001	-1.5220648E-005
3	0	2.520263969482767E+002	2.4306802E-001	-1.8699054E-004
3	0	2.525263969356456E+002	2.4275710E-001	-3.4306191E-005
3	0	2.530263969230145E+002	2.4243464E-001	-5.3391734E-005
3	0	2.535263969103835E+002	2.4211371E-001	-3.4306191E-005
3	0	2.540263968977524E+002	2.4179985E-001	-5.3391734E-005
3	0	2.545263968851214E+002	2.4148180E-001	-3.4306191E-005
3	0	2.550263968724903E+002	2.4114335E-001	3.8648941E-006
3	0	2.555263968598592E+002	2.4079615E-001	-2.0607607E-004
3	0	2.560263968472282E+002	2.4049142E-001	4.2035979E-005
3	0	2.565263968345971E+002	2.4021207E-001	-3.4306191E-005
3	0	2.570263968219660E+002	2.3992567E-001	-9.1562819E-005
3	0	2.575263968093350E+002	2.3963861E-001	-3.4306191E-005
3	0	2.580263967967039E+002	2.3935211E-001	-1.5220648E-005
3	0	2.585263967840729E+002	2.3905529E-001	-2.4424717E-004
3	0	2.590263967714418E+002	2.3874830E-001	-5.3391734E-005
3	0	2.595263967588107E+002	2.3842651E-001	2.2950437E-005
3	0	2.600263967461797E+002	2.3814566E-001	2.2950437E-005
3	0	2.605263967335486E+002	2.3788393E-001	-1.6790499E-004
3	0	2.610263967209175E+002	2.3761761E-001	-9.1562819E-005
3	0	2.615263967082865E+002	2.3734643E-001	-1.8699054E-004
3	0	2.620263966956554E+002	2.3708244E-001	-7.2477276E-005
3	0	2.625263966830244E+002	2.3681027E-001	-1.2973390E-004
3	0	2.630263966703933E+002	2.3652050E-001	-1.5220648E-005
3	0	2.635263966577622E+002	2.3622164E-001	-1.1064836E-004
3	0	2.640263966451312E+002	2.3596546E-001	-2.6333271E-004
3	0	2.645263966325001E+002	2.3573844E-001	-1.4881945E-004
3	0	2.650263966198690E+002	2.3550245E-001	-1.5220648E-005
3	0	2.655263966072380E+002	2.3527402E-001	2.2950437E-005
3	0	2.660263965946069E+002	2.3502713E-001	-3.4306191E-005
3	0	2.665263965819759E+002	2.3477145E-001	-5.3391734E-005
3	0	2.670263965693448E+002	2.3451021E-001	-7.2477276E-005
3	0	2.675263965567137E+002	2.3423082E-001	-7.2477276E-005
3	0	2.680263965440827E+002	2.3399933E-001	-7.2477276E-005
3	0	2.685263965314516E+002	2.3378453E-001	1.3746369E-004
3	0	2.690263965188205E+002	2.3356090E-001	-1.1064836E-004
3	0	2.695263965061895E+002	2.3334256E-001	-1.5220648E-005
3	0	2.700263964935584E+002	2.3312138E-001	-5.3391734E-005
3	0	2.705263964809274E+002	2.3289250E-001	-9.1562819E-005
3	0	2.710263964682963E+002	2.3264615E-001	-3.4306191E-005
3	0	2.715263964556652E+002	2.3238832E-001	2.2950437E-005
3	0	2.720263964430342E+002	2.3216926E-001	-1.4881945E-004
3	0	2.725263964304031E+002	2.3197809E-001	-5.3391734E-005
3	0	2.730263964177720E+002	2.3178038E-001	-1.5220648E-005
3	0	2.735263964051410E+002	2.3157907E-001	-9.1562819E-005
3	0	2.740263963925099E+002	2.3137929E-001	-5.3391734E-005
3	0	2.745263963798789E+002	2.3117343E-001	-1.5220648E-005
3	0	2.750263963672478E+002	2.3094626E-001	3.8648941E-006
3	0	2.755263963546167E+002	2.3071288E-001	3.8648941E-006
3	0	2.760263963419857E+002	2.3052166E-001	-1.2973390E-004
3	0	2.765263963293546E+002	2.3034522E-001	-5.3391734E-005
3	0	2.770263963167235E+002	2.3016508E-001	2.2950437E-005
3	0	2.775263963040925E+002	2.2997838E-001	-3.4306191E-005
3	0	2.780263962914614E+002	2.2979091E-001	-1.5220648E-005
3	0	2.785263962788304E+002	2.2960219E-001	-1.6790499E-004
3	0	2.790263962661993E+002	2.2939338E-001	-5.3391734E-005
3	0	2.795263962535682E+002	2.2917651E-001	2.2950437E-005
3	0	2.800263962409372E+002	2.2899552E-001	-1.2973390E-004
3	0	2.805263962283061E+002	2.2883569E-001	3.8648941E-006
3	0	2.810263962156750E+002	2.2866784E-001	-1.4881945E-004
3	0	2.815263962030440E+002	2.2849621E-001	-7.2477276E-005
3	0	2.820263961904129E+002	2.2832982E-001	2.2950437E-005
3	0	2.825263961777819E+002	2.2815306E-001	-1.5220648E-005
3	0	2.830263961651508E+002	2.2795577E-001	3.8648941E-006
3	0	2.835263961525197E+002	2.2775084E-001	-5.3391734E-005
3	0	2.840263961398887E+002	2.2758082E-001	-3.4306191E-005
3	0	2.845263961272576E+002	2.2743896E-001	-1.8699054E-004
3	0	2.850263961146266E+002	2.2728077E-001	3.8648941E-006
3	0	2.855263961019955E+002	2.2712576E-001	2.2950437E-005
3	0	2.860263960893644E+002	2.2697057E-001	-3.4306191E-005
3	0	2.865263960767334E+002	2.2681829E-001	-3.4306191E-005
3	0	2.870263960641023E+002	2.2663997E-001	-3.4306191E-005
3	0	2.875263960514712E+002	2.2645153E-001	-3.4306191E-005
3	0	2.880263960388402E+002	2.2629271E-001	-3.4306191E-005
3	0	2.885263960262091E+002	2.2616331E-001	-1.1064836E-004
3	0	2.890263960135781E+002	2.2602379E-001	-1.8699054E-004
3	0	2.895263960009470E+002	2.2588158E-001	-1.2973390E-004
3	0	2.900263959883159E+002	2.2574271E-001	3.8648941E-006
3	0	2.905263959756849E+002	2.2559792E-001	-9.1562819E-005
3	0	2.910263959630538E+002	2.2543280E-001	8.0207064E-005
3	0	2.915263959504227E+002	2.2525348E-001	-1.5220648E-005
3	0	2.920263959377917E+002	2.2511178E-001	3.8648941E-006
3	0	2.925263959251606E+002	2.2499202E-001	-1.6790499E-004
3	0	2.930263959125296E+002	2.2487427E-001	2.2950437E-005
3	0	2.935263958998985E+002	2.2475238E-001	-1.5220648E-005
3	0	2.940263958872674E+002	2.2462340E-001	2.2950437E-005
3	0	2.945263958746364E+002	2.2448453E-001	-1.5220648E-005
3	0	2.950263958620053E+002	2.2431780E-001	4.2035979E-005
3	0	2.955263958493742E+002	2.2415048E-001	2.2950437E-005
3	0	2.960263958367432E+002	2.2401281E-001	-1.2973390E-004
3	0	2.965263958241121E+002	2.2389698E-001	-1.5220648E-005
3	0	2.970263958114811E+002	2.2378509E-001	-5.3391734E-005
3	0	2.975263957988500E+002	2.2366422E-001	-9.1562819E-005
3	0	2.980263957862189E+002	2.2355191E-001	-1.5220648E-005
3	0	2.985263957735879E+002	2.2342679E-001	3.8648941E-006
3	0	2.990263957609568E+002	2.2327882E-001	-5.3391734E-005
3	0	2.995263957483257E+002	2.2311231E-001	-1.8699054E-004
3	0	3.000263957356947E+002	2.2299360E-001	-1.5220648E-005
3	0	3.005263957230636E+002	2.2288454E-001	-1.5220648E-005
3	0	3.010263957104326E+002	2.2277635E-001	-1.5220648E-005
3	0	3.015263956978015E+002	2.2265631E-001	4.2035979E-005
3	0	3.020263956851704E+002	2.2254387E-001	-3.4306191E-005
3	0	3.025263956725394E+002	2.2242032E-001	8.0207064E-005
3	0	3.030263956599083E+002	2.2227691E-001	3.8648941E-006
3	0	3.035263956472772E+002	2.2212182E-001	-1.1064836E-004
3	0	3.040263956346462E+002	2.2200164E-001	-1.4881945E-004
3	0	3.045263956220151E+002	2.2190878E-001	-3.4306191E-005
3	0	3.050263956093841E+002	2.2180311E-001	8.0207064E-005
3	0	3.055263955967530E+002	2.2169650E-001	-3.4306191E-005
3	0	3.060263955841219E+002	2.2159462E-001	3.8648941E-006
3	0	3.065263955714909E+002	2.2148202E-001	-1.6790499E-004
3	0	3.070263955588598E+002	2.2134510E-001	2.2950437E-005
3	0	3.075263955462287E+002	2.2119230E-001	-1.8699054E-004
3	0	3.080263955335977E+002	2.2108580E-001	3.8648941E-006
3	0	3.085263955209666E+002	2.2100089E-001	-1.1064836E-004
3	0	3.090263955083356E+002	2.2091314E-001	-1.5220648E-005
3	0	3.095263954957045E+002	2.2081500E-001	-1.4881945E-004
3	0	3.100263954830734E+002	2.2071898E-001	3.8648941E-006
3	0	3.105263954704424E+002	2.2061649E-001	-7.2477276E-005
3	0	3.110263954578113E+002	2.2049567E-001	-1.4881945E-004
3	0	3.115263954451802E+002	2.2034937E-001	8.0207064E-005
3	0	3.120263954325492E+002	2.2024982E-001	-7.2477276E-005
3	0	3.125263954199181E+002	2.2016595E-001	-1.1064836E-004
3	0	3.130263954072871E+002	2.2008552E-001	-1.6790499E-004
3	0	3.135263953946560E+002	2.1999180E-001	2.2950437E-005
3	0	3.140263953820249E+002	2.1990477E-001	-5.3391734E-005
3	0	3.145263953693939E+002	2.1980436E-001	-1.5220648E-005
3	0	3.150263953567628E+002	2.1968284E-001	-1.5220648E-005
3	0	3.155263953441317E+002	2.1954998E-001	-7.2477276E-005
3	0	3.160263953315007E+002	2.1945260E-001	-1.5220648E-005
3	0	3.165263953188696E+002	2.1937819E-001	-1.4881945E-004
3	0	3.170263953062386E+002	2.1930212E-001	-3.4306191E-005
3	0	3.175263952936075E+002	2.1921930E-001	-7.2477276E-005
3	0	3.180263952809764E+002	2.1913473E-001	-3.4306191E-005
3	0	3.185263952683454E+002	2.1904595E-001	4.2035979E-005
3	0	3.190263952557143E+002	2.1892957E-001	-1.4881945E-004
3	0	3.195263952430832E+002	2.1879274E-001	-7.2477276E-005
3	0	3.200263952304522E+002	2.1870047E-001	-5.3391734E-005
3	0	3.205263952178211E+002	2.1862863E-001	-1.2973390E-004
3	0	3.210263952051901E+002	2.1855302E-001	-7.2477276E-005
3	0	3.215263951925590E+002	2.1847172E-001	4.2035979E-005
3	0	3.220263951799279E+002	2.1838982E-001	3.8648941E-006
3	0	3.225263951672969E+002	2.1830480E-001	-5.3391734E-005
3	0	3.230263951546658E+002	2.1819068E-001	2.2950437E-005
3	0	3.235263951420347E+002	2.1805863E-001	3.8648941E-006
3	0	3.240263951294037E+002	2.1796440E-001	-1.2973390E-004
3	0	3.245263951167726E+002	2.1789216E-001	-1.5220648E-005
3	0	3.250263951041416E+002	2.1782042E-001	-1.5220648E-005
3	0	3.255263950915105E+002	2.1773969E-001	8.0207064E-005
3	0	3.260263950788794E+002	2.1766037E-001	2.2950437E-005
3	0	3.265263950662484E+002	2.1757416E-001	4.2035979E-005
3	0	3.270263950536173E+002	2.1746816E-001	-5.3391734E-005
3	0	3.275263950409862E+002	2.1734662E-001	-7.2477276E-005
3	0	3.280263950283552E+002	2.1726410E-001	-1.1064836E-004
3	0	3.285263950157241E+002	2.1720566E-001	-1.5220648E-005
3	0	3.290263950030931E+002	2.1714349E-001	-1.5220648E-005
3	0	3.295263949904620E+002	2.1707495E-001	-3.4306191E-005
3	0	3.300263949778309E+002	2.1699862E-001	-9.1562819E-005
3	0	3.305263949651999E+002	2.1691598E-001	-1.2973390E-004
3	0	3.305619949643005E+002	2.1685739E-001	-7.2477276E-005