EC-Lab ASCII FILE
Nb header lines : 55                          

Open Circuit Voltage

Run on channel : 1 (SN 81504)
User : 
CE vs. WE compliance from -10 V to 10 V
Electrode connection : standard
Potential control : Ewe
Ewe ctrl range : min = -2.50 V, max = 2.50 V
Safety Limits :
	Do not start on E overload
Acquisition started on : 05/07/2026 21:17:54.184
Loaded Setting File :  C:\PEM-WE_measurements\2026\372_IV_IV IrOx, 5 min Pt, 30 min C, etched cathode\new station\Loopeis new\1,46 V different time gaps open cell\Loopeis 1,46V_120s_3_PEIS from 6500Hz to 1000Hz.mps
Saved on :
	File : L_23_Loopeis 1,46V_120s_3_PEIS from 6500Hz to 1000Hz_08_OCV_C01.mpr
	Directory : C:\PEM-WE_measurements\2026\372_IV_IV IrOx, 5 min Pt, 30 min C, etched cathode\new station\Loopeis new\1,46 V different time gaps open cell\
	Host : 192.168.0.2
Device : SP-150e (SN .005491)
Address : 192.168.0.91
EC-LAB for windows v11.71 (software)
Internet server v28.00 (firmware)
Command interpretor v14.01 (firmware)
Electrode material : 
Initial state : 
Electrolyte : 
Comments : 
Current amplifier : SP-150eB-20A
Electrode surface area : 0.001 cm²
Characteristic mass : 0.001 g
Equivalent Weight : 0.000 g/eq.
Density : 0.000 g/cm3
Volume (V) : 0.001 cm³
Record Analogic IN 1
Text export
   Mode : Standard
   Time format : Elapsed
Cycle Definition : Charge/Discharge alternance
External device configuration :
   device type : Temperature Probe
   device name : Other
   Analog IN 1 : 
      unit : T/Â°C
      max : 100.000 at 2.000 V
      min : 0.000 at 1.460 V
tR (h:m:s)          0:02:0.0000         
dER/dt (mV/h)       1.0                 
record              <Ewe>               
dER (mV)            10.00               
dtR (s)             0.5000              
E range min (V)     -2.500              
E range max (V)     2.500               

mode	error	time/s	<Ewe/V>	Analog IN 1/V	
3	0	5.404263928921864E+002	9.5521408E-001	-2.7038742E+002
3	0	5.409263928795554E+002	1.1450644E+000	-2.7037326E+002
3	0	5.414263928669243E+002	8.4026951E-001	-2.7036618E+002
3	0	5.419263928542932E+002	4.2017224E-001	-2.7036618E+002
3	0	5.424263928416622E+002	3.2210907E-001	-2.7039093E+002
3	0	5.429263928290311E+002	3.1064001E-001	-2.7039447E+002
3	0	5.434263928164000E+002	3.0390227E-001	-2.7037326E+002
3	0	5.439263928037690E+002	2.9821676E-001	-2.7038031E+002
3	0	5.444263927911379E+002	2.9374161E-001	-2.7039093E+002
3	0	5.449263927785069E+002	2.9025081E-001	-2.7037326E+002
3	0	5.454263927658758E+002	2.8752029E-001	-2.7037677E+002
3	0	5.459263927532447E+002	2.8530696E-001	-2.7038742E+002
3	0	5.464263927406137E+002	2.8348458E-001	-2.7038031E+002
3	0	5.469263927279826E+002	2.8194472E-001	-2.7038742E+002
3	0	5.474263927153515E+002	2.8061178E-001	-2.7037677E+002
3	0	5.479263927027205E+002	2.7943945E-001	-2.7036972E+002
3	0	5.484263926900894E+002	2.7837253E-001	-2.7036972E+002
3	0	5.489263926774584E+002	2.7739370E-001	-2.7039447E+002
3	0	5.494263926648273E+002	2.7652809E-001	-2.7037326E+002
3	0	5.499263926521962E+002	2.7573261E-001	-2.7037677E+002
3	0	5.504263926395652E+002	2.7498320E-001	-2.7037677E+002
3	0	5.509263926269341E+002	2.7428627E-001	-2.7035559E+002
3	0	5.514263926143030E+002	2.7361044E-001	-2.7036972E+002
3	0	5.519263926016720E+002	2.7295431E-001	-2.7039447E+002
3	0	5.524263925890409E+002	2.7230248E-001	-2.7037326E+002
3	0	5.529263925764099E+002	2.7166435E-001	-2.7039801E+002
3	0	5.534263925637788E+002	2.7106398E-001	-2.7038385E+002
3	0	5.539263925511477E+002	2.7049899E-001	-2.7038031E+002
3	0	5.544263925385167E+002	2.6994467E-001	-2.7036972E+002
3	0	5.549263925258856E+002	2.6940814E-001	-2.7034851E+002
3	0	5.554263925132545E+002	2.6886737E-001	-2.7038031E+002
3	0	5.559263925006235E+002	2.6832587E-001	-2.7039093E+002
3	0	5.564263924879924E+002	2.6777029E-001	-2.7035913E+002
3	0	5.569263924753614E+002	2.6721030E-001	-2.7033438E+002
3	0	5.574263924627303E+002	2.6669216E-001	-2.7034497E+002
3	0	5.579263924500992E+002	2.6619413E-001	-2.7034851E+002
3	0	5.584263924374682E+002	2.6570407E-001	-2.7038385E+002
3	0	5.589263924248371E+002	2.6521173E-001	-2.7039801E+002
3	0	5.594263924122060E+002	2.6473823E-001	-2.7036618E+002
3	0	5.599263923995750E+002	2.6425275E-001	-2.7037677E+002
3	0	5.604263923869439E+002	2.6375481E-001	-2.7039801E+002
3	0	5.609263923743129E+002	2.6324937E-001	-2.7036618E+002
3	0	5.614263923616818E+002	2.6277795E-001	-2.7037677E+002
3	0	5.619263923490507E+002	2.6231596E-001	-2.7037677E+002
3	0	5.624263923364197E+002	2.6186034E-001	-2.7037677E+002
3	0	5.629263923237886E+002	2.6140603E-001	-2.7039093E+002
3	0	5.634263923111575E+002	2.6096058E-001	-2.7038742E+002
3	0	5.639263922985265E+002	2.6050836E-001	-2.7038742E+002
3	0	5.644263922858954E+002	2.6003480E-001	-2.7038385E+002
3	0	5.649263922732644E+002	2.5956544E-001	-2.7037677E+002
3	0	5.654263922606333E+002	2.5913566E-001	-2.7036618E+002
3	0	5.659263922480022E+002	2.5871164E-001	-2.7037326E+002
3	0	5.664263922353712E+002	2.5829005E-001	-2.7035559E+002
3	0	5.669263922227401E+002	2.5787452E-001	-2.7036972E+002
3	0	5.674263922101090E+002	2.5746134E-001	-2.7037677E+002
3	0	5.679263921974780E+002	2.5703710E-001	-2.7038385E+002
3	0	5.684263921848469E+002	2.5659770E-001	-2.7036267E+002
3	0	5.689263921722159E+002	2.5616145E-001	-2.7037326E+002
3	0	5.694263921595848E+002	2.5575429E-001	-2.7035913E+002
3	0	5.699263921469537E+002	2.5535801E-001	-2.7037677E+002
3	0	5.704263921343227E+002	2.5497046E-001	-2.7039093E+002
3	0	5.709263921216916E+002	2.5458303E-001	-2.7040506E+002
3	0	5.714263921090605E+002	2.5420475E-001	-2.7037677E+002
3	0	5.719263920964295E+002	2.5381070E-001	-2.7037677E+002
3	0	5.724263920837984E+002	2.5339994E-001	-2.7035559E+002
3	0	5.729263920711674E+002	2.5299001E-001	-2.7037677E+002
3	0	5.734263920585363E+002	2.5261369E-001	-2.7038385E+002
3	0	5.739263920459052E+002	2.5224665E-001	-2.7036972E+002
3	0	5.744263920332742E+002	2.5187972E-001	-2.7036972E+002
3	0	5.749263920206431E+002	2.5151250E-001	-2.7039447E+002
3	0	5.754263920080120E+002	2.5114065E-001	-2.7037677E+002
3	0	5.759263919953810E+002	2.5076500E-001	-2.7036618E+002
3	0	5.764263919827499E+002	2.5038216E-001	-2.7037677E+002
3	0	5.769263919701189E+002	2.4999505E-001	-2.7036618E+002
3	0	5.774263919574878E+002	2.4965860E-001	-2.7038031E+002
3	0	5.779263919448567E+002	2.4932152E-001	-2.7037326E+002
3	0	5.784263919322257E+002	2.4898854E-001	-2.7036618E+002
3	0	5.789263919195946E+002	2.4865489E-001	-2.7036972E+002
3	0	5.794263919069635E+002	2.4831364E-001	-2.7036972E+002
3	0	5.799263918943325E+002	2.4798357E-001	-2.7037326E+002
3	0	5.804263918817014E+002	2.4762776E-001	-2.7036972E+002
3	0	5.809263918690704E+002	2.4727926E-001	-2.7036972E+002
3	0	5.814263918564393E+002	2.4697228E-001	-2.7037326E+002
3	0	5.819263918438082E+002	2.4666764E-001	-2.7038385E+002
3	0	5.824263918311772E+002	2.4636254E-001	-2.7039447E+002
3	0	5.829263918185461E+002	2.4606317E-001	-2.7040155E+002
3	0	5.834263918059150E+002	2.4576901E-001	-2.7038385E+002
3	0	5.839263917932840E+002	2.4545799E-001	-2.7037326E+002
3	0	5.844263917806529E+002	2.4513382E-001	-2.7035559E+002
3	0	5.849263917680219E+002	2.4480824E-001	-2.7037677E+002
3	0	5.854263917553908E+002	2.4452949E-001	-2.7037677E+002
3	0	5.859263917427597E+002	2.4424835E-001	-2.7039447E+002
3	0	5.864263917301287E+002	2.4396886E-001	-2.7038385E+002
3	0	5.869263917174976E+002	2.4368587E-001	-2.7038742E+002
3	0	5.874263917048665E+002	2.4341458E-001	-2.7038031E+002
3	0	5.879263916922355E+002	2.4312931E-001	-2.7039447E+002
3	0	5.884263916796044E+002	2.4283211E-001	-2.7035913E+002
3	0	5.889263916669734E+002	2.4253397E-001	-2.7038031E+002
3	0	5.894263916543423E+002	2.4227545E-001	-2.7035913E+002
3	0	5.899263916417112E+002	2.4202067E-001	-2.7036618E+002
3	0	5.904263916290802E+002	2.4176712E-001	-2.7037326E+002
3	0	5.909263916164491E+002	2.4151923E-001	-2.7039801E+002
3	0	5.914263916038180E+002	2.4126928E-001	-2.7039447E+002
3	0	5.919263915911870E+002	2.4100253E-001	-2.7036618E+002
3	0	5.924263915785559E+002	2.4072585E-001	-2.7036618E+002
3	0	5.929263915659249E+002	2.4045604E-001	-2.7035913E+002
3	0	5.934263915532938E+002	2.4022308E-001	-2.7038031E+002
3	0	5.939263915406627E+002	2.3999296E-001	-2.7039801E+002
3	0	5.944263915280317E+002	2.3976000E-001	-2.7038385E+002
3	0	5.949263915154006E+002	2.3952894E-001	-2.7036972E+002
3	0	5.954263915027695E+002	2.3929477E-001	-2.7038031E+002
3	0	5.959263914901385E+002	2.3905306E-001	-2.7037677E+002
3	0	5.964263914775074E+002	2.3879759E-001	-2.7038742E+002
3	0	5.969263914648764E+002	2.3853602E-001	-2.7038742E+002
3	0	5.974263914522453E+002	2.3832613E-001	-2.7037326E+002
3	0	5.979263914396142E+002	2.3811246E-001	-2.7036972E+002
3	0	5.984263914269832E+002	2.3789762E-001	-2.7037677E+002
3	0	5.989263914143521E+002	2.3768622E-001	-2.7036618E+002
3	0	5.994263914017210E+002	2.3747638E-001	-2.7039801E+002
3	0	5.999263913890900E+002	2.3725109E-001	-2.7036972E+002
3	0	6.004263913764589E+002	2.3701471E-001	-2.7038385E+002
3	0	6.009263913638279E+002	2.3677967E-001	-2.7038742E+002
3	0	6.014263913511968E+002	2.3658790E-001	-2.7036618E+002
3	0	6.019263913385657E+002	2.3639132E-001	-2.7038031E+002
3	0	6.024263913259347E+002	2.3620129E-001	-2.7037677E+002
3	0	6.029263913133036E+002	2.3601192E-001	-2.7040860E+002
3	0	6.034263913006725E+002	2.3582098E-001	-2.7038031E+002
3	0	6.039263912880415E+002	2.3562895E-001	-2.7037326E+002
3	0	6.044263912754104E+002	2.3541108E-001	-2.7038031E+002
3	0	6.049263912627794E+002	2.3519631E-001	-2.7035913E+002
3	0	6.054263912501483E+002	2.3501982E-001	-2.7040155E+002
3	0	6.059263912375172E+002	2.3484147E-001	-2.7039447E+002
3	0	6.064263912248862E+002	2.3466481E-001	-2.7038385E+002
3	0	6.069263912122551E+002	2.3449311E-001	-2.7038031E+002
3	0	6.074263911996241E+002	2.3432061E-001	-2.7039447E+002
3	0	6.079263911869930E+002	2.3413888E-001	-2.7038031E+002
3	0	6.084263911743619E+002	2.3393314E-001	-2.7038385E+002
3	0	6.089263911617309E+002	2.3373033E-001	-2.7038031E+002
3	0	6.094263911490998E+002	2.3356874E-001	-2.7035559E+002
3	0	6.099263911364687E+002	2.3340477E-001	-2.7038031E+002
3	0	6.104263911238377E+002	2.3324576E-001	-2.7036618E+002
3	0	6.109263911112066E+002	2.3309106E-001	-2.7037326E+002
3	0	6.114263910985756E+002	2.3293009E-001	-2.7038031E+002
3	0	6.119263910859445E+002	2.3275426E-001	-2.7036972E+002
3	0	6.124263910733134E+002	2.3256052E-001	-2.7036267E+002
3	0	6.129263910606824E+002	2.3236917E-001	-2.7038385E+002
3	0	6.134263910480513E+002	2.3222360E-001	-2.7038385E+002
3	0	6.139263910354202E+002	2.3207217E-001	-2.7035205E+002
3	0	6.144263910227892E+002	2.3192601E-001	-2.7038385E+002
3	0	6.149263910101581E+002	2.3177935E-001	-2.7039801E+002
3	0	6.154263909975271E+002	2.3163001E-001	-2.7034851E+002
3	0	6.159263909848960E+002	2.3146546E-001	-2.7039801E+002
3	0	6.164263909722649E+002	2.3128314E-001	-2.7036618E+002
3	0	6.169263909596339E+002	2.3109759E-001	-2.7039093E+002
3	0	6.174263909470028E+002	2.3095621E-001	-2.7039801E+002
3	0	6.179263909343717E+002	2.3081212E-001	-2.7038031E+002
3	0	6.184263909217407E+002	2.3066849E-001	-2.7036267E+002
3	0	6.189263909091096E+002	2.3053697E-001	-2.7037326E+002
3	0	6.194263908964786E+002	2.3040514E-001	-2.7038385E+002
3	0	6.199263908838475E+002	2.3026143E-001	-2.7038742E+002
3	0	6.204263908712164E+002	2.3009109E-001	-2.7036618E+002
3	0	6.209263908585854E+002	2.2992577E-001	-2.7037326E+002
3	0	6.214263908459543E+002	2.2979796E-001	-2.7038031E+002
3	0	6.219263908333232E+002	2.2966789E-001	-2.7038385E+002
3	0	6.224263908206922E+002	2.2954170E-001	-2.7037326E+002
3	0	6.229263908080611E+002	2.2941896E-001	-2.7038031E+002
3	0	6.234263907954301E+002	2.2929709E-001	-2.7036618E+002
3	0	6.239263907827990E+002	2.2915949E-001	-2.7039447E+002
3	0	6.244263907701679E+002	2.2900186E-001	-2.7036972E+002
3	0	6.249263907575369E+002	2.2884759E-001	-2.7038031E+002
3	0	6.254263907449058E+002	2.2873119E-001	-2.7038385E+002
3	0	6.259263907322747E+002	2.2861317E-001	-2.7037326E+002
3	0	6.264263907196437E+002	2.2849852E-001	-2.7037677E+002
3	0	6.269263907070126E+002	2.2838460E-001	-2.7037326E+002
3	0	6.274263906943816E+002	2.2826754E-001	-2.7036972E+002
3	0	6.279263906817505E+002	2.2814137E-001	-2.7036972E+002
3	0	6.284263906691194E+002	2.2799429E-001	-2.7037677E+002
3	0	6.289263906564884E+002	2.2784510E-001	-2.7037677E+002
3	0	6.294263906438573E+002	2.2773653E-001	-2.7036267E+002
3	0	6.299263906312262E+002	2.2762164E-001	-2.7038742E+002
3	0	6.304263906185952E+002	2.2751801E-001	-2.7038385E+002
3	0	6.309263906059641E+002	2.2741269E-001	-2.7038031E+002
3	0	6.314263905933331E+002	2.2730407E-001	-2.7038742E+002
3	0	6.319263905807020E+002	2.2718664E-001	-2.7037326E+002
3	0	6.324263905680709E+002	2.2704567E-001	-2.7039447E+002
3	0	6.329263905554399E+002	2.2690558E-001	-2.7035559E+002
3	0	6.334263905428088E+002	2.2681060E-001	-2.7037677E+002
3	0	6.339263905301777E+002	2.2670849E-001	-2.7037677E+002
3	0	6.344263905175467E+002	2.2661068E-001	-2.7036972E+002
3	0	6.349263905049156E+002	2.2650838E-001	-2.7038742E+002
3	0	6.354263904922846E+002	2.2640245E-001	-2.7039093E+002
3	0	6.359263904796535E+002	2.2628732E-001	-2.7036972E+002
3	0	6.364263904670224E+002	2.2614838E-001	-2.7036972E+002
3	0	6.369263904543914E+002	2.2600609E-001	-2.7036267E+002
3	0	6.374263904417603E+002	2.2590944E-001	-2.7038385E+002
3	0	6.379263904291292E+002	2.2580680E-001	-2.7038742E+002
3	0	6.384263904164982E+002	2.2571629E-001	-2.7040860E+002
3	0	6.389263904038671E+002	2.2561878E-001	-2.7037677E+002
3	0	6.394263903912361E+002	2.2550438E-001	-2.7038385E+002
3	0	6.399263903786050E+002	2.2538526E-001	-2.7038031E+002
3	0	6.404263903659739E+002	2.2527829E-001	-2.7038742E+002
3	0	6.409263903533429E+002	2.2515887E-001	-2.7037326E+002
3	0	6.414263903407118E+002	2.2508417E-001	-2.7038031E+002
3	0	6.419263903280807E+002	2.2500701E-001	-2.7035559E+002
3	0	6.424263903154497E+002	2.2491881E-001	-2.7039447E+002
3	0	6.429263903028186E+002	2.2483595E-001	-2.7039801E+002
3	0	6.434263902901876E+002	2.2474769E-001	-2.7036972E+002
3	0	6.439263902775565E+002	2.2464512E-001	-2.7036972E+002
3	0	6.444263902649254E+002	2.2451998E-001	-2.7036972E+002
3	0	6.449263902522944E+002	2.2439125E-001	-2.7038385E+002
3	0	6.454263902396633E+002	2.2431031E-001	-2.7036267E+002
3	0	6.459263902270322E+002	2.2423610E-001	-2.7038742E+002
3	0	6.464263902144012E+002	2.2415733E-001	-2.7036618E+002
3	0	6.469263902017701E+002	2.2406873E-001	-2.7038742E+002
3	0	6.474263901891391E+002	2.2398230E-001	-2.7039447E+002
3	0	6.479263901765080E+002	2.2388080E-001	-2.7039093E+002
3	0	6.484263901638769E+002	2.2376080E-001	-2.7036618E+002
3	0	6.489263901512459E+002	2.2363891E-001	-2.7038385E+002
3	0	6.494263901386148E+002	2.2356598E-001	-2.7038385E+002
3	0	6.499263901259837E+002	2.2349837E-001	-2.7036618E+002
3	0	6.504263901133527E+002	2.2342514E-001	-2.7039801E+002
3	0	6.509263901007216E+002	2.2334900E-001	-2.7038385E+002
3	0	6.514263900880906E+002	2.2326669E-001	-2.7037677E+002
3	0	6.519263900754595E+002	2.2317033E-001	-2.7039447E+002
3	0	6.524263900628284E+002	2.2305036E-001	-2.7036267E+002
3	0	6.529263900501974E+002	2.2293502E-001	-2.7038031E+002
3	0	6.534263900375663E+002	2.2285770E-001	-2.7036972E+002
3	0	6.539263900249352E+002	2.2278810E-001	-2.7035559E+002
3	0	6.544263900123042E+002	2.2271271E-001	-2.7036972E+002
3	0	6.549263899996731E+002	2.2263241E-001	-2.7036972E+002
3	0	6.554263899870421E+002	2.2255421E-001	-2.7038742E+002
3	0	6.559263899744110E+002	2.2246304E-001	-2.7037677E+002
3	0	6.564263899617799E+002	2.2235060E-001	-2.7038742E+002
3	0	6.569263899491489E+002	2.2223175E-001	-2.7037677E+002
3	0	6.574263899365178E+002	2.2215824E-001	-2.7038031E+002
3	0	6.579263899238867E+002	2.2209089E-001	-2.7039093E+002
3	0	6.584263899112557E+002	2.2201514E-001	-2.7039093E+002
3	0	6.589263898986246E+002	2.2194244E-001	-2.7037677E+002
3	0	6.594263898859936E+002	2.2186920E-001	-2.7038385E+002
3	0	6.599263898733625E+002	2.2178385E-001	-2.7039447E+002
3	0	6.599497898727714E+002	2.2172026E-001	-2.7040506E+002