EC-Lab ASCII FILE
Nb header lines : 55                          

Open Circuit Voltage

Run on channel : 1 (SN 81504)
User : 
CE vs. WE compliance from -10 V to 10 V
Electrode connection : standard
Potential control : Ewe
Ewe ctrl range : min = -2.50 V, max = 2.50 V
Safety Limits :
	Do not start on E overload
Acquisition started on : 05/10/2026 01:27:16.117
Loaded Setting File :  C:\PEM-WE_measurements\2026\372_IV_IV IrOx, 5 min Pt, 30 min C, etched cathode\new station\Loopeis new\1,46 V different time gaps closed cell\Loopeis 1,46V_45s_5_PEIS from 65Hz to 10Hz.mps
Saved on :
	File : L_10_Loopeis 1,46V_45s_5_PEIS from 65Hz to 10Hz_16_OCV_C01.mpr
	Directory : C:\PEM-WE_measurements\2026\372_IV_IV IrOx, 5 min Pt, 30 min C, etched cathode\new station\Loopeis new\1,46 V different time gaps closed cell\
	Host : 192.168.0.2
Device : SP-150e (SN .005491)
Address : 192.168.0.91
EC-LAB for windows v11.71 (software)
Internet server v28.00 (firmware)
Command interpretor v14.01 (firmware)
Electrode material : 
Initial state : 
Electrolyte : 
Comments : 
Current amplifier : SP-150eB-20A
Electrode surface area : 0.001 cm²
Characteristic mass : 0.001 g
Equivalent Weight : 0.000 g/eq.
Density : 0.000 g/cm3
Volume (V) : 0.001 cm³
Record Analogic IN 1
Text export
   Mode : Standard
   Time format : Elapsed
Cycle Definition : Charge/Discharge alternance
External device configuration :
   device type : Temperature Probe
   device name : Other
   Analog IN 1 : 
      unit : T/Â°C
      max : 100.000 at 2.000 V
      min : 0.000 at 1.460 V
tR (h:m:s)          0:00:45.0000        
dER/dt (mV/h)       1.0                 
record              <Ewe>               
dER (mV)            10.00               
dtR (s)             0.5000              
E range min (V)     -2.500              
E range max (V)     2.500               

mode	error	time/s	<Ewe/V>	Analog IN 1/V	
3	0	1.166857819371726E+003	1.2268472E+000	-2.7035205E+002
3	0	1.167357819359095E+003	1.2378651E+000	-2.7037677E+002
3	0	1.167857819346464E+003	1.2427781E+000	-2.7039447E+002
3	0	1.168357819333833E+003	1.2457687E+000	-2.7040506E+002
3	0	1.168857819321202E+003	1.2478533E+000	-2.7039447E+002
3	0	1.169357819308570E+003	1.2493871E+000	-2.7038385E+002
3	0	1.169857819295939E+003	1.2505370E+000	-2.7035913E+002
3	0	1.170357819283308E+003	1.2513993E+000	-2.7039447E+002
3	0	1.170857819270677E+003	1.2521408E+000	-2.7040155E+002
3	0	1.171357819258046E+003	1.2527648E+000	-2.7037326E+002
3	0	1.171857819245415E+003	1.2532730E+000	-2.7039447E+002
3	0	1.172357819232784E+003	1.2536844E+000	-2.7036972E+002
3	0	1.172857819220153E+003	1.2540232E+000	-2.7036618E+002
3	0	1.173357819207522E+003	1.2542876E+000	-2.7039801E+002
3	0	1.173857819194891E+003	1.2544442E+000	-2.7036267E+002
3	0	1.174357819182260E+003	1.2545211E+000	-2.7037677E+002
3	0	1.174857819169629E+003	1.2546320E+000	-2.7036267E+002
3	0	1.175357819156998E+003	1.2547570E+000	-2.7037326E+002
3	0	1.175857819144367E+003	1.2548580E+000	-2.7035205E+002
3	0	1.176357819131736E+003	1.2549303E+000	-2.7038385E+002
3	0	1.176857819119105E+003	1.2549944E+000	-2.7035913E+002
3	0	1.177357819106473E+003	1.2550303E+000	-2.7038031E+002
3	0	1.177857819093842E+003	1.2549931E+000	-2.7037326E+002
3	0	1.178357819081211E+003	1.2548962E+000	-2.7036618E+002
3	0	1.178857819068580E+003	1.2548535E+000	-2.7035913E+002
3	0	1.179357819055949E+003	1.2548501E+000	-2.7037326E+002
3	0	1.179857819043318E+003	1.2548233E+000	-2.7036618E+002
3	0	1.180357819030687E+003	1.2547864E+000	-2.7039093E+002
3	0	1.180857819018056E+003	1.2547436E+000	-2.7040155E+002
3	0	1.181357819005425E+003	1.2546766E+000	-2.7036618E+002
3	0	1.181857818992794E+003	1.2545515E+000	-2.7036618E+002
3	0	1.182357818980163E+003	1.2543653E+000	-2.7038385E+002
3	0	1.182857818967532E+003	1.2542379E+000	-2.7037326E+002
3	0	1.183357818954901E+003	1.2541543E+000	-2.7038385E+002
3	0	1.183857818942270E+003	1.2540582E+000	-2.7036618E+002
3	0	1.184357818929639E+003	1.2539570E+000	-2.7039093E+002
3	0	1.184857818917008E+003	1.2538545E+000	-2.7038031E+002
3	0	1.185357818904376E+003	1.2537208E+000	-2.7038031E+002
3	0	1.185857818891745E+003	1.2535231E+000	-2.7036618E+002
3	0	1.186357818879114E+003	1.2532660E+000	-2.7038742E+002
3	0	1.186857818866483E+003	1.2530791E+000	-2.7036972E+002
3	0	1.187357818853852E+003	1.2529380E+000	-2.7037326E+002
3	0	1.187857818841221E+003	1.2527874E+000	-2.7036972E+002
3	0	1.188357818828590E+003	1.2526273E+000	-2.7038385E+002
3	0	1.188857818815959E+003	1.2524763E+000	-2.7038742E+002
3	0	1.189357818803328E+003	1.2523086E+000	-2.7035205E+002
3	0	1.189857818790697E+003	1.2520664E+000	-2.7039093E+002
3	0	1.190357818778066E+003	1.2517656E+000	-2.7039447E+002
3	0	1.190857818765435E+003	1.2515154E+000	-2.7037326E+002
3	0	1.191357818752804E+003	1.2513150E+000	-2.7036972E+002
3	0	1.191857818740173E+003	1.2511110E+000	-2.7038385E+002
3	0	1.192357818727542E+003	1.2508872E+000	-2.7035559E+002
3	0	1.192857818714911E+003	1.2506652E+000	-2.7038385E+002
3	0	1.193357818702279E+003	1.2504339E+000	-2.7036972E+002
3	0	1.193857818689648E+003	1.2501311E+000	-2.7038031E+002
3	0	1.194357818677017E+003	1.2497809E+000	-2.7038031E+002
3	0	1.194857818664386E+003	1.2495021E+000	-2.7040860E+002
3	0	1.195357818651755E+003	1.2492836E+000	-2.7036618E+002
3	0	1.195857818639124E+003	1.2490610E+000	-2.7039093E+002
3	0	1.196357818626493E+003	1.2488366E+000	-2.7039801E+002
3	0	1.196857818613862E+003	1.2486124E+000	-2.7037326E+002
3	0	1.197357818601231E+003	1.2483743E+000	-2.7040155E+002
3	0	1.197857818588600E+003	1.2480820E+000	-2.7036618E+002
3	0	1.198357818575969E+003	1.2477295E+000	-2.7038031E+002
3	0	1.198857818563338E+003	1.2474492E+000	-2.7036267E+002
3	0	1.199357818550707E+003	1.2472074E+000	-2.7036972E+002
3	0	1.199857818538076E+003	1.2469549E+000	-2.7038031E+002
3	0	1.200357818525445E+003	1.2467009E+000	-2.7038031E+002
3	0	1.200857818512814E+003	1.2464478E+000	-2.7040506E+002
3	0	1.201357818500182E+003	1.2461765E+000	-2.7038031E+002
3	0	1.201857818487551E+003	1.2458532E+000	-2.7038385E+002
3	0	1.202357818474920E+003	1.2454618E+000	-2.7039093E+002
3	0	1.202857818462289E+003	1.2451307E+000	-2.7036972E+002
3	0	1.203357818449658E+003	1.2448517E+000	-2.7038742E+002
3	0	1.203857818437027E+003	1.2445612E+000	-2.7037677E+002
3	0	1.204357818424396E+003	1.2442614E+000	-2.7040155E+002
3	0	1.204857818411765E+003	1.2439641E+000	-2.7035205E+002
3	0	1.205357818399134E+003	1.2436483E+000	-2.7036972E+002
3	0	1.205857818386503E+003	1.2432722E+000	-2.7039093E+002
3	0	1.206357818373872E+003	1.2428463E+000	-2.7037326E+002
3	0	1.206857818361241E+003	1.2424822E+000	-2.7037677E+002
3	0	1.207357818348610E+003	1.2421595E+000	-2.7036267E+002
3	0	1.207857818335979E+003	1.2418376E+000	-2.7036972E+002
3	0	1.208357818323348E+003	1.2415005E+000	-2.7038742E+002
3	0	1.208857818310717E+003	1.2411675E+000	-2.7037326E+002
3	0	1.209357818298085E+003	1.2408142E+000	-2.7037326E+002
3	0	1.209857818285454E+003	1.2403955E+000	-2.7037677E+002
3	0	1.210357818272823E+003	1.2399158E+000	-2.7038742E+002
3	0	1.210857818260192E+003	1.2395123E+000	-2.7038385E+002
3	0	1.211357818247561E+003	1.2391458E+000	-2.7039093E+002
3	0	1.211382418246940E+003	1.2389661E+000	-2.7036267E+002