EC-Lab ASCII FILE
Nb header lines : 55                          

Open Circuit Voltage

Run on channel : 1 (SN 81504)
User : 
CE vs. WE compliance from -10 V to 10 V
Electrode connection : standard
Potential control : Ewe
Ewe ctrl range : min = -2.50 V, max = 2.50 V
Safety Limits :
	Do not start on E overload
Acquisition started on : 05/07/2026 19:49:57.838
Loaded Setting File :  C:\PEM-WE_measurements\2026\372_IV_IV IrOx, 5 min Pt, 30 min C, etched cathode\new station\Loopeis new\1,46 V different time gaps open cell\Loopeis 1,46V_90s_5_PEIS from 65Hz to 10Hz.mps
Saved on :
	File : L_20_Loopeis 1,46V_90s_5_PEIS from 65Hz to 10Hz_10_OCV_C01.mpr
	Directory : C:\PEM-WE_measurements\2026\372_IV_IV IrOx, 5 min Pt, 30 min C, etched cathode\new station\Loopeis new\1,46 V different time gaps open cell\
	Host : 192.168.0.2
Device : SP-150e (SN .005491)
Address : 192.168.0.91
EC-LAB for windows v11.71 (software)
Internet server v28.00 (firmware)
Command interpretor v14.01 (firmware)
Electrode material : 
Initial state : 
Electrolyte : 
Comments : 
Current amplifier : SP-150eB-20A
Electrode surface area : 0.001 cm²
Characteristic mass : 0.001 g
Equivalent Weight : 0.000 g/eq.
Density : 0.000 g/cm3
Volume (V) : 0.001 cm³
Record Analogic IN 1
Text export
   Mode : Standard
   Time format : Elapsed
Cycle Definition : Charge/Discharge alternance
External device configuration :
   device type : Temperature Probe
   device name : Other
   Analog IN 1 : 
      unit : T/Â°C
      max : 100.000 at 2.000 V
      min : 0.000 at 1.460 V
tR (h:m:s)          0:01:30.0000        
dER/dt (mV/h)       1.0                 
record              <Ewe>               
dER (mV)            10.00               
dtR (s)             0.5000              
E range min (V)     -2.500              
E range max (V)     2.500               

mode	error	time/s	<Ewe/V>	Analog IN 1/V	
3	0	1.026093412684204E+003	1.2629459E+000	-2.7036972E+002
3	0	1.026593412671573E+003	1.2433269E+000	-2.7038385E+002
3	0	1.027093412658942E+003	1.1616288E+000	-2.7037326E+002
3	0	1.027593412646311E+003	9.0859342E-001	-2.7037326E+002
3	0	1.028093412633680E+003	4.6210289E-001	-2.7036972E+002
3	0	1.028593412621049E+003	3.3950186E-001	-2.7035559E+002
3	0	1.029093412608418E+003	3.2451379E-001	-2.7036972E+002
3	0	1.029593412595787E+003	3.1639296E-001	-2.7039093E+002
3	0	1.030093412583155E+003	3.0979276E-001	-2.7040155E+002
3	0	1.030593412570524E+003	3.0472431E-001	-2.7036267E+002
3	0	1.031093412557893E+003	3.0086949E-001	-2.7038742E+002
3	0	1.031593412545262E+003	2.9788309E-001	-2.7038031E+002
3	0	1.032093412532631E+003	2.9550111E-001	-2.7036972E+002
3	0	1.032593412520000E+003	2.9354349E-001	-2.7037677E+002
3	0	1.033093412507369E+003	2.9187295E-001	-2.7036267E+002
3	0	1.033593412494738E+003	2.9043454E-001	-2.7035559E+002
3	0	1.034093412482107E+003	2.8921041E-001	-2.7038385E+002
3	0	1.034593412469476E+003	2.8813422E-001	-2.7040155E+002
3	0	1.035093412456845E+003	2.8715354E-001	-2.7037677E+002
3	0	1.035593412444214E+003	2.8625199E-001	-2.7037677E+002
3	0	1.036093412431583E+003	2.8541267E-001	-2.7038385E+002
3	0	1.036593412418952E+003	2.8461257E-001	-2.7036618E+002
3	0	1.037093412406321E+003	2.8383207E-001	-2.7039447E+002
3	0	1.037593412393690E+003	2.8307694E-001	-2.7035913E+002
3	0	1.038093412381058E+003	2.8239521E-001	-2.7036972E+002
3	0	1.038593412368427E+003	2.8174242E-001	-2.7036618E+002
3	0	1.039093412355796E+003	2.8110963E-001	-2.7037326E+002
3	0	1.039593412343165E+003	2.8049573E-001	-2.7038742E+002
3	0	1.040093412330534E+003	2.7988786E-001	-2.7040155E+002
3	0	1.040593412317903E+003	2.7928525E-001	-2.7037326E+002
3	0	1.041093412305272E+003	2.7867609E-001	-2.7036972E+002
3	0	1.041593412292641E+003	2.7806070E-001	-2.7039093E+002
3	0	1.042093412280010E+003	2.7748892E-001	-2.7038385E+002
3	0	1.042593412267379E+003	2.7693179E-001	-2.7036972E+002
3	0	1.043093412254748E+003	2.7638057E-001	-2.7036972E+002
3	0	1.043593412242117E+003	2.7584305E-001	-2.7038385E+002
3	0	1.044093412229486E+003	2.7530429E-001	-2.7038031E+002
3	0	1.044593412216855E+003	2.7477008E-001	-2.7038031E+002
3	0	1.045093412204224E+003	2.7421585E-001	-2.7038031E+002
3	0	1.045593412191593E+003	2.7365831E-001	-2.7036972E+002
3	0	1.046093412178961E+003	2.7313969E-001	-2.7037677E+002
3	0	1.046593412166330E+003	2.7263647E-001	-2.7038031E+002
3	0	1.047093412153699E+003	2.7214122E-001	-2.7038742E+002
3	0	1.047593412141068E+003	2.7164856E-001	-2.7039447E+002
3	0	1.048093412128437E+003	2.7115065E-001	-2.7039801E+002
3	0	1.048593412115806E+003	2.7065057E-001	-2.7037326E+002
3	0	1.049093412103175E+003	2.7012867E-001	-2.7034851E+002
3	0	1.049593412090544E+003	2.6961645E-001	-2.7036618E+002
3	0	1.050093412077913E+003	2.6914275E-001	-2.7038031E+002
3	0	1.050593412065282E+003	2.6867443E-001	-2.7041919E+002
3	0	1.051093412052651E+003	2.6820531E-001	-2.7040506E+002
3	0	1.051593412040020E+003	2.6773977E-001	-2.7035559E+002
3	0	1.052093412027389E+003	2.6728070E-001	-2.7038031E+002
3	0	1.052593412014758E+003	2.6681271E-001	-2.7038031E+002
3	0	1.053093412002127E+003	2.6632065E-001	-2.7039093E+002
3	0	1.053593411989496E+003	2.6583666E-001	-2.7038385E+002
3	0	1.054093411976864E+003	2.6538593E-001	-2.7040860E+002
3	0	1.054593411964233E+003	2.6494834E-001	-2.7036972E+002
3	0	1.055093411951602E+003	2.6452741E-001	-2.7036618E+002
3	0	1.055593411938971E+003	2.6409432E-001	-2.7035559E+002
3	0	1.056093411926340E+003	2.6366884E-001	-2.7037326E+002
3	0	1.056593411913709E+003	2.6323363E-001	-2.7039447E+002
3	0	1.057093411901078E+003	2.6277727E-001	-2.7035205E+002
3	0	1.057593411888447E+003	2.6231784E-001	-2.7038385E+002
3	0	1.058093411875816E+003	2.6190528E-001	-2.7036972E+002
3	0	1.058593411863185E+003	2.6149371E-001	-2.7035913E+002
3	0	1.059093411850554E+003	2.6108721E-001	-2.7037326E+002
3	0	1.059593411837923E+003	2.6067933E-001	-2.7038742E+002
3	0	1.060093411825292E+003	2.6027220E-001	-2.7038742E+002
3	0	1.060593411812661E+003	2.5986794E-001	-2.7034851E+002
3	0	1.061093411800030E+003	2.5944677E-001	-2.7038742E+002
3	0	1.061593411787399E+003	2.5903001E-001	-2.7036972E+002
3	0	1.062093411774767E+003	2.5865072E-001	-2.7039801E+002
3	0	1.062593411762136E+003	2.5827521E-001	-2.7037326E+002
3	0	1.063093411749505E+003	2.5790352E-001	-2.7039447E+002
3	0	1.063593411736874E+003	2.5753051E-001	-2.7036972E+002
3	0	1.064093411724243E+003	2.5716412E-001	-2.7038031E+002
3	0	1.064593411711612E+003	2.5678694E-001	-2.7036972E+002
3	0	1.065093411698981E+003	2.5639963E-001	-2.7039093E+002
3	0	1.065593411686350E+003	2.5601152E-001	-2.7035913E+002
3	0	1.066093411673719E+003	2.5566483E-001	-2.7036618E+002
3	0	1.066593411661088E+003	2.5532839E-001	-2.7038031E+002
3	0	1.067093411648457E+003	2.5498727E-001	-2.7036972E+002
3	0	1.067593411635826E+003	2.5464717E-001	-2.7039093E+002
3	0	1.068093411623195E+003	2.5431675E-001	-2.7039093E+002
3	0	1.068593411610564E+003	2.5397870E-001	-2.7036618E+002
3	0	1.069093411597933E+003	2.5362211E-001	-2.7038742E+002
3	0	1.069593411585302E+003	2.5326368E-001	-2.7039801E+002
3	0	1.070093411572670E+003	2.5295877E-001	-2.7036972E+002
3	0	1.070593411560039E+003	2.5263512E-001	-2.7034497E+002
3	0	1.071093411547408E+003	2.5232241E-001	-2.7039093E+002
3	0	1.071593411534777E+003	2.5201300E-001	-2.7035913E+002
3	0	1.072093411522146E+003	2.5170827E-001	-2.7037677E+002
3	0	1.072593411509515E+003	2.5139090E-001	-2.7038385E+002
3	0	1.073093411496884E+003	2.5106454E-001	-2.7038385E+002
3	0	1.073593411484253E+003	2.5073326E-001	-2.7038742E+002
3	0	1.074093411471622E+003	2.5044495E-001	-2.7037677E+002
3	0	1.074593411458991E+003	2.5015336E-001	-2.7038742E+002
3	0	1.075093411446360E+003	2.4986690E-001	-2.7039447E+002
3	0	1.075593411433729E+003	2.4958578E-001	-2.7039447E+002
3	0	1.076093411421098E+003	2.4930947E-001	-2.7038742E+002
3	0	1.076593411408467E+003	2.4901803E-001	-2.7037677E+002
3	0	1.077093411395836E+003	2.4870831E-001	-2.7036267E+002
3	0	1.077593411383205E+003	2.4840140E-001	-2.7036618E+002
3	0	1.078093411370573E+003	2.4813907E-001	-2.7035205E+002
3	0	1.078593411357942E+003	2.4788345E-001	-2.7035913E+002
3	0	1.079093411345311E+003	2.4762391E-001	-2.7036618E+002
3	0	1.079593411332680E+003	2.4736424E-001	-2.7038385E+002
3	0	1.080093411320049E+003	2.4710433E-001	-2.7039093E+002
3	0	1.080593411307418E+003	2.4683748E-001	-2.7038031E+002
3	0	1.081093411294787E+003	2.4654828E-001	-2.7037677E+002
3	0	1.081593411282156E+003	2.4626520E-001	-2.7035205E+002
3	0	1.082093411269525E+003	2.4602269E-001	-2.7036972E+002
3	0	1.082593411256894E+003	2.4578252E-001	-2.7038031E+002
3	0	1.083093411244263E+003	2.4554013E-001	-2.7040155E+002
3	0	1.083593411231632E+003	2.4530235E-001	-2.7037677E+002
3	0	1.084093411219001E+003	2.4506608E-001	-2.7039801E+002
3	0	1.084593411206370E+003	2.4482055E-001	-2.7038385E+002
3	0	1.085093411193739E+003	2.4456510E-001	-2.7040506E+002
3	0	1.085593411181108E+003	2.4430904E-001	-2.7038385E+002
3	0	1.086093411168476E+003	2.4408817E-001	-2.7040860E+002
3	0	1.086593411155845E+003	2.4386947E-001	-2.7037326E+002
3	0	1.087093411143214E+003	2.4365142E-001	-2.7037677E+002
3	0	1.087593411130583E+003	2.4343798E-001	-2.7036972E+002
3	0	1.088093411117952E+003	2.4323182E-001	-2.7039447E+002
3	0	1.088593411105321E+003	2.4301049E-001	-2.7038385E+002
3	0	1.089093411092690E+003	2.4277259E-001	-2.7035913E+002
3	0	1.089593411080059E+003	2.4253544E-001	-2.7036267E+002
3	0	1.090093411067428E+003	2.4233522E-001	-2.7036972E+002
3	0	1.090593411054797E+003	2.4213417E-001	-2.7037326E+002
3	0	1.091093411042166E+003	2.4194115E-001	-2.7035913E+002
3	0	1.091593411029535E+003	2.4174784E-001	-2.7039447E+002
3	0	1.092093411016904E+003	2.4155656E-001	-2.7039093E+002
3	0	1.092593411004273E+003	2.4135464E-001	-2.7035205E+002
3	0	1.093093410991642E+003	2.4112144E-001	-2.7036618E+002
3	0	1.093593410979011E+003	2.4090433E-001	-2.7039447E+002
3	0	1.094093410966379E+003	2.4072486E-001	-2.7038742E+002
3	0	1.094593410953748E+003	2.4054706E-001	-2.7039801E+002
3	0	1.095093410941117E+003	2.4036829E-001	-2.7040155E+002
3	0	1.095593410928486E+003	2.4019486E-001	-2.7040506E+002
3	0	1.096093410915855E+003	2.4001944E-001	-2.7037677E+002
3	0	1.096593410903224E+003	2.3983744E-001	-2.7036618E+002
3	0	1.097093410890593E+003	2.3962912E-001	-2.7036972E+002
3	0	1.097593410877962E+003	2.3942204E-001	-2.7035913E+002
3	0	1.098093410865331E+003	2.3925745E-001	-2.7037326E+002
3	0	1.098593410852700E+003	2.3909476E-001	-2.7036618E+002
3	0	1.099093410840069E+003	2.3892760E-001	-2.7038031E+002
3	0	1.099593410827438E+003	2.3876195E-001	-2.7039801E+002
3	0	1.100093410814807E+003	2.3859578E-001	-2.7036267E+002
3	0	1.100593410802176E+003	2.3842169E-001	-2.7035913E+002
3	0	1.101093410789545E+003	2.3822685E-001	-2.7037326E+002
3	0	1.101593410776914E+003	2.3803040E-001	-2.7038385E+002
3	0	1.102093410764282E+003	2.3787118E-001	-2.7039801E+002
3	0	1.102593410751651E+003	2.3772162E-001	-2.7036618E+002
3	0	1.103093410739020E+003	2.3756884E-001	-2.7038031E+002
3	0	1.103593410726389E+003	2.3741710E-001	-2.7038031E+002
3	0	1.104093410713758E+003	2.3725954E-001	-2.7039447E+002
3	0	1.104593410701127E+003	2.3710662E-001	-2.7038031E+002
3	0	1.105093410688496E+003	2.3692270E-001	-2.7038031E+002
3	0	1.105593410675865E+003	2.3674308E-001	-2.7039801E+002
3	0	1.106093410663234E+003	2.3660529E-001	-2.7035559E+002
3	0	1.106593410650603E+003	2.3646869E-001	-2.7036618E+002
3	0	1.107093410637972E+003	2.3633446E-001	-2.7038385E+002
3	0	1.107593410625341E+003	2.3619515E-001	-2.7037326E+002
3	0	1.108093410612710E+003	2.3605619E-001	-2.7038742E+002
3	0	1.108593410600079E+003	2.3591329E-001	-2.7035913E+002
3	0	1.109093410587448E+003	2.3574930E-001	-2.7037677E+002
3	0	1.109593410574817E+003	2.3558734E-001	-2.7038031E+002
3	0	1.110093410562185E+003	2.3546566E-001	-2.7037677E+002
3	0	1.110593410549554E+003	2.3534454E-001	-2.7039447E+002
3	0	1.111093410536923E+003	2.3521912E-001	-2.7037677E+002
3	0	1.111593410524292E+003	2.3509540E-001	-2.7039093E+002
3	0	1.112093410511661E+003	2.3496017E-001	-2.7037326E+002
3	0	1.112593410499030E+003	2.3482625E-001	-2.7037326E+002
3	0	1.113093410486399E+003	2.3466927E-001	-2.7036618E+002
3	0	1.113593410473768E+003	2.3451446E-001	-2.7036972E+002
3	0	1.114093410461137E+003	2.3440225E-001	-2.7036618E+002
3	0	1.114593410448506E+003	2.3428744E-001	-2.7036972E+002
3	0	1.115093410435875E+003	2.3417215E-001	-2.7038742E+002
3	0	1.115593410423244E+003	2.3405680E-001	-2.7038385E+002
3	0	1.115593810423234E+003	2.3401411E-001	-2.7037677E+002