EC-Lab ASCII FILE
Nb header lines : 55                          

Open Circuit Voltage

Run on channel : 1 (SN 81504)
User : 
CE vs. WE compliance from -10 V to 10 V
Electrode connection : standard
Potential control : Ewe
Ewe ctrl range : min = -2.50 V, max = 2.50 V
Safety Limits :
	Do not start on E overload
Acquisition started on : 05/07/2026 14:29:10.843
Loaded Setting File :  C:\PEM-WE_measurements\2026\372_IV_IV IrOx, 5 min Pt, 30 min C, etched cathode\new station\Loopeis new\1,46 V different time gaps open cell\Loopeis 1,46V_30s_3_PEIS from 6500Hz to 1000Hz.mps
Saved on :
	File : L_03_Loopeis 1,46V_30s_3_PEIS from 6500Hz to 1000Hz_16_OCV_C01.mpr
	Directory : C:\PEM-WE_measurements\2026\372_IV_IV IrOx, 5 min Pt, 30 min C, etched cathode\new station\Loopeis new\1,46 V different time gaps open cell\
	Host : 192.168.0.2
Device : SP-150e (SN .005491)
Address : 192.168.0.91
EC-LAB for windows v11.71 (software)
Internet server v28.00 (firmware)
Command interpretor v14.01 (firmware)
Electrode material : 
Initial state : 
Electrolyte : 
Comments : 
Current amplifier : SP-150eB-20A
Electrode surface area : 0.001 cm²
Characteristic mass : 0.001 g
Equivalent Weight : 0.000 g/eq.
Density : 0.000 g/cm3
Volume (V) : 0.001 cm³
Record Analogic IN 1
Text export
   Mode : Standard
   Time format : Elapsed
Cycle Definition : Charge/Discharge alternance
External device configuration :
   device type : Temperature Probe
   device name : Other
   Analog IN 1 : 
      unit : T/Â°C
      max : 100.000 at 2.000 V
      min : 0.000 at 1.460 V
tR (h:m:s)          0:00:30.0000        
dER/dt (mV/h)       1.0                 
record              <Ewe>               
dER (mV)            10.00               
dtR (s)             0.5000              
E range min (V)     -2.500              
E range max (V)     2.500               

mode	error	time/s	<Ewe/V>	Analog IN 1/V	
3	0	5.750247989009222E+002	1.0297875E+000	-2.7036618E+002
3	0	5.755247988882911E+002	1.2034118E+000	-2.7038742E+002
3	0	5.760247988756601E+002	1.1273822E+000	-2.7038385E+002
3	0	5.765247988630290E+002	8.7354821E-001	-2.7038031E+002
3	0	5.770247988503979E+002	4.3442839E-001	-2.7035559E+002
3	0	5.775247988377669E+002	3.2222748E-001	-2.7035559E+002
3	0	5.780247988251358E+002	3.0999073E-001	-2.7038385E+002
3	0	5.785247988125047E+002	3.0295330E-001	-2.7038031E+002
3	0	5.790247987998737E+002	2.9702350E-001	-2.7039093E+002
3	0	5.795247987872426E+002	2.9239827E-001	-2.7038385E+002
3	0	5.800247987746116E+002	2.8884637E-001	-2.7039093E+002
3	0	5.805247987619805E+002	2.8607911E-001	-2.7038031E+002
3	0	5.810247987493494E+002	2.8386298E-001	-2.7040155E+002
3	0	5.815247987367184E+002	2.8202584E-001	-2.7038742E+002
3	0	5.820247987240873E+002	2.8048447E-001	-2.7039447E+002
3	0	5.825247987114562E+002	2.7919528E-001	-2.7041214E+002
3	0	5.830247986988252E+002	2.7807319E-001	-2.7039801E+002
3	0	5.835247986861941E+002	2.7708128E-001	-2.7040506E+002
3	0	5.840247986735631E+002	2.7617511E-001	-2.7037677E+002
3	0	5.845247986609320E+002	2.7534020E-001	-2.7038385E+002
3	0	5.850247986483009E+002	2.7456984E-001	-2.7038742E+002
3	0	5.855247986356699E+002	2.7381900E-001	-2.7039447E+002
3	0	5.860247986230388E+002	2.7309892E-001	-2.7039093E+002
3	0	5.865247986104077E+002	2.7245244E-001	-2.7037677E+002
3	0	5.870247985977767E+002	2.7184609E-001	-2.7036618E+002
3	0	5.875247985851456E+002	2.7125624E-001	-2.7037677E+002
3	0	5.880247985725146E+002	2.7068651E-001	-2.7037677E+002
3	0	5.885247985598835E+002	2.7012515E-001	-2.7036618E+002
3	0	5.890247985472524E+002	2.6956293E-001	-2.7037326E+002
3	0	5.895247985346214E+002	2.6899102E-001	-2.7038742E+002
3	0	5.900247985219903E+002	2.6841927E-001	-2.7037326E+002
3	0	5.905247985093592E+002	2.6789582E-001	-2.7038031E+002
3	0	5.910247984967282E+002	2.6738685E-001	-2.7037677E+002
3	0	5.915247984840971E+002	2.6688138E-001	-2.7038385E+002
3	0	5.920247984714661E+002	2.6637971E-001	-2.7039447E+002
3	0	5.925247984588350E+002	2.6588595E-001	-2.7038385E+002
3	0	5.930247984462039E+002	2.6538503E-001	-2.7039447E+002
3	0	5.935247984335729E+002	2.6487142E-001	-2.7037677E+002
3	0	5.940247984209418E+002	2.6435634E-001	-2.7036618E+002
3	0	5.945247984083107E+002	2.6388127E-001	-2.7039093E+002
3	0	5.950247983956797E+002	2.6341417E-001	-2.7039093E+002
3	0	5.955247983830486E+002	2.6294494E-001	-2.7038385E+002
3	0	5.960247983704176E+002	2.6247689E-001	-2.7037677E+002
3	0	5.965247983577865E+002	2.6200932E-001	-2.7039447E+002
3	0	5.970247983451554E+002	2.6153266E-001	-2.7035913E+002
3	0	5.975247983325244E+002	2.6104385E-001	-2.7037677E+002
3	0	5.980247983198933E+002	2.6054978E-001	-2.7038385E+002
3	0	5.985247983072622E+002	2.6009426E-001	-2.7036972E+002
3	0	5.990247982946312E+002	2.5965926E-001	-2.7036972E+002
3	0	5.995247982820001E+002	2.5922230E-001	-2.7038742E+002
3	0	6.000247982693691E+002	2.5878230E-001	-2.7037326E+002
3	0	6.005247982567380E+002	2.5834072E-001	-2.7037677E+002
3	0	6.010247982441069E+002	2.5789168E-001	-2.7037677E+002
3	0	6.015247982314759E+002	2.5742713E-001	-2.7038031E+002
3	0	6.020247982188448E+002	2.5696653E-001	-2.7039447E+002
3	0	6.025247982062137E+002	2.5654224E-001	-2.7036267E+002
3	0	6.030247981935827E+002	2.5613296E-001	-2.7036618E+002
3	0	6.035247981809516E+002	2.5571418E-001	-2.7040506E+002
3	0	6.040247981683206E+002	2.5530380E-001	-2.7036972E+002
3	0	6.045247981556895E+002	2.5489131E-001	-2.7038742E+002
3	0	6.045493981550680E+002	2.5467762E-001	-2.7039447E+002