EC-Lab ASCII FILE
Nb header lines : 55                          

Open Circuit Voltage

Run on channel : 1 (SN 81504)
User : 
CE vs. WE compliance from -10 V to 10 V
Electrode connection : standard
Potential control : Ewe
Ewe ctrl range : min = -2.50 V, max = 2.50 V
Safety Limits :
	Do not start on E overload
Acquisition started on : 05/07/2026 14:54:34.266
Loaded Setting File :  C:\PEM-WE_measurements\2026\372_IV_IV IrOx, 5 min Pt, 30 min C, etched cathode\new station\Loopeis new\1,46 V different time gaps open cell\Loopeis 1,46V_30s_5_PEIS from 65Hz to 10Hz.mps
Saved on :
	File : L_05_Loopeis 1,46V_30s_5_PEIS from 65Hz to 10Hz_12_OCV_C01.mpr
	Directory : C:\PEM-WE_measurements\2026\372_IV_IV IrOx, 5 min Pt, 30 min C, etched cathode\new station\Loopeis new\1,46 V different time gaps open cell\
	Host : 192.168.0.2
Device : SP-150e (SN .005491)
Address : 192.168.0.91
EC-LAB for windows v11.71 (software)
Internet server v28.00 (firmware)
Command interpretor v14.01 (firmware)
Electrode material : 
Initial state : 
Electrolyte : 
Comments : 
Current amplifier : SP-150eB-20A
Electrode surface area : 0.001 cm²
Characteristic mass : 0.001 g
Equivalent Weight : 0.000 g/eq.
Density : 0.000 g/cm3
Volume (V) : 0.001 cm³
Record Analogic IN 1
Text export
   Mode : Standard
   Time format : Elapsed
Cycle Definition : Charge/Discharge alternance
External device configuration :
   device type : Temperature Probe
   device name : Other
   Analog IN 1 : 
      unit : T/Â°C
      max : 100.000 at 2.000 V
      min : 0.000 at 1.460 V
tR (h:m:s)          0:00:30.0000        
dER/dt (mV/h)       1.0                 
record              <Ewe>               
dER (mV)            10.00               
dtR (s)             0.5000              
E range min (V)     -2.500              
E range max (V)     2.500               

mode	error	time/s	<Ewe/V>	Analog IN 1/V	
3	0	8.741200207470683E+002	1.2768203E+000	-2.7037677E+002
3	0	8.746200207344373E+002	1.2724760E+000	-2.7036972E+002
3	0	8.751200207218062E+002	1.2358127E+000	-2.7039093E+002
3	0	8.756200207091752E+002	1.1603975E+000	-2.7036972E+002
3	0	8.761200206965441E+002	9.1439331E-001	-2.7037326E+002
3	0	8.766200206839130E+002	4.6911341E-001	-2.7038385E+002
3	0	8.771200206712820E+002	3.5570270E-001	-2.7035205E+002
3	0	8.776200206586509E+002	3.4021497E-001	-2.7035913E+002
3	0	8.781200206460198E+002	3.3140755E-001	-2.7036972E+002
3	0	8.786200206333888E+002	3.2450601E-001	-2.7038742E+002
3	0	8.791200206207577E+002	3.1934506E-001	-2.7036972E+002
3	0	8.796200206081267E+002	3.1543648E-001	-2.7040506E+002
3	0	8.801200205954956E+002	3.1241691E-001	-2.7038031E+002
3	0	8.806200205828645E+002	3.0999473E-001	-2.7034851E+002
3	0	8.811200205702335E+002	3.0800959E-001	-2.7038385E+002
3	0	8.816200205576024E+002	3.0631480E-001	-2.7037677E+002
3	0	8.821200205449713E+002	3.0484161E-001	-2.7038385E+002
3	0	8.826200205323403E+002	3.0356079E-001	-2.7037677E+002
3	0	8.831200205197092E+002	3.0243975E-001	-2.7037326E+002
3	0	8.836200205070782E+002	3.0141249E-001	-2.7038031E+002
3	0	8.841200204944471E+002	3.0048531E-001	-2.7039093E+002
3	0	8.846200204818160E+002	2.9962876E-001	-2.7039093E+002
3	0	8.851200204691850E+002	2.9881334E-001	-2.7038742E+002
3	0	8.856200204565539E+002	2.9802933E-001	-2.7038742E+002
3	0	8.861200204439228E+002	2.9726452E-001	-2.7039093E+002
3	0	8.866200204312918E+002	2.9653421E-001	-2.7040506E+002
3	0	8.871200204186607E+002	2.9586720E-001	-2.7036618E+002
3	0	8.876200204060297E+002	2.9521224E-001	-2.7035913E+002
3	0	8.881200203933986E+002	2.9458383E-001	-2.7038385E+002
3	0	8.886200203807675E+002	2.9396895E-001	-2.7040506E+002
3	0	8.891200203681365E+002	2.9336673E-001	-2.7036972E+002
3	0	8.896200203555054E+002	2.9276529E-001	-2.7036618E+002
3	0	8.901200203428743E+002	2.9213509E-001	-2.7036972E+002
3	0	8.906200203302433E+002	2.9153669E-001	-2.7037326E+002
3	0	8.911200203176122E+002	2.9096764E-001	-2.7035913E+002
3	0	8.916200203049812E+002	2.9040432E-001	-2.7037326E+002
3	0	8.921200202923501E+002	2.8985459E-001	-2.7036972E+002
3	0	8.926200202797190E+002	2.8930542E-001	-2.7041568E+002
3	0	8.931200202670880E+002	2.8876573E-001	-2.7036618E+002
3	0	8.936200202544569E+002	2.8821537E-001	-2.7036618E+002
3	0	8.941200202418258E+002	2.8765565E-001	-2.7038742E+002
3	0	8.946200202291948E+002	2.8711292E-001	-2.7038742E+002
3	0	8.951200202165637E+002	2.8660265E-001	-2.7038031E+002
3	0	8.956200202039327E+002	2.8608778E-001	-2.7036972E+002
3	0	8.961200201913016E+002	2.8557605E-001	-2.7036972E+002
3	0	8.966200201786705E+002	2.8507462E-001	-2.7035559E+002
3	0	8.971200201660395E+002	2.8457525E-001	-2.7039093E+002
3	0	8.976200201534084E+002	2.8406864E-001	-2.7038031E+002
3	0	8.981200201407773E+002	2.8354105E-001	-2.7036267E+002
3	0	8.986200201281463E+002	2.8302854E-001	-2.7035205E+002
3	0	8.991200201155152E+002	2.8255439E-001	-2.7038031E+002
3	0	8.996200201028842E+002	2.8207973E-001	-2.7035559E+002
3	0	9.001200200902531E+002	2.8161195E-001	-2.7038031E+002
3	0	9.006200200776220E+002	2.8114626E-001	-2.7036267E+002
3	0	9.011200200649910E+002	2.8069171E-001	-2.7038031E+002
3	0	9.016200200523599E+002	2.8022665E-001	-2.7036618E+002
3	0	9.021200200397288E+002	2.7973729E-001	-2.7039093E+002
3	0	9.026200200270978E+002	2.7925888E-001	-2.7037677E+002
3	0	9.031200200144667E+002	2.7882043E-001	-2.7038385E+002
3	0	9.036200200018357E+002	2.7837113E-001	-2.7038031E+002
3	0	9.036446200012142E+002	2.7812725E-001	-2.7040155E+002