EC-Lab ASCII FILE
Nb header lines : 48                          

Open Circuit Voltage

Run on channel : 1 (SN 81504)
User : 
CE vs. WE compliance from -10 V to 10 V
Electrode connection : standard
Potential control : Ewe
Ewe ctrl range : min = -2.50 V, max = 2.50 V
Safety Limits :
	Do not start on E overload
Acquisition started on : 05/10/2026 02:09:52.585
Loaded Setting File :  C:\PEM-WE_measurements\2026\372_IV_IV IrOx, 5 min Pt, 30 min C, etched cathode\new station\Loopeis new\1,46 V different time gaps closed cell\Loopeis 1,46V_60s_2_PEIS from 65kHz to 10kHz.mps
Saved on :
	File : L_12_Loopeis 1,46V_60s_2_PEIS from 65kHz to 10kHz_06_OCV_C01.mpr
	Directory : C:\PEM-WE_measurements\2026\372_IV_IV IrOx, 5 min Pt, 30 min C, etched cathode\new station\Loopeis new\1,46 V different time gaps closed cell\
	Host : 192.168.0.2
Device : SP-150e (SN .005491)
Address : 192.168.0.91
EC-LAB for windows v11.71 (software)
Internet server v28.00 (firmware)
Command interpretor v14.01 (firmware)
Electrode material : 
Initial state : 
Electrolyte : 
Comments : 
Current amplifier : SP-150eB-20A
Electrode surface area : 0.001 cm²
Characteristic mass : 0.001 g
Equivalent Weight : 0.000 g/eq.
Density : 0.000 g/cm3
Volume (V) : 0.001 cm³
Record Analogic IN 1
Text export
   Mode : Standard
   Time format : Elapsed
Cycle Definition : Charge/Discharge alternance
tR (h:m:s)          0:01:0.0000         
dER/dt (mV/h)       1.0                 
record              <Ewe>               
dER (mV)            10.00               
dtR (s)             0.5000              
E range min (V)     -2.500              
E range max (V)     2.500               

mode	error	time/s	<Ewe/V>	Analog IN 1/V	
3	0	2.561005968481186E+002	1.4173505E+000	3.8648941E-006
3	0	2.566005968354875E+002	1.4087348E+000	9.9292607E-005
3	0	2.571005968228565E+002	1.4029609E+000	3.8648941E-006
3	0	2.576005968102254E+002	1.3987216E+000	-1.8699054E-004
3	0	2.581005967975943E+002	1.3952656E+000	-3.4306191E-005
3	0	2.586005967849633E+002	1.3922834E+000	2.2950437E-005
3	0	2.591005967723322E+002	1.3897623E+000	1.1837815E-004
3	0	2.596005967597011E+002	1.3875569E+000	-7.2477276E-005
3	0	2.601005967470701E+002	1.3855731E+000	-5.3391734E-005
3	0	2.606005967344390E+002	1.3837801E+000	3.8648941E-006
3	0	2.611005967218080E+002	1.3821366E+000	-1.2973390E-004
3	0	2.616005967091769E+002	1.3805848E+000	-1.5220648E-005
3	0	2.621005966965458E+002	1.3790741E+000	6.1121522E-005
3	0	2.626005966839148E+002	1.3775935E+000	-9.1562819E-005
3	0	2.631005966712837E+002	1.3762867E+000	-1.5220648E-005
3	0	2.636005966586526E+002	1.3750650E+000	-5.3391734E-005
3	0	2.641005966460216E+002	1.3739222E+000	-9.1562819E-005
3	0	2.646005966333905E+002	1.3728449E+000	-1.5220648E-005
3	0	2.651005966207595E+002	1.3718303E+000	4.2035979E-005
3	0	2.656005966081284E+002	1.3708422E+000	-1.5220648E-005
3	0	2.661005965954973E+002	1.3698432E+000	-1.5220648E-005
3	0	2.666005965828663E+002	1.3688180E+000	-9.1562819E-005
3	0	2.671005965702352E+002	1.3679361E+000	8.0207064E-005
3	0	2.676005965576041E+002	1.3670951E+000	-3.4306191E-005
3	0	2.681005965449731E+002	1.3662990E+000	-5.3391734E-005
3	0	2.686005965323420E+002	1.3655525E+000	-3.4306191E-005
3	0	2.691005965197110E+002	1.3648614E+000	-5.3391734E-005
3	0	2.696005965070799E+002	1.3641732E+000	-1.1064836E-004
3	0	2.701005964944488E+002	1.3634511E+000	-1.8699054E-004
3	0	2.706005964818178E+002	1.3627132E+000	6.1121522E-005
3	0	2.711005964691867E+002	1.3620973E+000	4.2035979E-005
3	0	2.716005964565557E+002	1.3615243E+000	-3.4306191E-005
3	0	2.721005964439246E+002	1.3609868E+000	-1.2973390E-004
3	0	2.726005964312935E+002	1.3604783E+000	8.0207064E-005
3	0	2.731005964186625E+002	1.3600022E+000	-1.5220648E-005
3	0	2.736005964060314E+002	1.3595204E+000	2.2950437E-005
3	0	2.741005963934003E+002	1.3589749E+000	-7.2477276E-005
3	0	2.746005963807693E+002	1.3584032E+000	-1.4881945E-004
3	0	2.751005963681382E+002	1.3579376E+000	-1.1064836E-004
3	0	2.756005963555072E+002	1.3574947E+000	4.2035979E-005
3	0	2.761005963428761E+002	1.3570702E+000	-1.2973390E-004
3	0	2.766005963302450E+002	1.3566587E+000	-1.2973390E-004
3	0	2.771005963176140E+002	1.3562635E+000	-5.3391734E-005
3	0	2.776005963049829E+002	1.3558599E+000	-1.4881945E-004
3	0	2.781005962923518E+002	1.3553913E+000	-3.4306191E-005
3	0	2.786005962797208E+002	1.3548661E+000	8.0207064E-005
3	0	2.791005962670897E+002	1.3544371E+000	2.2950437E-005
3	0	2.796005962544587E+002	1.3540312E+000	8.0207064E-005
3	0	2.801005962418276E+002	1.3536257E+000	9.9292607E-005
3	0	2.806005962291965E+002	1.3532411E+000	-1.5220648E-005
3	0	2.811005962165655E+002	1.3528483E+000	3.8648941E-006
3	0	2.816005962039344E+002	1.3524492E+000	-3.4306191E-005
3	0	2.821005961913033E+002	1.3519895E+000	-2.0607607E-004
3	0	2.826005961786723E+002	1.3514851E+000	-5.3391734E-005
3	0	2.831005961660412E+002	1.3510702E+000	-1.5220648E-005
3	0	2.836005961534102E+002	1.3506892E+000	-3.4306191E-005
3	0	2.841005961407791E+002	1.3503120E+000	4.2035979E-005
3	0	2.846005961281480E+002	1.3499475E+000	-1.8699054E-004
3	0	2.851005961155170E+002	1.3495858E+000	-5.3391734E-005
3	0	2.856005961028859E+002	1.3491958E+000	-1.2973390E-004
3	0	2.861005960902548E+002	1.3487381E+000	-7.2477276E-005
3	0	2.866005960776238E+002	1.3482332E+000	3.8648941E-006
3	0	2.871005960649927E+002	1.3478186E+000	-1.6790499E-004
3	0	2.876005960523617E+002	1.3474314E+000	9.9292607E-005
3	0	2.881005960397306E+002	1.3470621E+000	3.8648941E-006
3	0	2.886005960270995E+002	1.3467007E+000	-1.8699054E-004
3	0	2.891005960144685E+002	1.3463553E+000	-7.2477276E-005
3	0	2.896005960018374E+002	1.3460027E+000	-7.2477276E-005
3	0	2.901005959892063E+002	1.3455986E+000	-5.3391734E-005
3	0	2.906005959765753E+002	1.3451518E+000	6.1121522E-005
3	0	2.911005959639442E+002	1.3447990E+000	-2.2516162E-004
3	0	2.916005959513132E+002	1.3444749E+000	-1.5220648E-005
3	0	2.921005959386821E+002	1.3441616E+000	2.2950437E-005
3	0	2.926005959260510E+002	1.3438588E+000	3.8648941E-006
3	0	2.931005959134200E+002	1.3435545E+000	-3.4306191E-005
3	0	2.936005959007889E+002	1.3432351E+000	-9.1562819E-005
3	0	2.941005958881578E+002	1.3428553E+000	-1.2973390E-004
3	0	2.946005958755268E+002	1.3424281E+000	-1.4881945E-004
3	0	2.951005958628957E+002	1.3420976E+000	-5.3391734E-005
3	0	2.956005958502647E+002	1.3417797E+000	-7.2477276E-005
3	0	2.961005958376336E+002	1.3414661E+000	-3.4306191E-005
3	0	2.966005958250025E+002	1.3411598E+000	-1.5220648E-005
3	0	2.971005958123715E+002	1.3408579E+000	1.1837815E-004
3	0	2.976005957997404E+002	1.3405224E+000	-5.3391734E-005
3	0	2.981005957871093E+002	1.3401209E+000	-5.3391734E-005
3	0	2.986005957744783E+002	1.3396747E+000	-1.1064836E-004
3	0	2.991005957618472E+002	1.3393244E+000	2.2950437E-005
3	0	2.996005957492162E+002	1.3389823E+000	-7.2477276E-005
3	0	3.001005957365851E+002	1.3386390E+000	2.2950437E-005
3	0	3.006005957239540E+002	1.3383064E+000	-1.8699054E-004
3	0	3.011005957113230E+002	1.3379668E+000	-7.2477276E-005
3	0	3.016005956986919E+002	1.3376180E+000	-1.5220648E-005
3	0	3.021005956860608E+002	1.3371942E+000	-3.4306191E-005
3	0	3.026005956734298E+002	1.3367205E+000	-7.2477276E-005
3	0	3.031005956607987E+002	1.3363427E+000	-3.4306191E-005
3	0	3.036005956481677E+002	1.3359778E+000	3.8648941E-006
3	0	3.041005956355366E+002	1.3356240E+000	-1.4881945E-004
3	0	3.046005956229055E+002	1.3352705E+000	-1.8699054E-004
3	0	3.051005956102745E+002	1.3349105E+000	3.8648941E-006
3	0	3.056005955976434E+002	1.3345292E+000	-1.5220648E-005
3	0	3.061005955850123E+002	1.3340873E+000	-1.2973390E-004
3	0	3.066005955723813E+002	1.3335936E+000	3.8648941E-006
3	0	3.071005955597502E+002	1.3331943E+000	-9.1562819E-005
3	0	3.076005955471192E+002	1.3328180E+000	-5.3391734E-005
3	0	3.081005955344881E+002	1.3324467E+000	-3.4306191E-005
3	0	3.086005955218570E+002	1.3320895E+000	-3.4306191E-005
3	0	3.091005955092260E+002	1.3317457E+000	-7.2477276E-005
3	0	3.096005954965949E+002	1.3313920E+000	-3.4306191E-005
3	0	3.101005954839638E+002	1.3309810E+000	-5.3391734E-005
3	0	3.106005954713328E+002	1.3305367E+000	2.2950437E-005
3	0	3.111005954587017E+002	1.3301795E+000	-1.5220648E-005
3	0	3.116005954460707E+002	1.3298413E+000	4.2035979E-005
3	0	3.121005954334396E+002	1.3295232E+000	-1.6790499E-004
3	0	3.126005954208085E+002	1.3292154E+000	-1.1064836E-004
3	0	3.131005954081775E+002	1.3289063E+000	3.8648941E-006
3	0	3.136005953955464E+002	1.3285841E+000	8.0207064E-005
3	0	3.141005953829153E+002	1.3281952E+000	8.0207064E-005
3	0	3.146005953702843E+002	1.3277649E+000	-5.3391734E-005
3	0	3.151005953576532E+002	1.3274206E+000	3.8648941E-006
3	0	3.156005953450222E+002	1.3270882E+000	4.2035979E-005
3	0	3.156009953450121E+002	1.3269523E+000	-1.6790499E-004