EC-Lab ASCII FILE
Nb header lines : 55                          

Open Circuit Voltage

Run on channel : 1 (SN 81504)
User : 
CE vs. WE compliance from -10 V to 10 V
Electrode connection : standard
Potential control : Ewe
Ewe ctrl range : min = -2.50 V, max = 2.50 V
Safety Limits :
	Do not start on E overload
Acquisition started on : 05/10/2026 04:16:10.113
Loaded Setting File :  C:\PEM-WE_measurements\2026\372_IV_IV IrOx, 5 min Pt, 30 min C, etched cathode\new station\Loopeis new\1,46 V different time gaps closed cell\Loopeis 1,46V_90s_3_PEIS from 6500Hz to 1000Hz.mps
Saved on :
	File : L_18_Loopeis 1,46V_90s_3_PEIS from 6500Hz to 1000Hz_18_OCV_C01.mpr
	Directory : C:\PEM-WE_measurements\2026\372_IV_IV IrOx, 5 min Pt, 30 min C, etched cathode\new station\Loopeis new\1,46 V different time gaps closed cell\
	Host : 192.168.0.2
Device : SP-150e (SN .005491)
Address : 192.168.0.91
EC-LAB for windows v11.71 (software)
Internet server v28.00 (firmware)
Command interpretor v14.01 (firmware)
Electrode material : 
Initial state : 
Electrolyte : 
Comments : 
Current amplifier : SP-150eB-20A
Electrode surface area : 0.001 cm²
Characteristic mass : 0.001 g
Equivalent Weight : 0.000 g/eq.
Density : 0.000 g/cm3
Volume (V) : 0.001 cm³
Record Analogic IN 1
Text export
   Mode : Standard
   Time format : Elapsed
Cycle Definition : Charge/Discharge alternance
External device configuration :
   device type : Temperature Probe
   device name : Other
   Analog IN 1 : 
      unit : T/Â°C
      max : 100.000 at 2.000 V
      min : 0.000 at 1.460 V
tR (h:m:s)          0:01:30.0000        
dER/dt (mV/h)       1.0                 
record              <Ewe>               
dER (mV)            10.00               
dtR (s)             0.5000              
E range min (V)     -2.500              
E range max (V)     2.500               

mode	error	time/s	<Ewe/V>	Analog IN 1/V	
3	0	1.129852984870449E+003	1.2848544E+000	-2.7036972E+002
3	0	1.130352984857818E+003	1.2916228E+000	-2.7036618E+002
3	0	1.130852984845187E+003	1.2925837E+000	-2.7038742E+002
3	0	1.131352984832556E+003	1.2921546E+000	-2.7037326E+002
3	0	1.131852984819925E+003	1.2910147E+000	-2.7037677E+002
3	0	1.132352984807294E+003	1.2891990E+000	-2.7037326E+002
3	0	1.132852984794663E+003	1.2865682E+000	-2.7038031E+002
3	0	1.133352984782032E+003	1.2826678E+000	-2.7037326E+002
3	0	1.133852984769401E+003	1.2766011E+000	-2.7038031E+002
3	0	1.134352984756770E+003	1.2668264E+000	-2.7036972E+002
3	0	1.134852984744139E+003	1.2514379E+000	-2.7038031E+002
3	0	1.135352984731508E+003	1.2278343E+000	-2.7040506E+002
3	0	1.135852984718877E+003	1.1910018E+000	-2.7038031E+002
3	0	1.136352984706245E+003	1.1274450E+000	-2.7035205E+002
3	0	1.136852984693614E+003	1.0028789E+000	-2.7037326E+002
3	0	1.137352984680983E+003	7.7892339E-001	-2.7038742E+002
3	0	1.137852984668352E+003	6.3432300E-001	-2.7035559E+002
3	0	1.138352984655721E+003	5.9585005E-001	-2.7036972E+002
3	0	1.138852984643090E+003	5.8140683E-001	-2.7034143E+002
3	0	1.139352984630459E+003	5.7560009E-001	-2.7040155E+002
3	0	1.139852984617828E+003	5.7524210E-001	-2.7038031E+002
3	0	1.140352984605197E+003	5.7710916E-001	-2.7037677E+002
3	0	1.140852984592566E+003	5.7953000E-001	-2.7036618E+002
3	0	1.141352984579935E+003	5.8228314E-001	-2.7036267E+002
3	0	1.141852984567304E+003	5.8502126E-001	-2.7038742E+002
3	0	1.142352984554673E+003	5.8754367E-001	-2.7037326E+002
3	0	1.142852984542042E+003	5.8936805E-001	-2.7038385E+002
3	0	1.143352984529411E+003	5.9075135E-001	-2.7038031E+002
3	0	1.143852984516780E+003	5.9334052E-001	-2.7035913E+002
3	0	1.144352984504148E+003	5.9632850E-001	-2.7037677E+002
3	0	1.144852984491517E+003	5.9919250E-001	-2.7038742E+002
3	0	1.145352984478886E+003	6.0210657E-001	-2.7037326E+002
3	0	1.145852984466255E+003	6.0487503E-001	-2.7036972E+002
3	0	1.146352984453624E+003	6.0754979E-001	-2.7040155E+002
3	0	1.146852984440993E+003	6.0999602E-001	-2.7039093E+002
3	0	1.147352984428362E+003	6.1239558E-001	-2.7037677E+002
3	0	1.147852984415731E+003	6.1637217E-001	-2.7038742E+002
3	0	1.148352984403100E+003	6.2067181E-001	-2.7037326E+002
3	0	1.148852984390469E+003	6.2462968E-001	-2.7039093E+002
3	0	1.149352984377838E+003	6.2850398E-001	-2.7039447E+002
3	0	1.149852984365207E+003	6.3204324E-001	-2.7037326E+002
3	0	1.150352984352576E+003	6.3512903E-001	-2.7036267E+002
3	0	1.150852984339945E+003	6.3736224E-001	-2.7038742E+002
3	0	1.151352984327314E+003	6.3936561E-001	-2.7038031E+002
3	0	1.151852984314683E+003	6.4257723E-001	-2.7038385E+002
3	0	1.152352984302051E+003	6.4598155E-001	-2.7037677E+002
3	0	1.152852984289420E+003	6.4893067E-001	-2.7037677E+002
3	0	1.153352984276789E+003	6.5153438E-001	-2.7040155E+002
3	0	1.153852984264158E+003	6.5371239E-001	-2.7038385E+002
3	0	1.154352984251527E+003	6.5526122E-001	-2.7036267E+002
3	0	1.154852984238896E+003	6.5600884E-001	-2.7036267E+002
3	0	1.155352984226265E+003	6.5631497E-001	-2.7039093E+002
3	0	1.155852984213634E+003	6.5786892E-001	-2.7040860E+002
3	0	1.156352984201003E+003	6.5984452E-001	-2.7038742E+002
3	0	1.156852984188372E+003	6.6126800E-001	-2.7036972E+002
3	0	1.157352984175741E+003	6.6225564E-001	-2.7038385E+002
3	0	1.157852984163110E+003	6.6233146E-001	-2.7036972E+002
3	0	1.158352984150479E+003	6.6116738E-001	-2.7036972E+002
3	0	1.158852984137848E+003	6.6058218E-001	-2.7038031E+002
3	0	1.159352984125217E+003	6.5993410E-001	-2.7038385E+002
3	0	1.159852984112586E+003	6.6017938E-001	-2.7037326E+002
3	0	1.160352984099954E+003	6.6068298E-001	-2.7036267E+002
3	0	1.160852984087323E+003	6.6031700E-001	-2.7036972E+002
3	0	1.161352984074692E+003	6.5927219E-001	-2.7036972E+002
3	0	1.161852984062061E+003	6.5777928E-001	-2.7038742E+002
3	0	1.162352984049430E+003	6.5558201E-001	-2.7037677E+002
3	0	1.162852984036799E+003	6.5263700E-001	-2.7037677E+002
3	0	1.163352984024168E+003	6.4930969E-001	-2.7038742E+002
3	0	1.163852984011537E+003	6.4770269E-001	-2.7037677E+002
3	0	1.164352983998906E+003	6.4724070E-001	-2.7037677E+002
3	0	1.164852983986275E+003	6.4667720E-001	-2.7038742E+002
3	0	1.165352983973644E+003	6.4602840E-001	-2.7038385E+002
3	0	1.165852983961013E+003	6.4562565E-001	-2.7037677E+002
3	0	1.166352983948382E+003	6.4551926E-001	-2.7036618E+002
3	0	1.166852983935751E+003	6.4543313E-001	-2.7038385E+002
3	0	1.167352983923120E+003	6.4587766E-001	-2.7037677E+002
3	0	1.167852983910489E+003	6.4852035E-001	-2.7039447E+002
3	0	1.168352983897857E+003	6.5288711E-001	-2.7038031E+002
3	0	1.168852983885226E+003	6.5748239E-001	-2.7038031E+002
3	0	1.169352983872595E+003	6.6173422E-001	-2.7039093E+002
3	0	1.169852983859964E+003	6.6561520E-001	-2.7040506E+002
3	0	1.170352983847333E+003	6.6875154E-001	-2.7038031E+002
3	0	1.170852983834702E+003	6.7073083E-001	-2.7039447E+002
3	0	1.171352983822071E+003	6.7219663E-001	-2.7037677E+002
3	0	1.171852983809440E+003	6.7501593E-001	-2.7038031E+002
3	0	1.172352983796809E+003	6.7871106E-001	-2.7038385E+002
3	0	1.172852983784178E+003	6.8177283E-001	-2.7038742E+002
3	0	1.173352983771547E+003	6.8359631E-001	-2.7038031E+002
3	0	1.173852983758916E+003	6.8437421E-001	-2.7036618E+002
3	0	1.174352983746285E+003	6.8395317E-001	-2.7038031E+002
3	0	1.174852983733654E+003	6.8205839E-001	-2.7039801E+002
3	0	1.175352983721023E+003	6.7925763E-001	-2.7036618E+002
3	0	1.175852983708392E+003	6.7757463E-001	-2.7037677E+002
3	0	1.176352983695760E+003	6.7680526E-001	-2.7035913E+002
3	0	1.176852983683129E+003	6.7563033E-001	-2.7039801E+002
3	0	1.177352983670498E+003	6.7359143E-001	-2.7036618E+002
3	0	1.177852983657867E+003	6.7074955E-001	-2.7034851E+002
3	0	1.178352983645236E+003	6.6708976E-001	-2.7039801E+002
3	0	1.178852983632605E+003	6.6236055E-001	-2.7038031E+002
3	0	1.179352983619974E+003	6.5736634E-001	-2.7037677E+002
3	0	1.179852983607343E+003	6.5384215E-001	-2.7037677E+002
3	0	1.180352983594712E+003	6.5158588E-001	-2.7036972E+002
3	0	1.180852983582081E+003	6.4919239E-001	-2.7038385E+002
3	0	1.181352983569450E+003	6.4620543E-001	-2.7039093E+002
3	0	1.181852983556819E+003	6.4295059E-001	-2.7037677E+002
3	0	1.182352983544188E+003	6.3902521E-001	-2.7039447E+002
3	0	1.182852983531557E+003	6.3428384E-001	-2.7040155E+002
3	0	1.183352983518926E+003	6.2942708E-001	-2.7037677E+002
3	0	1.183852983506295E+003	6.2621218E-001	-2.7037677E+002
3	0	1.184352983493663E+003	6.2419164E-001	-2.7037326E+002
3	0	1.184852983481032E+003	6.2222338E-001	-2.7036267E+002
3	0	1.185352983468401E+003	6.2016439E-001	-2.7038385E+002
3	0	1.185852983455770E+003	6.1854261E-001	-2.7038031E+002
3	0	1.186352983443139E+003	6.1714691E-001	-2.7039093E+002
3	0	1.186852983430508E+003	6.1565357E-001	-2.7035913E+002
3	0	1.187352983417877E+003	6.1478180E-001	-2.7035559E+002
3	0	1.187852983405246E+003	6.1621797E-001	-2.7039093E+002
3	0	1.188352983392615E+003	6.1944032E-001	-2.7038385E+002
3	0	1.188852983379984E+003	6.2305975E-001	-2.7037677E+002
3	0	1.189352983367353E+003	6.2660384E-001	-2.7036972E+002
3	0	1.189852983354722E+003	6.3004333E-001	-2.7034497E+002
3	0	1.190352983342091E+003	6.3283169E-001	-2.7039447E+002
3	0	1.190852983329460E+003	6.3466156E-001	-2.7037677E+002
3	0	1.191352983316829E+003	6.3602918E-001	-2.7038742E+002
3	0	1.191852983304198E+003	6.3836163E-001	-2.7039447E+002
3	0	1.192352983291566E+003	6.4147824E-001	-2.7037677E+002
3	0	1.192852983278935E+003	6.4406031E-001	-2.7039093E+002
3	0	1.193352983266304E+003	6.4562976E-001	-2.7038031E+002
3	0	1.193852983253673E+003	6.4621800E-001	-2.7036618E+002
3	0	1.194352983241042E+003	6.4564729E-001	-2.7036618E+002
3	0	1.194852983228411E+003	6.4350837E-001	-2.7038031E+002
3	0	1.195352983215780E+003	6.4063162E-001	-2.7040155E+002
3	0	1.195852983203149E+003	6.3895059E-001	-2.7037326E+002
3	0	1.196352983190518E+003	6.3814390E-001	-2.7038031E+002
3	0	1.196852983177887E+003	6.3687950E-001	-2.7040506E+002
3	0	1.197352983165256E+003	6.3484585E-001	-2.7037677E+002
3	0	1.197852983152625E+003	6.3226175E-001	-2.7034851E+002
3	0	1.198352983139994E+003	6.2887526E-001	-2.7037677E+002
3	0	1.198852983127363E+003	6.2436897E-001	-2.7040506E+002
3	0	1.199352983114732E+003	6.1923313E-001	-2.7034851E+002
3	0	1.199852983102101E+003	6.1548805E-001	-2.7040506E+002
3	0	1.200352983089469E+003	6.1275870E-001	-2.7038385E+002
3	0	1.200852983076838E+003	6.0977697E-001	-2.7040155E+002
3	0	1.201352983064207E+003	6.0639668E-001	-2.7038742E+002
3	0	1.201852983051576E+003	6.0253769E-001	-2.7038742E+002
3	0	1.202352983038945E+003	5.9820217E-001	-2.7039093E+002
3	0	1.202852983026314E+003	5.9315228E-001	-2.7036267E+002
3	0	1.203352983013683E+003	5.8772779E-001	-2.7038031E+002
3	0	1.203852983001052E+003	5.8358616E-001	-2.7038385E+002
3	0	1.204352982988421E+003	5.8053225E-001	-2.7037677E+002
3	0	1.204852982975790E+003	5.7755965E-001	-2.7036267E+002
3	0	1.205352982963159E+003	5.7447356E-001	-2.7037326E+002
3	0	1.205852982950528E+003	5.7177579E-001	-2.7037326E+002
3	0	1.206352982937897E+003	5.6932151E-001	-2.7041214E+002
3	0	1.206852982925266E+003	5.6665123E-001	-2.7038385E+002
3	0	1.207352982912635E+003	5.6441808E-001	-2.7038031E+002
3	0	1.207852982900004E+003	5.6444085E-001	-2.7035913E+002
3	0	1.208352982887372E+003	5.6605643E-001	-2.7038742E+002
3	0	1.208852982874741E+003	5.6798959E-001	-2.7037677E+002
3	0	1.209352982862110E+003	5.6985813E-001	-2.7039093E+002
3	0	1.209852982849479E+003	5.7194287E-001	-2.7036972E+002
3	0	1.210352982836848E+003	5.7352567E-001	-2.7038385E+002
3	0	1.210852982824217E+003	5.7415134E-001	-2.7037677E+002
3	0	1.211352982811586E+003	5.7433152E-001	-2.7036972E+002
3	0	1.211852982798955E+003	5.7586443E-001	-2.7036618E+002
3	0	1.212352982786324E+003	5.7804704E-001	-2.7038031E+002
3	0	1.212852982773693E+003	5.7963037E-001	-2.7039447E+002
3	0	1.213352982761062E+003	5.8039808E-001	-2.7036972E+002
3	0	1.213852982748431E+003	5.8069766E-001	-2.7039093E+002
3	0	1.214352982735800E+003	5.8021522E-001	-2.7036972E+002
3	0	1.214852982723169E+003	5.7850486E-001	-2.7040155E+002
3	0	1.215352982710538E+003	5.7617015E-001	-2.7038385E+002
3	0	1.215852982697907E+003	5.7500833E-001	-2.7037326E+002
3	0	1.216352982685275E+003	5.7451338E-001	-2.7035205E+002
3	0	1.216852982672644E+003	5.7336575E-001	-2.7039801E+002
3	0	1.217352982660013E+003	5.7147402E-001	-2.7035913E+002
3	0	1.217852982647382E+003	5.6922239E-001	-2.7039801E+002
3	0	1.218352982634751E+003	5.6614387E-001	-2.7039801E+002
3	0	1.218852982622120E+003	5.6182986E-001	-2.7038385E+002
3	0	1.219352982609489E+003	5.5692762E-001	-2.7038031E+002
3	0	1.219353382609479E+003	5.5491525E-001	-2.7038031E+002