EC-Lab ASCII FILE
Nb header lines : 55                          

Open Circuit Voltage

Run on channel : 1 (SN 81504)
User : 
CE vs. WE compliance from -10 V to 10 V
Electrode connection : standard
Potential control : Ewe
Ewe ctrl range : min = -2.50 V, max = 2.50 V
Safety Limits :
	Do not start on E overload
Acquisition started on : 05/08/2026 00:43:10.981
Loaded Setting File :  C:\PEM-WE_measurements\2026\372_IV_IV IrOx, 5 min Pt, 30 min C, etched cathode\new station\Loopeis new\1,46 V different time gaps open cell\Loopeis 1,46V_180s_4_PEIS from 650Hz to 100Hz.mps
Saved on :
	File : L_29_Loopeis 1,46V_180s_4_PEIS from 650Hz to 100Hz_20_OCV_C01.mpr
	Directory : C:\PEM-WE_measurements\2026\372_IV_IV IrOx, 5 min Pt, 30 min C, etched cathode\new station\Loopeis new\1,46 V different time gaps open cell\
	Host : 192.168.0.2
Device : SP-150e (SN .005491)
Address : 192.168.0.91
EC-LAB for windows v11.71 (software)
Internet server v28.00 (firmware)
Command interpretor v14.01 (firmware)
Electrode material : 
Initial state : 
Electrolyte : 
Comments : 
Current amplifier : SP-150eB-20A
Electrode surface area : 0.001 cm²
Characteristic mass : 0.001 g
Equivalent Weight : 0.000 g/eq.
Density : 0.000 g/cm3
Volume (V) : 0.001 cm³
Record Analogic IN 1
Text export
   Mode : Standard
   Time format : Elapsed
Cycle Definition : Charge/Discharge alternance
External device configuration :
   device type : Temperature Probe
   device name : Other
   Analog IN 1 : 
      unit : T/Â°C
      max : 100.000 at 2.000 V
      min : 0.000 at 1.460 V
tR (h:m:s)          0:03:0.0000         
dER/dt (mV/h)       1.0                 
record              <Ewe>               
dER (mV)            10.00               
dtR (s)             0.5000              
E range min (V)     -2.500              
E range max (V)     2.500               

mode	error	time/s	<Ewe/V>	Analog IN 1/V	
3	0	2.351637777420110E+003	1.2397532E+000	-2.7036972E+002
3	0	2.352137777407479E+003	1.2212927E+000	-2.7038031E+002
3	0	2.352637777394848E+003	1.0528576E+000	-2.7038742E+002
3	0	2.353137777382217E+003	5.5274618E-001	-2.7038031E+002
3	0	2.353637777369586E+003	3.7564319E-001	-2.7036267E+002
3	0	2.354137777356955E+003	3.5075229E-001	-2.7035205E+002
3	0	2.354637777344324E+003	3.4132454E-001	-2.7037677E+002
3	0	2.355137777331693E+003	3.3414516E-001	-2.7036972E+002
3	0	2.355637777319062E+003	3.2879663E-001	-2.7037326E+002
3	0	2.356137777306431E+003	3.2479462E-001	-2.7039093E+002
3	0	2.356637777293799E+003	3.2170796E-001	-2.7037677E+002
3	0	2.357137777281168E+003	3.1925410E-001	-2.7036618E+002
3	0	2.357637777268537E+003	3.1723648E-001	-2.7037677E+002
3	0	2.358137777255906E+003	3.1555551E-001	-2.7038031E+002
3	0	2.358637777243275E+003	3.1411198E-001	-2.7037326E+002
3	0	2.359137777230644E+003	3.1289014E-001	-2.7038031E+002
3	0	2.359637777218013E+003	3.1180012E-001	-2.7037677E+002
3	0	2.360137777205382E+003	3.1080684E-001	-2.7038385E+002
3	0	2.360637777192751E+003	3.0989006E-001	-2.7035913E+002
3	0	2.361137777180120E+003	3.0903405E-001	-2.7036972E+002
3	0	2.361637777167489E+003	3.0822331E-001	-2.7036618E+002
3	0	2.362137777154858E+003	3.0742061E-001	-2.7037326E+002
3	0	2.362637777142227E+003	3.0664760E-001	-2.7037326E+002
3	0	2.363137777129596E+003	3.0593941E-001	-2.7036267E+002
3	0	2.363637777116965E+003	3.0527538E-001	-2.7038742E+002
3	0	2.364137777104334E+003	3.0463010E-001	-2.7037677E+002
3	0	2.364637777091702E+003	3.0399641E-001	-2.7038031E+002
3	0	2.365137777079071E+003	3.0338049E-001	-2.7036972E+002
3	0	2.365637777066440E+003	3.0276611E-001	-2.7038385E+002
3	0	2.366137777053809E+003	3.0213529E-001	-2.7036972E+002
3	0	2.366637777041178E+003	3.0150175E-001	-2.7037677E+002
3	0	2.367137777028547E+003	3.0091482E-001	-2.7036972E+002
3	0	2.367637777015916E+003	3.0034959E-001	-2.7039447E+002
3	0	2.368137777003285E+003	2.9978493E-001	-2.7039801E+002
3	0	2.368637776990654E+003	2.9923096E-001	-2.7038385E+002
3	0	2.369137776978023E+003	2.9868373E-001	-2.7034497E+002
3	0	2.369637776965392E+003	2.9814810E-001	-2.7038385E+002
3	0	2.370137776952761E+003	2.9758772E-001	-2.7040506E+002
3	0	2.370637776940130E+003	2.9702207E-001	-2.7038385E+002
3	0	2.371137776927499E+003	2.9649851E-001	-2.7035913E+002
3	0	2.371637776914868E+003	2.9598871E-001	-2.7039447E+002
3	0	2.372137776902237E+003	2.9548380E-001	-2.7039093E+002
3	0	2.372637776889605E+003	2.9498470E-001	-2.7039093E+002
3	0	2.373137776876974E+003	2.9448342E-001	-2.7039801E+002
3	0	2.373637776864343E+003	2.9398009E-001	-2.7039093E+002
3	0	2.374137776851712E+003	2.9345721E-001	-2.7039801E+002
3	0	2.374637776839081E+003	2.9293743E-001	-2.7038742E+002
3	0	2.375137776826450E+003	2.9245919E-001	-2.7035559E+002
3	0	2.375637776813819E+003	2.9198661E-001	-2.7037326E+002
3	0	2.376137776801188E+003	2.9151344E-001	-2.7037326E+002
3	0	2.376637776788557E+003	2.9104492E-001	-2.7038742E+002
3	0	2.377137776775926E+003	2.9058430E-001	-2.7036972E+002
3	0	2.377637776763295E+003	2.9011655E-001	-2.7038385E+002
3	0	2.378137776750664E+003	2.8962860E-001	-2.7036618E+002
3	0	2.378637776738033E+003	2.8913942E-001	-2.7038385E+002
3	0	2.379137776725402E+003	2.8870299E-001	-2.7037326E+002
3	0	2.379637776712771E+003	2.8827196E-001	-2.7039447E+002
3	0	2.380137776700140E+003	2.8783584E-001	-2.7038385E+002
3	0	2.380637776687508E+003	2.8740072E-001	-2.7039093E+002
3	0	2.381137776674877E+003	2.8696990E-001	-2.7038385E+002
3	0	2.381637776662246E+003	2.8653213E-001	-2.7039093E+002
3	0	2.382137776649615E+003	2.8607321E-001	-2.7036618E+002
3	0	2.382637776636984E+003	2.8562537E-001	-2.7038031E+002
3	0	2.383137776624353E+003	2.8521574E-001	-2.7038385E+002
3	0	2.383637776611722E+003	2.8481752E-001	-2.7038742E+002
3	0	2.384137776599091E+003	2.8441927E-001	-2.7038385E+002
3	0	2.384637776586460E+003	2.8402257E-001	-2.7037677E+002
3	0	2.385137776573829E+003	2.8362527E-001	-2.7036618E+002
3	0	2.385637776561198E+003	2.8321591E-001	-2.7036972E+002
3	0	2.386137776548567E+003	2.8278810E-001	-2.7035559E+002
3	0	2.386637776535936E+003	2.8237370E-001	-2.7036618E+002
3	0	2.387137776523305E+003	2.8200060E-001	-2.7036267E+002
3	0	2.387637776510674E+003	2.8163397E-001	-2.7037326E+002
3	0	2.388137776498043E+003	2.8125641E-001	-2.7035559E+002
3	0	2.388637776485411E+003	2.8089258E-001	-2.7039093E+002
3	0	2.389137776472780E+003	2.8052655E-001	-2.7035205E+002
3	0	2.389637776460149E+003	2.8015494E-001	-2.7037326E+002
3	0	2.390137776447518E+003	2.7976719E-001	-2.7038742E+002
3	0	2.390637776434887E+003	2.7938151E-001	-2.7038031E+002
3	0	2.391137776422256E+003	2.7904394E-001	-2.7041568E+002
3	0	2.391637776409625E+003	2.7871603E-001	-2.7036267E+002
3	0	2.392137776396994E+003	2.7837834E-001	-2.7037326E+002
3	0	2.392637776384363E+003	2.7804264E-001	-2.7039093E+002
3	0	2.393137776371732E+003	2.7770534E-001	-2.7036972E+002
3	0	2.393637776359101E+003	2.7736455E-001	-2.7036618E+002
3	0	2.394137776346470E+003	2.7700624E-001	-2.7037677E+002
3	0	2.394637776333839E+003	2.7665314E-001	-2.7037326E+002
3	0	2.395137776321208E+003	2.7633914E-001	-2.7037326E+002
3	0	2.395637776308577E+003	2.7603853E-001	-2.7037326E+002
3	0	2.396137776295946E+003	2.7573720E-001	-2.7036972E+002
3	0	2.396637776283314E+003	2.7542934E-001	-2.7038742E+002
3	0	2.397137776270683E+003	2.7512562E-001	-2.7038031E+002
3	0	2.397637776258052E+003	2.7481532E-001	-2.7038742E+002
3	0	2.398137776245421E+003	2.7448454E-001	-2.7036972E+002
3	0	2.398637776232790E+003	2.7416095E-001	-2.7040506E+002
3	0	2.399137776220159E+003	2.7387604E-001	-2.7038031E+002
3	0	2.399637776207528E+003	2.7360129E-001	-2.7036972E+002
3	0	2.400137776194897E+003	2.7331832E-001	-2.7037677E+002
3	0	2.400637776182266E+003	2.7303976E-001	-2.7036972E+002
3	0	2.401137776169635E+003	2.7276284E-001	-2.7038742E+002
3	0	2.401637776157004E+003	2.7247560E-001	-2.7036972E+002
3	0	2.402137776144373E+003	2.7218142E-001	-2.7036267E+002
3	0	2.402637776131742E+003	2.7187714E-001	-2.7037677E+002
3	0	2.403137776119111E+003	2.7161542E-001	-2.7036267E+002
3	0	2.403637776106480E+003	2.7136064E-001	-2.7037326E+002
3	0	2.404137776093849E+003	2.7110770E-001	-2.7037677E+002
3	0	2.404637776081217E+003	2.7085000E-001	-2.7038742E+002
3	0	2.405137776068586E+003	2.7060330E-001	-2.7035913E+002
3	0	2.405637776055955E+003	2.7033478E-001	-2.7038385E+002
3	0	2.406137776043324E+003	2.7005100E-001	-2.7038031E+002
3	0	2.406637776030693E+003	2.6977181E-001	-2.7036618E+002
3	0	2.407137776018062E+003	2.6953480E-001	-2.7038742E+002
3	0	2.407637776005431E+003	2.6931036E-001	-2.7038385E+002
3	0	2.408137775992800E+003	2.6907763E-001	-2.7036972E+002
3	0	2.408637775980169E+003	2.6884556E-001	-2.7037326E+002
3	0	2.409137775967538E+003	2.6860985E-001	-2.7038385E+002
3	0	2.409637775954907E+003	2.6836708E-001	-2.7038385E+002
3	0	2.410137775942276E+003	2.6810262E-001	-2.7036618E+002
3	0	2.410637775929645E+003	2.6783857E-001	-2.7037677E+002
3	0	2.411137775917014E+003	2.6762596E-001	-2.7035913E+002
3	0	2.411637775904383E+003	2.6742128E-001	-2.7038031E+002
3	0	2.412137775891752E+003	2.6720959E-001	-2.7039093E+002
3	0	2.412637775879120E+003	2.6699585E-001	-2.7035913E+002
3	0	2.413137775866489E+003	2.6678947E-001	-2.7037326E+002
3	0	2.413637775853858E+003	2.6657024E-001	-2.7039801E+002
3	0	2.414137775841227E+003	2.6632905E-001	-2.7037677E+002
3	0	2.414637775828596E+003	2.6608434E-001	-2.7036972E+002
3	0	2.415137775815965E+003	2.6589209E-001	-2.7039801E+002
3	0	2.415637775803334E+003	2.6570380E-001	-2.7039447E+002
3	0	2.416137775790703E+003	2.6551184E-001	-2.7039093E+002
3	0	2.416637775778072E+003	2.6531741E-001	-2.7036972E+002
3	0	2.417137775765441E+003	2.6511765E-001	-2.7036618E+002
3	0	2.417637775752810E+003	2.6491404E-001	-2.7035559E+002
3	0	2.418137775740179E+003	2.6469561E-001	-2.7035913E+002
3	0	2.418637775727548E+003	2.6447999E-001	-2.7036972E+002
3	0	2.419137775714917E+003	2.6429984E-001	-2.7035913E+002
3	0	2.419637775702286E+003	2.6413712E-001	-2.7036972E+002
3	0	2.420137775689655E+003	2.6397073E-001	-2.7040506E+002
3	0	2.420637775677023E+003	2.6379254E-001	-2.7038385E+002
3	0	2.421137775664392E+003	2.6362073E-001	-2.7038385E+002
3	0	2.421637775651761E+003	2.6342854E-001	-2.7038742E+002
3	0	2.422137775639130E+003	2.6322043E-001	-2.7038742E+002
3	0	2.422637775626499E+003	2.6300639E-001	-2.7037677E+002
3	0	2.423137775613868E+003	2.6284450E-001	-2.7039801E+002
3	0	2.423637775601237E+003	2.6268747E-001	-2.7036267E+002
3	0	2.424137775588606E+003	2.6252753E-001	-2.7037677E+002
3	0	2.424637775575975E+003	2.6236361E-001	-2.7037326E+002
3	0	2.425137775563344E+003	2.6220497E-001	-2.7037677E+002
3	0	2.425637775550713E+003	2.6203150E-001	-2.7038385E+002
3	0	2.426137775538082E+003	2.6183569E-001	-2.7038031E+002
3	0	2.426637775525451E+003	2.6163882E-001	-2.7040506E+002
3	0	2.427137775512820E+003	2.6148677E-001	-2.7039447E+002
3	0	2.427637775500189E+003	2.6134437E-001	-2.7038742E+002
3	0	2.428137775487558E+003	2.6119125E-001	-2.7038742E+002
3	0	2.428637775474926E+003	2.6104087E-001	-2.7038031E+002
3	0	2.429137775462295E+003	2.6088479E-001	-2.7038031E+002
3	0	2.429637775449664E+003	2.6072192E-001	-2.7038742E+002
3	0	2.430137775437033E+003	2.6053557E-001	-2.7037326E+002
3	0	2.430637775424402E+003	2.6034904E-001	-2.7036267E+002
3	0	2.431137775411771E+003	2.6020402E-001	-2.7035913E+002
3	0	2.431637775399140E+003	2.6007536E-001	-2.7038031E+002
3	0	2.432137775386509E+003	2.5994170E-001	-2.7036618E+002
3	0	2.432637775373878E+003	2.5980783E-001	-2.7036972E+002
3	0	2.433137775361247E+003	2.5966957E-001	-2.7039801E+002
3	0	2.433637775348616E+003	2.5951633E-001	-2.7039447E+002
3	0	2.434137775335985E+003	2.5934002E-001	-2.7037677E+002
3	0	2.434637775323354E+003	2.5916833E-001	-2.7035559E+002
3	0	2.435137775310723E+003	2.5903541E-001	-2.7036972E+002
3	0	2.435637775298092E+003	2.5891140E-001	-2.7038385E+002
3	0	2.436137775285461E+003	2.5877985E-001	-2.7038385E+002
3	0	2.436637775272829E+003	2.5864431E-001	-2.7037326E+002
3	0	2.437137775260198E+003	2.5851706E-001	-2.7036267E+002
3	0	2.437637775247567E+003	2.5836879E-001	-2.7036972E+002
3	0	2.438137775234936E+003	2.5820711E-001	-2.7038742E+002
3	0	2.438637775222305E+003	2.5804484E-001	-2.7036972E+002
3	0	2.439137775209674E+003	2.5792345E-001	-2.7037326E+002
3	0	2.439637775197043E+003	2.5781271E-001	-2.7035559E+002
3	0	2.440137775184412E+003	2.5769350E-001	-2.7038385E+002
3	0	2.440637775171781E+003	2.5757065E-001	-2.7038031E+002
3	0	2.441137775159150E+003	2.5744706E-001	-2.7036618E+002
3	0	2.441637775146519E+003	2.5731471E-001	-2.7038031E+002
3	0	2.442137775133888E+003	2.5715727E-001	-2.7036972E+002
3	0	2.442637775121257E+003	2.5700498E-001	-2.7035913E+002
3	0	2.443137775108626E+003	2.5688764E-001	-2.7036972E+002
3	0	2.443637775095995E+003	2.5678855E-001	-2.7037677E+002
3	0	2.444137775083364E+003	2.5668320E-001	-2.7039093E+002
3	0	2.444637775070732E+003	2.5656798E-001	-2.7041568E+002
3	0	2.445137775058101E+003	2.5646102E-001	-2.7037677E+002
3	0	2.445637775045470E+003	2.5633830E-001	-2.7038385E+002
3	0	2.446137775032839E+003	2.5618947E-001	-2.7038385E+002
3	0	2.446637775020208E+003	2.5604048E-001	-2.7038031E+002
3	0	2.447137775007577E+003	2.5593385E-001	-2.7037326E+002
3	0	2.447637774994946E+003	2.5583437E-001	-2.7039093E+002
3	0	2.448137774982315E+003	2.5573075E-001	-2.7040506E+002
3	0	2.448637774969684E+003	2.5562242E-001	-2.7036972E+002
3	0	2.449137774957053E+003	2.5551262E-001	-2.7039801E+002
3	0	2.449637774944422E+003	2.5539094E-001	-2.7035913E+002
3	0	2.450137774931791E+003	2.5525329E-001	-2.7040155E+002
3	0	2.450637774919160E+003	2.5510570E-001	-2.7035913E+002
3	0	2.451137774906529E+003	2.5500673E-001	-2.7039093E+002
3	0	2.451637774893898E+003	2.5491673E-001	-2.7039093E+002
3	0	2.452137774881267E+003	2.5482088E-001	-2.7037677E+002
3	0	2.452637774868635E+003	2.5472316E-001	-2.7036267E+002
3	0	2.453137774856004E+003	2.5462526E-001	-2.7038385E+002
3	0	2.453637774843373E+003	2.5450993E-001	-2.7038385E+002
3	0	2.454137774830742E+003	2.5438052E-001	-2.7039093E+002
3	0	2.454637774818111E+003	2.5424737E-001	-2.7038031E+002
3	0	2.455137774805480E+003	2.5415868E-001	-2.7040506E+002
3	0	2.455637774792849E+003	2.5407961E-001	-2.7038742E+002
3	0	2.456137774780218E+003	2.5398999E-001	-2.7038031E+002
3	0	2.456637774767587E+003	2.5389865E-001	-2.7038742E+002
3	0	2.457137774754956E+003	2.5380838E-001	-2.7036972E+002
3	0	2.457637774742325E+003	2.5370389E-001	-2.7036618E+002
3	0	2.458137774729694E+003	2.5357804E-001	-2.7036618E+002
3	0	2.458637774717063E+003	2.5345007E-001	-2.7037677E+002
3	0	2.459137774704432E+003	2.5335792E-001	-2.7037677E+002
3	0	2.459637774691801E+003	2.5327998E-001	-2.7035205E+002
3	0	2.460137774679170E+003	2.5320128E-001	-2.7038385E+002
3	0	2.460637774666538E+003	2.5311354E-001	-2.7036972E+002
3	0	2.461137774653907E+003	2.5303322E-001	-2.7038742E+002
3	0	2.461637774641276E+003	2.5293821E-001	-2.7036972E+002
3	0	2.462137774628645E+003	2.5281644E-001	-2.7036618E+002
3	0	2.462637774616014E+003	2.5269198E-001	-2.7036972E+002
3	0	2.463137774603383E+003	2.5261301E-001	-2.7036267E+002
3	0	2.463637774590752E+003	2.5254095E-001	-2.7039447E+002
3	0	2.464137774578121E+003	2.5246537E-001	-2.7037326E+002
3	0	2.464637774565490E+003	2.5238717E-001	-2.7039801E+002
3	0	2.465137774552859E+003	2.5230569E-001	-2.7038742E+002
3	0	2.465637774540228E+003	2.5220704E-001	-2.7038742E+002
3	0	2.466137774527597E+003	2.5208732E-001	-2.7038385E+002
3	0	2.466637774514966E+003	2.5196177E-001	-2.7038031E+002
3	0	2.467137774502335E+003	2.5188658E-001	-2.7038385E+002
3	0	2.467637774489704E+003	2.5181711E-001	-2.7038031E+002
3	0	2.468137774477073E+003	2.5173962E-001	-2.7036972E+002
3	0	2.468637774464441E+003	2.5166214E-001	-2.7038385E+002
3	0	2.469137774451810E+003	2.5158557E-001	-2.7036267E+002
3	0	2.469637774439179E+003	2.5148681E-001	-2.7036972E+002
3	0	2.470137774426548E+003	2.5136998E-001	-2.7039447E+002
3	0	2.470637774413917E+003	2.5124550E-001	-2.7039093E+002
3	0	2.471137774401286E+003	2.5116760E-001	-2.7037326E+002
3	0	2.471637774388655E+003	2.5109839E-001	-2.7035913E+002
3	0	2.472137774376024E+003	2.5102541E-001	-2.7035913E+002
3	0	2.472637774363393E+003	2.5095347E-001	-2.7038031E+002
3	0	2.473137774350762E+003	2.5087726E-001	-2.7036972E+002
3	0	2.473637774338131E+003	2.5078940E-001	-2.7038031E+002
3	0	2.474137774325500E+003	2.5067970E-001	-2.7037326E+002
3	0	2.474637774312869E+003	2.5056186E-001	-2.7038742E+002
3	0	2.475137774300238E+003	2.5049412E-001	-2.7036972E+002
3	0	2.475637774287607E+003	2.5043148E-001	-2.7037677E+002
3	0	2.476137774274976E+003	2.5035992E-001	-2.7037326E+002
3	0	2.476637774262344E+003	2.5028908E-001	-2.7037677E+002
3	0	2.477137774249713E+003	2.5021219E-001	-2.7035913E+002
3	0	2.477637774237082E+003	2.5011879E-001	-2.7036972E+002
3	0	2.478137774224451E+003	2.5000787E-001	-2.7036267E+002
3	0	2.478637774211820E+003	2.4990048E-001	-2.7038031E+002
3	0	2.479137774199189E+003	2.4983424E-001	-2.7038031E+002
3	0	2.479637774186558E+003	2.4977520E-001	-2.7038031E+002
3	0	2.480137774173927E+003	2.4971312E-001	-2.7039801E+002
3	0	2.480637774161296E+003	2.4964352E-001	-2.7038031E+002
3	0	2.481137774148665E+003	2.4957438E-001	-2.7036267E+002
3	0	2.481637774136034E+003	2.4949017E-001	-2.7037677E+002
3	0	2.482137774123403E+003	2.4938519E-001	-2.7036618E+002
3	0	2.482637774110772E+003	2.4928111E-001	-2.7036267E+002
3	0	2.483137774098141E+003	2.4921678E-001	-2.7038742E+002
3	0	2.483637774085510E+003	2.4916546E-001	-2.7039093E+002
3	0	2.484137774072879E+003	2.4910530E-001	-2.7039447E+002
3	0	2.484637774060247E+003	2.4904303E-001	-2.7036972E+002
3	0	2.485137774047616E+003	2.4896905E-001	-2.7037326E+002
3	0	2.485637774034985E+003	2.4889359E-001	-2.7040155E+002
3	0	2.486137774022354E+003	2.4878922E-001	-2.7037326E+002
3	0	2.486637774009723E+003	2.4868517E-001	-2.7038031E+002
3	0	2.487137773997092E+003	2.4862173E-001	-2.7036618E+002
3	0	2.487637773984461E+003	2.4856283E-001	-2.7037677E+002
3	0	2.488137773971830E+003	2.4850419E-001	-2.7039801E+002
3	0	2.488637773959199E+003	2.4843453E-001	-2.7038031E+002
3	0	2.489137773946568E+003	2.4836275E-001	-2.7039447E+002
3	0	2.489637773933937E+003	2.4828166E-001	-2.7040155E+002
3	0	2.490137773921306E+003	2.4818155E-001	-2.7038742E+002
3	0	2.490637773908675E+003	2.4807279E-001	-2.7039093E+002
3	0	2.491137773896044E+003	2.4801822E-001	-2.7039447E+002
3	0	2.491637773883413E+003	2.4796905E-001	-2.7036267E+002
3	0	2.492137773870782E+003	2.4791105E-001	-2.7036972E+002
3	0	2.492637773858150E+003	2.4785070E-001	-2.7035913E+002
3	0	2.493137773845519E+003	2.4779215E-001	-2.7038742E+002
3	0	2.493637773832888E+003	2.4771896E-001	-2.7037677E+002
3	0	2.494137773820257E+003	2.4761571E-001	-2.7035205E+002
3	0	2.494637773807626E+003	2.4751800E-001	-2.7037677E+002
3	0	2.495137773794995E+003	2.4745870E-001	-2.7036972E+002
3	0	2.495637773782364E+003	2.4741237E-001	-2.7036267E+002
3	0	2.496137773769733E+003	2.4735524E-001	-2.7039801E+002
3	0	2.496637773757102E+003	2.4729754E-001	-2.7035205E+002
3	0	2.497137773744471E+003	2.4723895E-001	-2.7037326E+002
3	0	2.497637773731840E+003	2.4717130E-001	-2.7035913E+002
3	0	2.498137773719209E+003	2.4707094E-001	-2.7035559E+002
3	0	2.498637773706578E+003	2.4697474E-001	-2.7037326E+002
3	0	2.499137773693947E+003	2.4692191E-001	-2.7036618E+002
3	0	2.499637773681316E+003	2.4687855E-001	-2.7037326E+002
3	0	2.500137773668685E+003	2.4682619E-001	-2.7039447E+002
3	0	2.500637773656053E+003	2.4677177E-001	-2.7036618E+002
3	0	2.501137773643422E+003	2.4671425E-001	-2.7039447E+002
3	0	2.501637773630791E+003	2.4664271E-001	-2.7039093E+002
3	0	2.502137773618160E+003	2.4654579E-001	-2.7035559E+002
3	0	2.502637773605529E+003	2.4645689E-001	-2.7036618E+002
3	0	2.503137773592898E+003	2.4640495E-001	-2.7039801E+002
3	0	2.503637773580267E+003	2.4636583E-001	-2.7038742E+002
3	0	2.504137773567636E+003	2.4631898E-001	-2.7036618E+002
3	0	2.504637773555005E+003	2.4626698E-001	-2.7039447E+002
3	0	2.505137773542374E+003	2.4621478E-001	-2.7036972E+002
3	0	2.505637773529743E+003	2.4614486E-001	-2.7036972E+002
3	0	2.506137773517112E+003	2.4605075E-001	-2.7036618E+002
3	0	2.506637773504481E+003	2.4595626E-001	-2.7038031E+002
3	0	2.507137773491850E+003	2.4590929E-001	-2.7039447E+002
3	0	2.507637773479219E+003	2.4586444E-001	-2.7039093E+002
3	0	2.508137773466588E+003	2.4581151E-001	-2.7038742E+002
3	0	2.508637773453956E+003	2.4575640E-001	-2.7039447E+002
3	0	2.509137773441325E+003	2.4570362E-001	-2.7039447E+002
3	0	2.509637773428694E+003	2.4563493E-001	-2.7040506E+002
3	0	2.510137773416063E+003	2.4554047E-001	-2.7035559E+002
3	0	2.510637773403432E+003	2.4544249E-001	-2.7035913E+002
3	0	2.511137773390801E+003	2.4539466E-001	-2.7036972E+002
3	0	2.511637773378170E+003	2.4535143E-001	-2.7037677E+002
3	0	2.512137773365539E+003	2.4530078E-001	-2.7039801E+002
3	0	2.512637773352908E+003	2.4524678E-001	-2.7036972E+002
3	0	2.513137773340277E+003	2.4520031E-001	-2.7038031E+002
3	0	2.513637773327646E+003	2.4513170E-001	-2.7038031E+002
3	0	2.514137773315015E+003	2.4504283E-001	-2.7036267E+002
3	0	2.514637773302384E+003	2.4494752E-001	-2.7038742E+002
3	0	2.515137773289753E+003	2.4490312E-001	-2.7037326E+002
3	0	2.515637773277122E+003	2.4485773E-001	-2.7040506E+002
3	0	2.516137773264491E+003	2.4481674E-001	-2.7039093E+002
3	0	2.516637773251859E+003	2.4477074E-001	-2.7039447E+002
3	0	2.517137773239228E+003	2.4471441E-001	-2.7038031E+002
3	0	2.517637773226597E+003	2.4465121E-001	-2.7036618E+002
3	0	2.518137773213966E+003	2.4457052E-001	-2.7039447E+002
3	0	2.518637773201335E+003	2.4448250E-001	-2.7035913E+002
3	0	2.519137773188704E+003	2.4443986E-001	-2.7036972E+002
3	0	2.519637773176073E+003	2.4439855E-001	-2.7038385E+002
3	0	2.520137773163442E+003	2.4435920E-001	-2.7036267E+002
3	0	2.520637773150811E+003	2.4430941E-001	-2.7037677E+002
3	0	2.521137773138180E+003	2.4427074E-001	-2.7038385E+002
3	0	2.521637773125549E+003	2.4421415E-001	-2.7038385E+002
3	0	2.522137773112918E+003	2.4413201E-001	-2.7037677E+002
3	0	2.522637773100287E+003	2.4404646E-001	-2.7040155E+002
3	0	2.523137773087656E+003	2.4400248E-001	-2.7038031E+002
3	0	2.523637773075025E+003	2.4396881E-001	-2.7037326E+002
3	0	2.524137773062394E+003	2.4392875E-001	-2.7036618E+002
3	0	2.524637773049762E+003	2.4388583E-001	-2.7036618E+002
3	0	2.525137773037131E+003	2.4383903E-001	-2.7037677E+002
3	0	2.525637773024500E+003	2.4377432E-001	-2.7037677E+002
3	0	2.526137773011869E+003	2.4369091E-001	-2.7036618E+002
3	0	2.526637772999238E+003	2.4360444E-001	-2.7037326E+002
3	0	2.527137772986607E+003	2.4356249E-001	-2.7036618E+002
3	0	2.527637772973976E+003	2.4352962E-001	-2.7036267E+002
3	0	2.528137772961345E+003	2.4348743E-001	-2.7037326E+002
3	0	2.528637772948714E+003	2.4343488E-001	-2.7038031E+002
3	0	2.529137772936083E+003	2.4338749E-001	-2.7036972E+002
3	0	2.529637772923452E+003	2.4331954E-001	-2.7039447E+002
3	0	2.530137772910821E+003	2.4323143E-001	-2.7036267E+002
3	0	2.530637772898190E+003	2.4314886E-001	-2.7036618E+002
3	0	2.531137772885559E+003	2.4310137E-001	-2.7039093E+002
3	0	2.531161172884968E+003	2.4308668E-001	-2.7038742E+002