EC-Lab ASCII FILE
Nb header lines : 55                          

Open Circuit Voltage

Run on channel : 1 (SN 81504)
User : 
CE vs. WE compliance from -10 V to 10 V
Electrode connection : standard
Potential control : Ewe
Ewe ctrl range : min = -2.50 V, max = 2.50 V
Safety Limits :
	Do not start on E overload
Acquisition started on : 05/10/2026 04:38:51.126
Loaded Setting File :  C:\PEM-WE_measurements\2026\372_IV_IV IrOx, 5 min Pt, 30 min C, etched cathode\new station\Loopeis new\1,46 V different time gaps closed cell\Loopeis 1,46V_90s_4_PEIS from 650Hz to 100Hz.mps
Saved on :
	File : L_19_Loopeis 1,46V_90s_4_PEIS from 650Hz to 100Hz_16_OCV_C01.mpr
	Directory : C:\PEM-WE_measurements\2026\372_IV_IV IrOx, 5 min Pt, 30 min C, etched cathode\new station\Loopeis new\1,46 V different time gaps closed cell\
	Host : 192.168.0.2
Device : SP-150e (SN .005491)
Address : 192.168.0.91
EC-LAB for windows v11.71 (software)
Internet server v28.00 (firmware)
Command interpretor v14.01 (firmware)
Electrode material : 
Initial state : 
Electrolyte : 
Comments : 
Current amplifier : SP-150eB-20A
Electrode surface area : 0.001 cm²
Characteristic mass : 0.001 g
Equivalent Weight : 0.000 g/eq.
Density : 0.000 g/cm3
Volume (V) : 0.001 cm³
Record Analogic IN 1
Text export
   Mode : Standard
   Time format : Elapsed
Cycle Definition : Charge/Discharge alternance
External device configuration :
   device type : Temperature Probe
   device name : Other
   Analog IN 1 : 
      unit : T/Â°C
      max : 100.000 at 2.000 V
      min : 0.000 at 1.460 V
tR (h:m:s)          0:01:30.0000        
dER/dt (mV/h)       1.0                 
record              <Ewe>               
dER (mV)            10.00               
dtR (s)             0.5000              
E range min (V)     -2.500              
E range max (V)     2.500               

mode	error	time/s	<Ewe/V>	Analog IN 1/V	
3	0	9.943027882565366E+002	1.1370057E+000	-2.7038031E+002
3	0	9.948027882439055E+002	1.2607234E+000	-2.7036267E+002
3	0	9.953027882312745E+002	1.2624520E+000	-2.7038031E+002
3	0	9.958027882186434E+002	1.2623682E+000	-2.7037326E+002
3	0	9.963027882060123E+002	1.2611068E+000	-2.7037677E+002
3	0	9.968027881933813E+002	1.2586063E+000	-2.7039447E+002
3	0	9.973027881807502E+002	1.2544030E+000	-2.7035913E+002
3	0	9.978027881681192E+002	1.2475377E+000	-2.7039093E+002
3	0	9.983027881554881E+002	1.2364230E+000	-2.7039447E+002
3	0	9.988027881428570E+002	1.2189944E+000	-2.7039801E+002
3	0	9.993027881302260E+002	1.1914766E+000	-2.7038031E+002
3	0	9.998027881175949E+002	1.1460557E+000	-2.7039447E+002
3	0	1.000302788104964E+003	1.0611778E+000	-2.7038031E+002
3	0	1.000802788092333E+003	8.7823910E-001	-2.7038742E+002
3	0	1.001302788079702E+003	6.5646136E-001	-2.7040155E+002
3	0	1.001802788067071E+003	5.8356142E-001	-2.7038385E+002
3	0	1.002302788054440E+003	5.5786890E-001	-2.7035913E+002
3	0	1.002802788041809E+003	5.4953939E-001	-2.7035559E+002
3	0	1.003302788029177E+003	5.4758060E-001	-2.7037677E+002
3	0	1.003802788016546E+003	5.4827750E-001	-2.7038742E+002
3	0	1.004302788003915E+003	5.5026132E-001	-2.7038742E+002
3	0	1.004802787991284E+003	5.5284196E-001	-2.7035559E+002
3	0	1.005302787978653E+003	5.5547333E-001	-2.7039801E+002
3	0	1.005802787966022E+003	5.5775410E-001	-2.7036618E+002
3	0	1.006302787953391E+003	5.6023961E-001	-2.7036618E+002
3	0	1.006802787940760E+003	5.6404567E-001	-2.7039093E+002
3	0	1.007302787928129E+003	5.6767076E-001	-2.7037326E+002
3	0	1.007802787915498E+003	5.7100326E-001	-2.7037677E+002
3	0	1.008302787902867E+003	5.7419175E-001	-2.7038742E+002
3	0	1.008802787890236E+003	5.7716227E-001	-2.7037677E+002
3	0	1.009302787877605E+003	5.7937044E-001	-2.7038031E+002
3	0	1.009802787864974E+003	5.8063686E-001	-2.7039801E+002
3	0	1.010302787852343E+003	5.8194435E-001	-2.7036618E+002
3	0	1.010802787839712E+003	5.8438390E-001	-2.7036267E+002
3	0	1.011302787827080E+003	5.8668691E-001	-2.7038742E+002
3	0	1.011802787814449E+003	5.8903265E-001	-2.7038385E+002
3	0	1.012302787801818E+003	5.9147155E-001	-2.7039447E+002
3	0	1.012802787789187E+003	5.9415716E-001	-2.7037677E+002
3	0	1.013302787776556E+003	5.9665549E-001	-2.7036972E+002
3	0	1.013802787763925E+003	5.9883523E-001	-2.7036267E+002
3	0	1.014302787751294E+003	6.0131228E-001	-2.7037677E+002
3	0	1.014802787738663E+003	6.0522038E-001	-2.7038031E+002
3	0	1.015302787726032E+003	6.0877782E-001	-2.7039447E+002
3	0	1.015802787713401E+003	6.1209494E-001	-2.7037326E+002
3	0	1.016302787700770E+003	6.1517924E-001	-2.7039801E+002
3	0	1.016802787688139E+003	6.1800134E-001	-2.7038742E+002
3	0	1.017302787675508E+003	6.2021333E-001	-2.7038031E+002
3	0	1.017802787662877E+003	6.2166816E-001	-2.7036267E+002
3	0	1.018302787650246E+003	6.2299925E-001	-2.7037677E+002
3	0	1.018802787637615E+003	6.2556893E-001	-2.7037677E+002
3	0	1.019302787624983E+003	6.2787730E-001	-2.7036267E+002
3	0	1.019802787612352E+003	6.2989694E-001	-2.7038031E+002
3	0	1.020302787599721E+003	6.3164675E-001	-2.7037677E+002
3	0	1.020802787587090E+003	6.3299495E-001	-2.7039801E+002
3	0	1.021302787574459E+003	6.3367951E-001	-2.7039447E+002
3	0	1.021802787561828E+003	6.3346827E-001	-2.7039093E+002
3	0	1.022302787549197E+003	6.3322282E-001	-2.7038385E+002
3	0	1.022802787536566E+003	6.3440400E-001	-2.7034497E+002
3	0	1.023302787523935E+003	6.3529867E-001	-2.7035205E+002
3	0	1.023802787511304E+003	6.3579267E-001	-2.7039801E+002
3	0	1.024302787498673E+003	6.3601494E-001	-2.7039447E+002
3	0	1.024802787486042E+003	6.3602555E-001	-2.7038742E+002
3	0	1.025302787473411E+003	6.3523352E-001	-2.7036972E+002
3	0	1.025802787460780E+003	6.3350594E-001	-2.7037326E+002
3	0	1.026302787448149E+003	6.3180947E-001	-2.7036618E+002
3	0	1.026802787435518E+003	6.3160431E-001	-2.7038385E+002
3	0	1.027302787422886E+003	6.3118470E-001	-2.7036618E+002
3	0	1.027802787410255E+003	6.3050717E-001	-2.7036972E+002
3	0	1.028302787397624E+003	6.2956375E-001	-2.7036618E+002
3	0	1.028802787384993E+003	6.2835062E-001	-2.7038385E+002
3	0	1.029302787372362E+003	6.2666190E-001	-2.7036267E+002
3	0	1.029802787359731E+003	6.2432104E-001	-2.7034497E+002
3	0	1.030302787347100E+003	6.2204576E-001	-2.7034497E+002
3	0	1.030802787334469E+003	6.2137395E-001	-2.7037677E+002
3	0	1.031302787321838E+003	6.2093240E-001	-2.7039447E+002
3	0	1.031802787309207E+003	6.2062752E-001	-2.7036972E+002
3	0	1.032302787296576E+003	6.2050980E-001	-2.7038385E+002
3	0	1.032802787283945E+003	6.2059045E-001	-2.7038742E+002
3	0	1.033302787271314E+003	6.2064576E-001	-2.7037677E+002
3	0	1.033802787258683E+003	6.2060714E-001	-2.7037677E+002
3	0	1.034302787246052E+003	6.2108529E-001	-2.7039093E+002
3	0	1.034802787233421E+003	6.2348098E-001	-2.7038385E+002
3	0	1.035302787220789E+003	6.2618953E-001	-2.7039801E+002
3	0	1.035802787208158E+003	6.2887371E-001	-2.7038742E+002
3	0	1.036302787195527E+003	6.3145119E-001	-2.7038031E+002
3	0	1.036802787182896E+003	6.3382989E-001	-2.7038742E+002
3	0	1.037302787170265E+003	6.3554978E-001	-2.7039093E+002
3	0	1.037802787157634E+003	6.3624984E-001	-2.7040506E+002
3	0	1.038302787145003E+003	6.3674289E-001	-2.7038031E+002
3	0	1.038802787132372E+003	6.3858140E-001	-2.7039093E+002
3	0	1.039302787119741E+003	6.4024782E-001	-2.7040155E+002
3	0	1.039802787107110E+003	6.4151973E-001	-2.7039093E+002
3	0	1.040302787094479E+003	6.4240718E-001	-2.7038031E+002
3	0	1.040802787081848E+003	6.4273590E-001	-2.7040506E+002
3	0	1.041302787069217E+003	6.4213705E-001	-2.7037326E+002
3	0	1.041802787056586E+003	6.4057726E-001	-2.7039447E+002
3	0	1.042302787043955E+003	6.3871288E-001	-2.7039093E+002
3	0	1.042802787031324E+003	6.3820833E-001	-2.7037677E+002
3	0	1.043302787018692E+003	6.3774449E-001	-2.7036267E+002
3	0	1.043802787006061E+003	6.3689250E-001	-2.7037326E+002
3	0	1.044302786993430E+003	6.3557613E-001	-2.7037677E+002
3	0	1.044802786980799E+003	6.3377553E-001	-2.7039801E+002
3	0	1.045302786968168E+003	6.3118452E-001	-2.7037326E+002
3	0	1.045802786955537E+003	6.2761283E-001	-2.7038742E+002
3	0	1.046302786942906E+003	6.2399703E-001	-2.7038385E+002
3	0	1.046802786930275E+003	6.2180173E-001	-2.7037326E+002
3	0	1.047302786917644E+003	6.1958343E-001	-2.7036618E+002
3	0	1.047802786905013E+003	6.1710620E-001	-2.7037326E+002
3	0	1.048302786892382E+003	6.1447507E-001	-2.7040506E+002
3	0	1.048802786879751E+003	6.1205620E-001	-2.7036972E+002
3	0	1.049302786867120E+003	6.1634833E-001	-2.7036972E+002
3	0	1.049802786854489E+003	6.2384433E-001	-2.7038385E+002
3	0	1.050302786841858E+003	6.2583166E-001	-2.7038385E+002
3	0	1.050802786829227E+003	6.2600684E-001	-2.7038031E+002
3	0	1.051302786816595E+003	6.2469542E-001	-2.7039801E+002
3	0	1.051802786803964E+003	6.2257248E-001	-2.7038742E+002
3	0	1.052302786791333E+003	6.2032694E-001	-2.7037677E+002
3	0	1.052802786778702E+003	6.1813438E-001	-2.7038031E+002
3	0	1.053302786766071E+003	6.1586732E-001	-2.7038742E+002
3	0	1.053802786753440E+003	6.1357659E-001	-2.7039447E+002
3	0	1.054302786740809E+003	6.1207932E-001	-2.7036972E+002
3	0	1.054802786728178E+003	6.1267370E-001	-2.7038031E+002
3	0	1.055302786715547E+003	6.1392903E-001	-2.7039093E+002
3	0	1.055802786702916E+003	6.1529291E-001	-2.7037677E+002
3	0	1.056302786690285E+003	6.1667264E-001	-2.7037326E+002
3	0	1.056802786677654E+003	6.1767542E-001	-2.7040155E+002
3	0	1.057302786665023E+003	6.1795658E-001	-2.7037326E+002
3	0	1.057802786652392E+003	6.1725301E-001	-2.7037677E+002
3	0	1.058302786639761E+003	6.1643523E-001	-2.7038742E+002
3	0	1.058802786627130E+003	6.1695027E-001	-2.7038385E+002
3	0	1.059302786614498E+003	6.1738151E-001	-2.7036618E+002
3	0	1.059802786601867E+003	6.1737049E-001	-2.7037677E+002
3	0	1.060302786589236E+003	6.1687976E-001	-2.7037326E+002
3	0	1.060802786576605E+003	6.1583000E-001	-2.7039093E+002
3	0	1.061302786563974E+003	6.1390388E-001	-2.7040860E+002
3	0	1.061802786551343E+003	6.1098689E-001	-2.7036972E+002
3	0	1.062302786538712E+003	6.0788244E-001	-2.7036618E+002
3	0	1.062802786526081E+003	6.0602558E-001	-2.7038385E+002
3	0	1.063302786513450E+003	6.0399938E-001	-2.7038385E+002
3	0	1.063802786500819E+003	6.0159510E-001	-2.7035913E+002
3	0	1.064302786488188E+003	5.9883422E-001	-2.7038031E+002
3	0	1.064802786475557E+003	5.9563082E-001	-2.7038031E+002
3	0	1.065302786462926E+003	5.9187722E-001	-2.7039447E+002
3	0	1.065802786450295E+003	5.8727854E-001	-2.7038031E+002
3	0	1.066302786437664E+003	5.8269596E-001	-2.7037677E+002
3	0	1.066802786425033E+003	5.7945269E-001	-2.7036972E+002
3	0	1.067302786412401E+003	5.7631207E-001	-2.7036972E+002
3	0	1.067802786399770E+003	5.7290536E-001	-2.7038385E+002
3	0	1.068302786387139E+003	5.6938493E-001	-2.7036972E+002
3	0	1.068802786374508E+003	5.6554061E-001	-2.7038742E+002
3	0	1.069302786361877E+003	5.6116199E-001	-2.7035559E+002
3	0	1.069802786349246E+003	5.5612588E-001	-2.7037677E+002
3	0	1.070302786336615E+003	5.5128378E-001	-2.7035559E+002
3	0	1.070802786323984E+003	5.4781520E-001	-2.7039093E+002
3	0	1.071302786311353E+003	5.4448646E-001	-2.7038742E+002
3	0	1.071802786298722E+003	5.4135662E-001	-2.7035913E+002
3	0	1.072302786286091E+003	5.3865016E-001	-2.7040506E+002
3	0	1.072802786273460E+003	5.3633922E-001	-2.7038385E+002
3	0	1.073302786260829E+003	5.3420895E-001	-2.7039447E+002
3	0	1.073802786248198E+003	5.3193814E-001	-2.7038385E+002
3	0	1.074302786235567E+003	5.3039140E-001	-2.7039447E+002
3	0	1.074802786222936E+003	5.3085589E-001	-2.7038031E+002
3	0	1.075302786210304E+003	5.3184241E-001	-2.7038031E+002
3	0	1.075802786197673E+003	5.3310102E-001	-2.7037677E+002
3	0	1.076302786185042E+003	5.3441119E-001	-2.7036618E+002
3	0	1.076802786172411E+003	5.3560519E-001	-2.7037677E+002
3	0	1.077302786159780E+003	5.3642696E-001	-2.7038031E+002
3	0	1.077802786147149E+003	5.3653872E-001	-2.7040506E+002
3	0	1.078302786134518E+003	5.3662640E-001	-2.7038031E+002
3	0	1.078802786121887E+003	5.3793651E-001	-2.7036618E+002
3	0	1.079302786109256E+003	5.3913748E-001	-2.7040155E+002
3	0	1.079802786096625E+003	5.4003030E-001	-2.7038031E+002
3	0	1.080302786083994E+003	5.4051346E-001	-2.7038742E+002
3	0	1.080802786071363E+003	5.4051918E-001	-2.7039093E+002
3	0	1.081302786058732E+003	5.3982222E-001	-2.7037326E+002
3	0	1.081802786046101E+003	5.3831595E-001	-2.7040155E+002
3	0	1.082302786033470E+003	5.3659922E-001	-2.7039093E+002
3	0	1.082802786020839E+003	5.3593600E-001	-2.7039801E+002
3	0	1.083302786008207E+003	5.3494728E-001	-2.7037326E+002
3	0	1.083802785995576E+003	5.3351820E-001	-2.7038031E+002
3	0	1.083827385994955E+003	5.3269434E-001	-2.7037677E+002