EC-Lab ASCII FILE
Nb header lines : 55                          

Open Circuit Voltage

Run on channel : 1 (SN 81504)
User : 
CE vs. WE compliance from -10 V to 10 V
Electrode connection : standard
Potential control : Ewe
Ewe ctrl range : min = -2.50 V, max = 2.50 V
Safety Limits :
	Do not start on E overload
Acquisition started on : 05/10/2026 04:38:51.126
Loaded Setting File :  C:\PEM-WE_measurements\2026\372_IV_IV IrOx, 5 min Pt, 30 min C, etched cathode\new station\Loopeis new\1,46 V different time gaps closed cell\Loopeis 1,46V_90s_4_PEIS from 650Hz to 100Hz.mps
Saved on :
	File : L_19_Loopeis 1,46V_90s_4_PEIS from 650Hz to 100Hz_18_OCV_C01.mpr
	Directory : C:\PEM-WE_measurements\2026\372_IV_IV IrOx, 5 min Pt, 30 min C, etched cathode\new station\Loopeis new\1,46 V different time gaps closed cell\
	Host : 192.168.0.2
Device : SP-150e (SN .005491)
Address : 192.168.0.91
EC-LAB for windows v11.71 (software)
Internet server v28.00 (firmware)
Command interpretor v14.01 (firmware)
Electrode material : 
Initial state : 
Electrolyte : 
Comments : 
Current amplifier : SP-150eB-20A
Electrode surface area : 0.001 cm²
Characteristic mass : 0.001 g
Equivalent Weight : 0.000 g/eq.
Density : 0.000 g/cm3
Volume (V) : 0.001 cm³
Record Analogic IN 1
Text export
   Mode : Standard
   Time format : Elapsed
Cycle Definition : Charge/Discharge alternance
External device configuration :
   device type : Temperature Probe
   device name : Other
   Analog IN 1 : 
      unit : T/Â°C
      max : 100.000 at 2.000 V
      min : 0.000 at 1.460 V
tR (h:m:s)          0:01:30.0000        
dER/dt (mV/h)       1.0                 
record              <Ewe>               
dER (mV)            10.00               
dtR (s)             0.5000              
E range min (V)     -2.500              
E range max (V)     2.500               

mode	error	time/s	<Ewe/V>	Analog IN 1/V	
3	0	1.129327984845513E+003	1.2864381E+000	-2.7039447E+002
3	0	1.129827984832882E+003	1.2931020E+000	-2.7038031E+002
3	0	1.130327984820251E+003	1.2936264E+000	-2.7040860E+002
3	0	1.130827984807620E+003	1.2926328E+000	-2.7039093E+002
3	0	1.131327984794989E+003	1.2903394E+000	-2.7038385E+002
3	0	1.131827984782358E+003	1.2863002E+000	-2.7038031E+002
3	0	1.132327984769727E+003	1.2794029E+000	-2.7036972E+002
3	0	1.132827984757096E+003	1.2679266E+000	-2.7037326E+002
3	0	1.133327984744465E+003	1.2497555E+000	-2.7037326E+002
3	0	1.133827984731834E+003	1.2218713E+000	-2.7039447E+002
3	0	1.134327984719203E+003	1.1783633E+000	-2.7038385E+002
3	0	1.134827984706571E+003	1.1024264E+000	-2.7038385E+002
3	0	1.135327984693940E+003	9.4150668E-001	-2.7039093E+002
3	0	1.135827984681309E+003	6.8809354E-001	-2.7036618E+002
3	0	1.136327984668678E+003	5.8837610E-001	-2.7040155E+002
3	0	1.136827984656047E+003	5.5768597E-001	-2.7038031E+002
3	0	1.137327984643416E+003	5.4615659E-001	-2.7038031E+002
3	0	1.137827984630785E+003	5.4202402E-001	-2.7038031E+002
3	0	1.138327984618154E+003	5.4175055E-001	-2.7036267E+002
3	0	1.138827984605523E+003	5.4462612E-001	-2.7036972E+002
3	0	1.139327984592892E+003	5.4830056E-001	-2.7037677E+002
3	0	1.139827984580261E+003	5.5199003E-001	-2.7039447E+002
3	0	1.140327984567630E+003	5.5570465E-001	-2.7038742E+002
3	0	1.140827984554999E+003	5.5949861E-001	-2.7037677E+002
3	0	1.141327984542368E+003	5.6283921E-001	-2.7038385E+002
3	0	1.141827984529737E+003	5.6556779E-001	-2.7037677E+002
3	0	1.142327984517106E+003	5.6865120E-001	-2.7038385E+002
3	0	1.142827984504474E+003	5.7307196E-001	-2.7036972E+002
3	0	1.143327984491843E+003	5.7730550E-001	-2.7037677E+002
3	0	1.143827984479212E+003	5.8084780E-001	-2.7036267E+002
3	0	1.144327984466581E+003	5.8396506E-001	-2.7039801E+002
3	0	1.144827984453950E+003	5.8683950E-001	-2.7035559E+002
3	0	1.145327984441319E+003	5.8884531E-001	-2.7037326E+002
3	0	1.145827984428688E+003	5.9012944E-001	-2.7040506E+002
3	0	1.146327984416057E+003	5.9134543E-001	-2.7038031E+002
3	0	1.146827984403426E+003	5.9382200E-001	-2.7036972E+002
3	0	1.147327984390795E+003	5.9606653E-001	-2.7038742E+002
3	0	1.147827984378164E+003	5.9765941E-001	-2.7035913E+002
3	0	1.148327984365533E+003	5.9888506E-001	-2.7037326E+002
3	0	1.148827984352902E+003	5.9977460E-001	-2.7036972E+002
3	0	1.149327984340271E+003	5.9999591E-001	-2.7040155E+002
3	0	1.149827984327640E+003	5.9966469E-001	-2.7039801E+002
3	0	1.150327984315009E+003	5.9942043E-001	-2.7039447E+002
3	0	1.150827984302377E+003	6.0073096E-001	-2.7039093E+002
3	0	1.151327984289746E+003	6.0205364E-001	-2.7038742E+002
3	0	1.151827984277115E+003	6.0283983E-001	-2.7036972E+002
3	0	1.152327984264484E+003	6.0363507E-001	-2.7037326E+002
3	0	1.152827984251853E+003	6.0449225E-001	-2.7039093E+002
3	0	1.153327984239222E+003	6.0510081E-001	-2.7038385E+002
3	0	1.153827984226591E+003	6.0558170E-001	-2.7037677E+002
3	0	1.154327984213960E+003	6.0666895E-001	-2.7039093E+002
3	0	1.154827984201329E+003	6.0972583E-001	-2.7036618E+002
3	0	1.155327984188698E+003	6.1322784E-001	-2.7037677E+002
3	0	1.155827984176067E+003	6.1622518E-001	-2.7039801E+002
3	0	1.156327984163436E+003	6.1894816E-001	-2.7036618E+002
3	0	1.156827984150805E+003	6.2149137E-001	-2.7038385E+002
3	0	1.157327984138174E+003	6.2345344E-001	-2.7037326E+002
3	0	1.157827984125543E+003	6.2472010E-001	-2.7038385E+002
3	0	1.158327984112912E+003	6.2598211E-001	-2.7037677E+002
3	0	1.158827984100280E+003	6.2863111E-001	-2.7038031E+002
3	0	1.159327984087649E+003	6.3109112E-001	-2.7039093E+002
3	0	1.159827984075018E+003	6.3289613E-001	-2.7036267E+002
3	0	1.160327984062387E+003	6.3424212E-001	-2.7036618E+002
3	0	1.160827984049756E+003	6.3514215E-001	-2.7037326E+002
3	0	1.161327984037125E+003	6.3543081E-001	-2.7038031E+002
3	0	1.161827984024494E+003	6.3489890E-001	-2.7036972E+002
3	0	1.162327984011863E+003	6.3438576E-001	-2.7037677E+002
3	0	1.162827983999232E+003	6.3534534E-001	-2.7038031E+002
3	0	1.163327983986601E+003	6.3625258E-001	-2.7036618E+002
3	0	1.163827983973970E+003	6.3644129E-001	-2.7036267E+002
3	0	1.164327983961339E+003	6.3617998E-001	-2.7036972E+002
3	0	1.164827983948708E+003	6.3541520E-001	-2.7039093E+002
3	0	1.165327983936077E+003	6.3400418E-001	-2.7035559E+002
3	0	1.165827983923446E+003	6.3180614E-001	-2.7038385E+002
3	0	1.166327983910815E+003	6.2990338E-001	-2.7040860E+002
3	0	1.166827983898183E+003	6.2952632E-001	-2.7038031E+002
3	0	1.167327983885552E+003	6.2920874E-001	-2.7038742E+002
3	0	1.167827983872921E+003	6.2836760E-001	-2.7038385E+002
3	0	1.168327983860290E+003	6.2706858E-001	-2.7038031E+002
3	0	1.168827983847659E+003	6.2551230E-001	-2.7037326E+002
3	0	1.169327983835028E+003	6.2332773E-001	-2.7037677E+002
3	0	1.169827983822397E+003	6.2024915E-001	-2.7037677E+002
3	0	1.170327983809766E+003	6.1734039E-001	-2.7035205E+002
3	0	1.170827983797135E+003	6.1596882E-001	-2.7038385E+002
3	0	1.171327983784504E+003	6.1481512E-001	-2.7039093E+002
3	0	1.171827983771873E+003	6.1336792E-001	-2.7039801E+002
3	0	1.172327983759242E+003	6.1184704E-001	-2.7038385E+002
3	0	1.172827983746611E+003	6.1055517E-001	-2.7039093E+002
3	0	1.173327983733980E+003	6.0923207E-001	-2.7036972E+002
3	0	1.173827983721349E+003	6.0791302E-001	-2.7038031E+002
3	0	1.174327983708718E+003	6.0725570E-001	-2.7036618E+002
3	0	1.174827983696086E+003	6.0877079E-001	-2.7038742E+002
3	0	1.175327983683455E+003	6.1111146E-001	-2.7038742E+002
3	0	1.175827983670824E+003	6.1331576E-001	-2.7039093E+002
3	0	1.176327983658193E+003	6.1534834E-001	-2.7037326E+002
3	0	1.176827983645562E+003	6.1723500E-001	-2.7040860E+002
3	0	1.177327983632931E+003	6.1860102E-001	-2.7037677E+002
3	0	1.177827983620300E+003	6.1912513E-001	-2.7038385E+002
3	0	1.178327983607669E+003	6.1968195E-001	-2.7036972E+002
3	0	1.178827983595038E+003	6.2153786E-001	-2.7036618E+002
3	0	1.179327983582407E+003	6.2341851E-001	-2.7037677E+002
3	0	1.179827983569776E+003	6.2467301E-001	-2.7037326E+002
3	0	1.180327983557145E+003	6.2534207E-001	-2.7038742E+002
3	0	1.180827983544514E+003	6.2562346E-001	-2.7036267E+002
3	0	1.181327983531883E+003	6.2504447E-001	-2.7041214E+002
3	0	1.181827983519252E+003	6.2333834E-001	-2.7037326E+002
3	0	1.182327983506621E+003	6.2149316E-001	-2.7037677E+002
3	0	1.182827983493989E+003	6.2109768E-001	-2.7036267E+002
3	0	1.183327983481358E+003	6.2083668E-001	-2.7036972E+002
3	0	1.183827983468727E+003	6.1989576E-001	-2.7039093E+002
3	0	1.184327983456096E+003	6.1842752E-001	-2.7037326E+002
3	0	1.184827983443465E+003	6.1663240E-001	-2.7036267E+002
3	0	1.185327983430834E+003	6.1413872E-001	-2.7039093E+002
3	0	1.185827983418203E+003	6.1089331E-001	-2.7039093E+002
3	0	1.186327983405572E+003	6.0758394E-001	-2.7036972E+002
3	0	1.186827983392941E+003	6.0576552E-001	-2.7039801E+002
3	0	1.187327983380310E+003	6.0426933E-001	-2.7036972E+002
3	0	1.187827983367679E+003	6.0232598E-001	-2.7036618E+002
3	0	1.188327983355048E+003	5.9984273E-001	-2.7039093E+002
3	0	1.188827983342417E+003	5.9706485E-001	-2.7039447E+002
3	0	1.189327983329786E+003	5.9361321E-001	-2.7038742E+002
3	0	1.189827983317155E+003	5.8944422E-001	-2.7039801E+002
3	0	1.190327983304524E+003	5.8536291E-001	-2.7037677E+002
3	0	1.190827983291892E+003	5.8288074E-001	-2.7037326E+002
3	0	1.191327983279261E+003	5.8070898E-001	-2.7035205E+002
3	0	1.191827983266630E+003	5.7823670E-001	-2.7040155E+002
3	0	1.192327983253999E+003	5.7562822E-001	-2.7038031E+002
3	0	1.192827983241368E+003	5.7326150E-001	-2.7038385E+002
3	0	1.193327983228737E+003	5.7079989E-001	-2.7036267E+002
3	0	1.193827983216106E+003	5.6813520E-001	-2.7038031E+002
3	0	1.194327983203475E+003	5.6618249E-001	-2.7038031E+002
3	0	1.194827983190844E+003	5.6642032E-001	-2.7038031E+002
3	0	1.195327983178213E+003	5.6757224E-001	-2.7039093E+002
3	0	1.195827983165582E+003	5.6871247E-001	-2.7036618E+002
3	0	1.196327983152951E+003	5.6985277E-001	-2.7039093E+002
3	0	1.196827983140320E+003	5.7104105E-001	-2.7037677E+002
3	0	1.197327983127689E+003	5.7195741E-001	-2.7037677E+002
3	0	1.197827983115058E+003	5.7228035E-001	-2.7036267E+002
3	0	1.198327983102427E+003	5.7256746E-001	-2.7036972E+002
3	0	1.198827983089795E+003	5.7421726E-001	-2.7036267E+002
3	0	1.199327983077164E+003	5.7603675E-001	-2.7037677E+002
3	0	1.199827983064533E+003	5.7729989E-001	-2.7036972E+002
3	0	1.200327983051902E+003	5.7793581E-001	-2.7039093E+002
3	0	1.200827983039271E+003	5.7808572E-001	-2.7036972E+002
3	0	1.201327983026640E+003	5.7735384E-001	-2.7038385E+002
3	0	1.201827983014009E+003	5.7562351E-001	-2.7038031E+002
3	0	1.202327983001378E+003	5.7383031E-001	-2.7036267E+002
3	0	1.202827982988747E+003	5.7338333E-001	-2.7035559E+002
3	0	1.203327982976116E+003	5.7303935E-001	-2.7038385E+002
3	0	1.203827982963485E+003	5.7213825E-001	-2.7039801E+002
3	0	1.204327982950854E+003	5.7057136E-001	-2.7035913E+002
3	0	1.204827982938223E+003	5.6856549E-001	-2.7038385E+002
3	0	1.205327982925592E+003	5.6591880E-001	-2.7035205E+002
3	0	1.205827982912961E+003	5.6214589E-001	-2.7038385E+002
3	0	1.206327982900330E+003	5.5825251E-001	-2.7037677E+002
3	0	1.206827982887698E+003	5.5570179E-001	-2.7042273E+002
3	0	1.207327982875067E+003	5.5329680E-001	-2.7038031E+002
3	0	1.207827982862436E+003	5.5033302E-001	-2.7038031E+002
3	0	1.208327982849805E+003	5.4704529E-001	-2.7036972E+002
3	0	1.208827982837174E+003	5.4351956E-001	-2.7037326E+002
3	0	1.209327982824543E+003	5.3959143E-001	-2.7037677E+002
3	0	1.209827982811912E+003	5.3503168E-001	-2.7036972E+002
3	0	1.210327982799281E+003	5.3062737E-001	-2.7034851E+002
3	0	1.210827982786650E+003	5.2754325E-001	-2.7039801E+002
3	0	1.211327982774019E+003	5.2475083E-001	-2.7038385E+002
3	0	1.211827982761388E+003	5.2157074E-001	-2.7039447E+002
3	0	1.212327982748757E+003	5.1822573E-001	-2.7037326E+002
3	0	1.212827982736126E+003	5.1508737E-001	-2.7038385E+002
3	0	1.213327982723495E+003	5.1193655E-001	-2.7039093E+002
3	0	1.213827982710864E+003	5.0866282E-001	-2.7038385E+002
3	0	1.214327982698233E+003	5.0605184E-001	-2.7037326E+002
3	0	1.214827982685601E+003	5.0529265E-001	-2.7036972E+002
3	0	1.215327982672970E+003	5.0523078E-001	-2.7037326E+002
3	0	1.215827982660339E+003	5.0529909E-001	-2.7040155E+002
3	0	1.216327982647708E+003	5.0552887E-001	-2.7038385E+002
3	0	1.216827982635077E+003	5.0593823E-001	-2.7039801E+002
3	0	1.217327982622446E+003	5.0611651E-001	-2.7038385E+002
3	0	1.217827982609815E+003	5.0553501E-001	-2.7039093E+002
3	0	1.218327982597184E+003	5.0503421E-001	-2.7037326E+002
3	0	1.218827982584553E+003	5.0580657E-001	-2.7040506E+002
3	0	1.218828382584543E+003	5.0633729E-001	-2.7039093E+002