EC-Lab ASCII FILE
Nb header lines : 55                          

Open Circuit Voltage

Run on channel : 1 (SN 81504)
User : 
CE vs. WE compliance from -10 V to 10 V
Electrode connection : standard
Potential control : Ewe
Ewe ctrl range : min = -2.50 V, max = 2.50 V
Safety Limits :
	Do not start on E overload
Acquisition started on : 05/09/2026 23:59:42.806
Loaded Setting File :  C:\PEM-WE_measurements\2026\372_IV_IV IrOx, 5 min Pt, 30 min C, etched cathode\new station\Loopeis new\1,46 V different time gaps closed cell\Loopeis 1,46V_30s_4_PEIS from 650Hz to 100Hz.mps
Saved on :
	File : L_04_Loopeis 1,46V_30s_4_PEIS from 650Hz to 100Hz_12_OCV_C01.mpr
	Directory : C:\PEM-WE_measurements\2026\372_IV_IV IrOx, 5 min Pt, 30 min C, etched cathode\new station\Loopeis new\1,46 V different time gaps closed cell\
	Host : 192.168.0.2
Device : SP-150e (SN .005491)
Address : 192.168.0.91
EC-LAB for windows v11.71 (software)
Internet server v28.00 (firmware)
Command interpretor v14.01 (firmware)
Electrode material : 
Initial state : 
Electrolyte : 
Comments : 
Current amplifier : SP-150eB-20A
Electrode surface area : 0.001 cm²
Characteristic mass : 0.001 g
Equivalent Weight : 0.000 g/eq.
Density : 0.000 g/cm3
Volume (V) : 0.001 cm³
Record Analogic IN 1
Text export
   Mode : Standard
   Time format : Elapsed
Cycle Definition : Charge/Discharge alternance
External device configuration :
   device type : Temperature Probe
   device name : Other
   Analog IN 1 : 
      unit : T/Â°C
      max : 100.000 at 2.000 V
      min : 0.000 at 1.460 V
tR (h:m:s)          0:00:30.0000        
dER/dt (mV/h)       1.0                 
record              <Ewe>               
dER (mV)            10.00               
dtR (s)             0.5000              
E range min (V)     -2.500              
E range max (V)     2.500               

mode	error	time/s	<Ewe/V>	Analog IN 1/V	
3	0	4.237249993545265E+002	1.2151484E+000	-2.7036972E+002
3	0	4.242249993418955E+002	1.2508518E+000	-2.7038742E+002
3	0	4.247249993292644E+002	1.2553718E+000	-2.7038031E+002
3	0	4.252249993166333E+002	1.2582222E+000	-2.7038385E+002
3	0	4.257249993040023E+002	1.2602652E+000	-2.7038031E+002
3	0	4.262249992913712E+002	1.2618263E+000	-2.7038742E+002
3	0	4.267249992787401E+002	1.2630663E+000	-2.7039093E+002
3	0	4.272249992661091E+002	1.2640733E+000	-2.7036972E+002
3	0	4.277249992534780E+002	1.2648703E+000	-2.7037326E+002
3	0	4.282249992408470E+002	1.2654808E+000	-2.7037677E+002
3	0	4.287249992282159E+002	1.2660002E+000	-2.7038031E+002
3	0	4.292249992155848E+002	1.2664820E+000	-2.7040506E+002
3	0	4.297249992029538E+002	1.2669019E+000	-2.7038031E+002
3	0	4.302249991903227E+002	1.2672585E+000	-2.7039801E+002
3	0	4.307249991776916E+002	1.2675591E+000	-2.7040155E+002
3	0	4.312249991650606E+002	1.2678139E+000	-2.7036972E+002
3	0	4.317249991524295E+002	1.2679913E+000	-2.7041214E+002
3	0	4.322249991397985E+002	1.2680796E+000	-2.7034851E+002
3	0	4.327249991271674E+002	1.2681476E+000	-2.7039093E+002
3	0	4.332249991145363E+002	1.2682581E+000	-2.7038385E+002
3	0	4.337249991019053E+002	1.2683471E+000	-2.7039801E+002
3	0	4.342249990892742E+002	1.2684157E+000	-2.7035913E+002
3	0	4.347249990766431E+002	1.2684586E+000	-2.7040506E+002
3	0	4.352249990640121E+002	1.2684792E+000	-2.7037326E+002
3	0	4.357249990513810E+002	1.2684408E+000	-2.7038385E+002
3	0	4.362249990387500E+002	1.2683287E+000	-2.7038031E+002
3	0	4.367249990261189E+002	1.2682077E+000	-2.7038031E+002
3	0	4.372249990134878E+002	1.2681445E+000	-2.7036267E+002
3	0	4.377249990008568E+002	1.2680838E+000	-2.7036972E+002
3	0	4.382249989882257E+002	1.2679968E+000	-2.7038385E+002
3	0	4.387249989755946E+002	1.2679094E+000	-2.7036972E+002
3	0	4.392249989629636E+002	1.2678044E+000	-2.7037677E+002
3	0	4.397249989503325E+002	1.2676406E+000	-2.7036618E+002
3	0	4.402249989377015E+002	1.2674164E+000	-2.7035913E+002
3	0	4.407249989250704E+002	1.2671801E+000	-2.7035913E+002
3	0	4.412249989124393E+002	1.2670070E+000	-2.7037677E+002
3	0	4.417249988998083E+002	1.2668357E+000	-2.7036618E+002
3	0	4.422249988871772E+002	1.2666444E+000	-2.7036972E+002
3	0	4.427249988745461E+002	1.2664500E+000	-2.7038385E+002
3	0	4.432249988619151E+002	1.2662525E+000	-2.7038385E+002
3	0	4.437249988492840E+002	1.2660047E+000	-2.7036972E+002
3	0	4.442249988366530E+002	1.2656864E+000	-2.7040506E+002
3	0	4.447249988240219E+002	1.2653729E+000	-2.7039093E+002
3	0	4.452249988113908E+002	1.2651153E+000	-2.7038742E+002
3	0	4.457249987987598E+002	1.2648650E+000	-2.7039093E+002
3	0	4.462249987861287E+002	1.2645943E+000	-2.7038742E+002
3	0	4.467249987734976E+002	1.2643075E+000	-2.7039801E+002
3	0	4.472249987608666E+002	1.2640114E+000	-2.7038031E+002
3	0	4.477249987482355E+002	1.2636697E+000	-2.7037326E+002
3	0	4.482249987356045E+002	1.2632550E+000	-2.7037326E+002
3	0	4.487249987229734E+002	1.2628415E+000	-2.7036267E+002
3	0	4.492249987103423E+002	1.2624921E+000	-2.7040155E+002
3	0	4.497249986977113E+002	1.2621429E+000	-2.7037326E+002
3	0	4.502249986850802E+002	1.2617854E+000	-2.7035913E+002
3	0	4.507249986724491E+002	1.2614334E+000	-2.7042627E+002
3	0	4.512249986598181E+002	1.2610780E+000	-2.7036972E+002
3	0	4.517249986471870E+002	1.2606677E+000	-2.7038031E+002
3	0	4.522249986345560E+002	1.2601994E+000	-2.7038385E+002
3	0	4.527249986219249E+002	1.2597389E+000	-2.7038742E+002
3	0	4.532249986092938E+002	1.2593452E+000	-2.7036972E+002
3	0	4.532505986086471E+002	1.2591509E+000	-2.7041214E+002