EC-Lab ASCII FILE
Nb header lines : 55                          

Open Circuit Voltage

Run on channel : 1 (SN 81504)
User : 
CE vs. WE compliance from -10 V to 10 V
Electrode connection : standard
Potential control : Ewe
Ewe ctrl range : min = -2.50 V, max = 2.50 V
Safety Limits :
	Do not start on E overload
Acquisition started on : 05/07/2026 17:16:31.252
Loaded Setting File :  C:\PEM-WE_measurements\2026\372_IV_IV IrOx, 5 min Pt, 30 min C, etched cathode\new station\Loopeis new\1,46 V different time gaps open cell\Loopeis 1,46V_60s_3_PEIS from 6500Hz to 1000Hz.mps
Saved on :
	File : L_13_Loopeis 1,46V_60s_3_PEIS from 6500Hz to 1000Hz_04_OCV_C01.mpr
	Directory : C:\PEM-WE_measurements\2026\372_IV_IV IrOx, 5 min Pt, 30 min C, etched cathode\new station\Loopeis new\1,46 V different time gaps open cell\
	Host : 192.168.0.2
Device : SP-150e (SN .005491)
Address : 192.168.0.91
EC-LAB for windows v11.71 (software)
Internet server v28.00 (firmware)
Command interpretor v14.01 (firmware)
Electrode material : 
Initial state : 
Electrolyte : 
Comments : 
Current amplifier : SP-150eB-20A
Electrode surface area : 0.001 cm²
Characteristic mass : 0.001 g
Equivalent Weight : 0.000 g/eq.
Density : 0.000 g/cm3
Volume (V) : 0.001 cm³
Record Analogic IN 1
Text export
   Mode : Standard
   Time format : Elapsed
Cycle Definition : Charge/Discharge alternance
External device configuration :
   device type : Temperature Probe
   device name : Other
   Analog IN 1 : 
      unit : T/Â°C
      max : 100.000 at 2.000 V
      min : 0.000 at 1.460 V
tR (h:m:s)          0:01:0.0000         
dER/dt (mV/h)       1.0                 
record              <Ewe>               
dER (mV)            10.00               
dtR (s)             0.5000              
E range min (V)     -2.500              
E range max (V)     2.500               

mode	error	time/s	<Ewe/V>	Analog IN 1/V	
3	0	1.504505994717329E+002	1.0729086E+000	-2.7036267E+002
3	0	1.509505994591018E+002	1.2292445E+000	-2.7035559E+002
3	0	1.514505994464707E+002	1.1992383E+000	-2.7039801E+002
3	0	1.519505994338397E+002	1.1323632E+000	-2.7036972E+002
3	0	1.524505994212086E+002	9.2737299E-001	-2.7038385E+002
3	0	1.529505994085775E+002	4.8261809E-001	-2.7038031E+002
3	0	1.534505993959465E+002	3.4029377E-001	-2.7038385E+002
3	0	1.539505993833154E+002	3.2154709E-001	-2.7038031E+002
3	0	1.544505993706844E+002	3.1322396E-001	-2.7038031E+002
3	0	1.549505993580533E+002	3.0640623E-001	-2.7036618E+002
3	0	1.554505993454222E+002	3.0113459E-001	-2.7039093E+002
3	0	1.559505993327912E+002	2.9707849E-001	-2.7037677E+002
3	0	1.564505993201601E+002	2.9389161E-001	-2.7036972E+002
3	0	1.569505993075290E+002	2.9132354E-001	-2.7038031E+002
3	0	1.574505992948980E+002	2.8920752E-001	-2.7038385E+002
3	0	1.579505992822669E+002	2.8746903E-001	-2.7036267E+002
3	0	1.584505992696359E+002	2.8597897E-001	-2.7038385E+002
3	0	1.589505992570048E+002	2.8467876E-001	-2.7036267E+002
3	0	1.594505992443737E+002	2.8352660E-001	-2.7040860E+002
3	0	1.599505992317427E+002	2.8248122E-001	-2.7037326E+002
3	0	1.604505992191116E+002	2.8151393E-001	-2.7038742E+002
3	0	1.609505992064805E+002	2.8060037E-001	-2.7035913E+002
3	0	1.614505991938495E+002	2.7974275E-001	-2.7038385E+002
3	0	1.619505991812184E+002	2.7897188E-001	-2.7037677E+002
3	0	1.624505991685874E+002	2.7823830E-001	-2.7038385E+002
3	0	1.629505991559563E+002	2.7753854E-001	-2.7038385E+002
3	0	1.634505991433252E+002	2.7686748E-001	-2.7038385E+002
3	0	1.639505991306942E+002	2.7621290E-001	-2.7038031E+002
3	0	1.644505991180631E+002	2.7556249E-001	-2.7036267E+002
3	0	1.649505991054320E+002	2.7491683E-001	-2.7039093E+002
3	0	1.654505990928010E+002	2.7428928E-001	-2.7037326E+002
3	0	1.659505990801699E+002	2.7369595E-001	-2.7038742E+002
3	0	1.664505990675389E+002	2.7311707E-001	-2.7036267E+002
3	0	1.669505990549078E+002	2.7255055E-001	-2.7036972E+002
3	0	1.674505990422767E+002	2.7199477E-001	-2.7038385E+002
3	0	1.679505990296457E+002	2.7143747E-001	-2.7040155E+002
3	0	1.684505990170146E+002	2.7088541E-001	-2.7035205E+002
3	0	1.689505990043835E+002	2.7032235E-001	-2.7037326E+002
3	0	1.694505989917525E+002	2.6975861E-001	-2.7038385E+002
3	0	1.699505989791214E+002	2.6924026E-001	-2.7034851E+002
3	0	1.704505989664904E+002	2.6872411E-001	-2.7039447E+002
3	0	1.709505989538593E+002	2.6821241E-001	-2.7038031E+002
3	0	1.714505989412282E+002	2.6770163E-001	-2.7039801E+002
3	0	1.719505989285972E+002	2.6719788E-001	-2.7037326E+002
3	0	1.724505989159661E+002	2.6668373E-001	-2.7039447E+002
3	0	1.729505989033350E+002	2.6615518E-001	-2.7036972E+002
3	0	1.734505988907040E+002	2.6563221E-001	-2.7035913E+002
3	0	1.739505988780729E+002	2.6514387E-001	-2.7037677E+002
3	0	1.744505988654419E+002	2.6467255E-001	-2.7036618E+002
3	0	1.749505988528108E+002	2.6420063E-001	-2.7036267E+002
3	0	1.754505988401797E+002	2.6373205E-001	-2.7038031E+002
3	0	1.759505988275487E+002	2.6326251E-001	-2.7039447E+002
3	0	1.764505988149176E+002	2.6278451E-001	-2.7036618E+002
3	0	1.769505988022865E+002	2.6228750E-001	-2.7037677E+002
3	0	1.774505987896555E+002	2.6179713E-001	-2.7038031E+002
3	0	1.779505987770244E+002	2.6134142E-001	-2.7039093E+002
3	0	1.784505987643934E+002	2.6089576E-001	-2.7036267E+002
3	0	1.789505987517623E+002	2.6045299E-001	-2.7039093E+002
3	0	1.794505987391312E+002	2.6001313E-001	-2.7037677E+002
3	0	1.799505987265002E+002	2.5957468E-001	-2.7037326E+002
3	0	1.804505987138691E+002	2.5913185E-001	-2.7036267E+002
3	0	1.809505987012381E+002	2.5867224E-001	-2.7038031E+002
3	0	1.814505986886070E+002	2.5821123E-001	-2.7036972E+002
3	0	1.819505986759759E+002	2.5779265E-001	-2.7037677E+002
3	0	1.824505986633449E+002	2.5738019E-001	-2.7037326E+002
3	0	1.829505986507138E+002	2.5696439E-001	-2.7038031E+002
3	0	1.834505986380827E+002	2.5655124E-001	-2.7039447E+002
3	0	1.839505986254517E+002	2.5614196E-001	-2.7036972E+002
3	0	1.844505986128206E+002	2.5571939E-001	-2.7036267E+002
3	0	1.849505986001896E+002	2.5528541E-001	-2.7039801E+002
3	0	1.854505985875585E+002	2.5485590E-001	-2.7037677E+002
3	0	1.859505985749274E+002	2.5446495E-001	-2.7038385E+002
3	0	1.864505985622964E+002	2.5408465E-001	-2.7036618E+002
3	0	1.869505985496653E+002	2.5369856E-001	-2.7038031E+002
3	0	1.874505985370342E+002	2.5331560E-001	-2.7037677E+002
3	0	1.879505985244032E+002	2.5293964E-001	-2.7038385E+002
3	0	1.884505985117721E+002	2.5255531E-001	-2.7036972E+002
3	0	1.889505984991411E+002	2.5215051E-001	-2.7039801E+002
3	0	1.894505984865100E+002	2.5174743E-001	-2.7036972E+002
3	0	1.899505984738789E+002	2.5139105E-001	-2.7035913E+002
3	0	1.904505984612479E+002	2.5103888E-001	-2.7039093E+002
3	0	1.909505984486168E+002	2.5068459E-001	-2.7038031E+002
3	0	1.914505984359857E+002	2.5033426E-001	-2.7038031E+002
3	0	1.919505984233547E+002	2.4998736E-001	-2.7036618E+002
3	0	1.924505984107236E+002	2.4963121E-001	-2.7036267E+002
3	0	1.929505983980926E+002	2.4925849E-001	-2.7036972E+002
3	0	1.934505983854615E+002	2.4888457E-001	-2.7036267E+002
3	0	1.939505983728304E+002	2.4855809E-001	-2.7037677E+002
3	0	1.944505983601994E+002	2.4823061E-001	-2.7038385E+002
3	0	1.949505983475683E+002	2.4790663E-001	-2.7038031E+002
3	0	1.954505983349372E+002	2.4758504E-001	-2.7037677E+002
3	0	1.959505983223062E+002	2.4726404E-001	-2.7039801E+002
3	0	1.964505983096751E+002	2.4693082E-001	-2.7040506E+002
3	0	1.969505982970441E+002	2.4658313E-001	-2.7036618E+002
3	0	1.974505982844130E+002	2.4623618E-001	-2.7039093E+002
3	0	1.979505982717819E+002	2.4593158E-001	-2.7037326E+002
3	0	1.984505982591509E+002	2.4563757E-001	-2.7037326E+002
3	0	1.989505982465198E+002	2.4534380E-001	-2.7036267E+002
3	0	1.994505982338887E+002	2.4504963E-001	-2.7038031E+002
3	0	1.999505982212577E+002	2.4475096E-001	-2.7040860E+002
3	0	2.004505982086266E+002	2.4444441E-001	-2.7039093E+002
3	0	2.009505981959956E+002	2.4412608E-001	-2.7036267E+002
3	0	2.014505981833645E+002	2.4380407E-001	-2.7037326E+002
3	0	2.019505981707334E+002	2.4352399E-001	-2.7036972E+002
3	0	2.024505981581024E+002	2.4325429E-001	-2.7037326E+002
3	0	2.029505981454713E+002	2.4297337E-001	-2.7038031E+002
3	0	2.034505981328402E+002	2.4269496E-001	-2.7039447E+002
3	0	2.039505981202092E+002	2.4240926E-001	-2.7040155E+002
3	0	2.044505981075781E+002	2.4212320E-001	-2.7036267E+002
3	0	2.049505980949471E+002	2.4182941E-001	-2.7039093E+002
3	0	2.054505980823160E+002	2.4153304E-001	-2.7037677E+002
3	0	2.059505980696849E+002	2.4127743E-001	-2.7036618E+002
3	0	2.064505980570539E+002	2.4102467E-001	-2.7037677E+002
3	0	2.069505980444228E+002	2.4078096E-001	-2.7034851E+002
3	0	2.074505980317917E+002	2.4053082E-001	-2.7036267E+002
3	0	2.079505980191607E+002	2.4028736E-001	-2.7040506E+002
3	0	2.084505980065296E+002	2.4003443E-001	-2.7037677E+002
3	0	2.089505979938986E+002	2.3976256E-001	-2.7039447E+002
3	0	2.094505979812675E+002	2.3949417E-001	-2.7037326E+002
3	0	2.099505979686364E+002	2.3926453E-001	-2.7038385E+002
3	0	2.099769979679695E+002	2.3914374E-001	-2.7038742E+002