EC-Lab ASCII FILE
Nb header lines : 55                          

Open Circuit Voltage

Run on channel : 1 (SN 81504)
User : 
CE vs. WE compliance from -10 V to 10 V
Electrode connection : standard
Potential control : Ewe
Ewe ctrl range : min = -2.50 V, max = 2.50 V
Safety Limits :
	Do not start on E overload
Acquisition started on : 05/10/2026 02:45:19.470
Loaded Setting File :  C:\PEM-WE_measurements\2026\372_IV_IV IrOx, 5 min Pt, 30 min C, etched cathode\new station\Loopeis new\1,46 V different time gaps closed cell\Loopeis 1,46V_60s_4_PEIS from 650Hz to 100Hz.mps
Saved on :
	File : L_14_Loopeis 1,46V_60s_4_PEIS from 650Hz to 100Hz_06_OCV_C01.mpr
	Directory : C:\PEM-WE_measurements\2026\372_IV_IV IrOx, 5 min Pt, 30 min C, etched cathode\new station\Loopeis new\1,46 V different time gaps closed cell\
	Host : 192.168.0.2
Device : SP-150e (SN .005491)
Address : 192.168.0.91
EC-LAB for windows v11.71 (software)
Internet server v28.00 (firmware)
Command interpretor v14.01 (firmware)
Electrode material : 
Initial state : 
Electrolyte : 
Comments : 
Current amplifier : SP-150eB-20A
Electrode surface area : 0.001 cm²
Characteristic mass : 0.001 g
Equivalent Weight : 0.000 g/eq.
Density : 0.000 g/cm3
Volume (V) : 0.001 cm³
Record Analogic IN 1
Text export
   Mode : Standard
   Time format : Elapsed
Cycle Definition : Charge/Discharge alternance
External device configuration :
   device type : Temperature Probe
   device name : Other
   Analog IN 1 : 
      unit : T/Â°C
      max : 100.000 at 2.000 V
      min : 0.000 at 1.460 V
tR (h:m:s)          0:01:0.0000         
dER/dt (mV/h)       1.0                 
record              <Ewe>               
dER (mV)            10.00               
dtR (s)             0.5000              
E range min (V)     -2.500              
E range max (V)     2.500               

mode	error	time/s	<Ewe/V>	Analog IN 1/V	
3	0	2.562685968560982E+002	1.4154104E+000	-2.7036972E+002
3	0	2.567685968434671E+002	1.4061877E+000	-2.7040155E+002
3	0	2.572685968308360E+002	1.4000608E+000	-2.7037677E+002
3	0	2.577685968182050E+002	1.3955348E+000	-2.7038385E+002
3	0	2.582685968055739E+002	1.3918356E+000	-2.7038031E+002
3	0	2.587685967929428E+002	1.3886091E+000	-2.7039093E+002
3	0	2.592685967803118E+002	1.3858144E+000	-2.7038031E+002
3	0	2.597685967676807E+002	1.3833973E+000	-2.7038385E+002
3	0	2.602685967550497E+002	1.3812205E+000	-2.7037677E+002
3	0	2.607685967424186E+002	1.3792485E+000	-2.7037326E+002
3	0	2.612685967297875E+002	1.3774579E+000	-2.7035205E+002
3	0	2.617685967171565E+002	1.3757854E+000	-2.7036618E+002
3	0	2.622685967045254E+002	1.3741961E+000	-2.7039447E+002
3	0	2.627685966918943E+002	1.3726254E+000	-2.7037677E+002
3	0	2.632685966792633E+002	1.3712029E+000	-2.7036618E+002
3	0	2.637685966666322E+002	1.3699359E+000	-2.7038742E+002
3	0	2.642685966540012E+002	1.3687346E+000	-2.7039801E+002
3	0	2.647685966413701E+002	1.3676296E+000	-2.7038031E+002
3	0	2.652685966287390E+002	1.3665773E+000	-2.7040860E+002
3	0	2.657685966161080E+002	1.3655882E+000	-2.7038742E+002
3	0	2.662685966034769E+002	1.3645933E+000	-2.7036267E+002
3	0	2.667685965908458E+002	1.3635664E+000	-2.7038031E+002
3	0	2.672685965782148E+002	1.3626395E+000	-2.7038385E+002
3	0	2.677685965655837E+002	1.3618218E+000	-2.7038031E+002
3	0	2.682685965529527E+002	1.3610337E+000	-2.7036972E+002
3	0	2.687685965403216E+002	1.3602965E+000	-2.7035559E+002
3	0	2.692685965276905E+002	1.3596121E+000	-2.7038031E+002
3	0	2.697685965150595E+002	1.3589332E+000	-2.7040506E+002
3	0	2.702685965024284E+002	1.3582329E+000	-2.7034851E+002
3	0	2.707685964897973E+002	1.3574816E+000	-2.7037326E+002
3	0	2.712685964771663E+002	1.3568150E+000	-2.7037326E+002
3	0	2.717685964645352E+002	1.3562263E+000	-2.7034851E+002
3	0	2.722685964519042E+002	1.3556592E+000	-2.7038031E+002
3	0	2.727685964392731E+002	1.3551356E+000	-2.7040506E+002
3	0	2.732685964266420E+002	1.3546288E+000	-2.7038031E+002
3	0	2.737685964140110E+002	1.3541265E+000	-2.7035205E+002
3	0	2.742685964013799E+002	1.3535761E+000	-2.7038385E+002
3	0	2.747685963887488E+002	1.3529725E+000	-2.7038031E+002
3	0	2.752685963761178E+002	1.3524408E+000	-2.7038031E+002
3	0	2.757685963634867E+002	1.3519843E+000	-2.7036267E+002
3	0	2.762685963508557E+002	1.3515278E+000	-2.7039093E+002
3	0	2.767685963382246E+002	1.3510998E+000	-2.7039093E+002
3	0	2.772685963255935E+002	1.3506978E+000	-2.7038385E+002
3	0	2.777685963129625E+002	1.3503091E+000	-2.7039093E+002
3	0	2.782685963003314E+002	1.3498756E+000	-2.7039447E+002
3	0	2.787685962877003E+002	1.3493936E+000	-2.7037326E+002
3	0	2.792685962750693E+002	1.3489890E+000	-2.7038385E+002
3	0	2.797685962624382E+002	1.3486724E+000	-2.7037326E+002
3	0	2.802685962498072E+002	1.3483609E+000	-2.7037677E+002
3	0	2.807685962371761E+002	1.3480802E+000	-2.7038385E+002
3	0	2.812685962245450E+002	1.3478166E+000	-2.7037326E+002
3	0	2.817685962119140E+002	1.3475498E+000	-2.7039093E+002
3	0	2.822685961992829E+002	1.3472414E+000	-2.7036267E+002
3	0	2.827685961866518E+002	1.3468653E+000	-2.7039093E+002
3	0	2.832685961740208E+002	1.3465471E+000	-2.7039093E+002
3	0	2.837685961613897E+002	1.3463008E+000	-2.7036972E+002
3	0	2.842685961487587E+002	1.3460494E+000	-2.7039093E+002
3	0	2.847685961361276E+002	1.3458158E+000	-2.7035913E+002
3	0	2.852685961234965E+002	1.3455821E+000	-2.7036267E+002
3	0	2.857685961108655E+002	1.3453337E+000	-2.7036972E+002
3	0	2.862685960982344E+002	1.3450251E+000	-2.7035559E+002
3	0	2.867685960856033E+002	1.3446442E+000	-2.7036267E+002
3	0	2.872685960729723E+002	1.3443177E+000	-2.7036972E+002
3	0	2.877685960603412E+002	1.3440517E+000	-2.7036618E+002
3	0	2.882685960477102E+002	1.3437639E+000	-2.7037326E+002
3	0	2.887685960350791E+002	1.3434905E+000	-2.7037677E+002
3	0	2.892685960224480E+002	1.3432168E+000	-2.7035559E+002
3	0	2.897685960098170E+002	1.3429347E+000	-2.7039801E+002
3	0	2.902685959971859E+002	1.3425918E+000	-2.7036972E+002
3	0	2.907685959845549E+002	1.3421762E+000	-2.7039093E+002
3	0	2.912685959719238E+002	1.3418149E+000	-2.7037677E+002
3	0	2.917685959592927E+002	1.3415171E+000	-2.7036618E+002
3	0	2.922685959466617E+002	1.3412056E+000	-2.7041568E+002
3	0	2.927685959340306E+002	1.3409089E+000	-2.7038385E+002
3	0	2.932685959213995E+002	1.3406116E+000	-2.7036618E+002
3	0	2.937685959087685E+002	1.3402973E+000	-2.7036972E+002
3	0	2.942685958961374E+002	1.3399190E+000	-2.7038031E+002
3	0	2.947685958835064E+002	1.3394829E+000	-2.7039093E+002
3	0	2.952685958708753E+002	1.3390939E+000	-2.7037326E+002
3	0	2.957685958582442E+002	1.3387663E+000	-2.7039447E+002
3	0	2.962685958456132E+002	1.3384397E+000	-2.7039801E+002
3	0	2.967685958329821E+002	1.3381268E+000	-2.7038031E+002
3	0	2.972685958203510E+002	1.3378236E+000	-2.7039801E+002
3	0	2.977685958077200E+002	1.3375075E+000	-2.7038742E+002
3	0	2.982685957950889E+002	1.3371542E+000	-2.7038031E+002
3	0	2.987685957824579E+002	1.3367409E+000	-2.7038031E+002
3	0	2.992685957698268E+002	1.3364035E+000	-2.7038742E+002
3	0	2.997685957571957E+002	1.3361399E+000	-2.7039093E+002
3	0	3.002685957445647E+002	1.3358811E+000	-2.7036972E+002
3	0	3.007685957319336E+002	1.3356414E+000	-2.7038385E+002
3	0	3.012685957193025E+002	1.3354230E+000	-2.7038031E+002
3	0	3.017685957066715E+002	1.3351964E+000	-2.7037326E+002
3	0	3.022685956940404E+002	1.3349036E+000	-2.7035913E+002
3	0	3.027685956814094E+002	1.3345467E+000	-2.7039801E+002
3	0	3.032685956687783E+002	1.3342541E+000	-2.7038031E+002
3	0	3.037685956561472E+002	1.3340266E+000	-2.7036972E+002
3	0	3.042685956435162E+002	1.3337829E+000	-2.7038385E+002
3	0	3.047685956308851E+002	1.3335539E+000	-2.7037677E+002
3	0	3.052685956182540E+002	1.3333219E+000	-2.7038385E+002
3	0	3.057685956056230E+002	1.3330735E+000	-2.7038385E+002
3	0	3.062685955929919E+002	1.3327619E+000	-2.7036972E+002
3	0	3.067685955803609E+002	1.3323874E+000	-2.7038385E+002
3	0	3.072685955677298E+002	1.3320574E+000	-2.7036267E+002
3	0	3.077685955550987E+002	1.3317994E+000	-2.7038031E+002
3	0	3.082685955424677E+002	1.3315307E+000	-2.7037326E+002
3	0	3.087685955298366E+002	1.3312738E+000	-2.7039447E+002
3	0	3.092685955172055E+002	1.3310108E+000	-2.7039447E+002
3	0	3.097685955045745E+002	1.3307313E+000	-2.7038742E+002
3	0	3.102685954919434E+002	1.3304037E+000	-2.7041568E+002
3	0	3.107685954793124E+002	1.3299942E+000	-2.7039093E+002
3	0	3.112685954666813E+002	1.3296468E+000	-2.7038031E+002
3	0	3.117685954540502E+002	1.3293653E+000	-2.7038031E+002
3	0	3.122685954414192E+002	1.3290727E+000	-2.7038385E+002
3	0	3.127685954287881E+002	1.3287739E+000	-2.7040155E+002
3	0	3.132685954161570E+002	1.3284839E+000	-2.7036267E+002
3	0	3.137685954035260E+002	1.3281794E+000	-2.7037677E+002
3	0	3.142685953908949E+002	1.3278232E+000	-2.7039093E+002
3	0	3.147685953782639E+002	1.3273880E+000	-2.7041214E+002
3	0	3.152685953656328E+002	1.3270097E+000	-2.7036267E+002
3	0	3.157685953530017E+002	1.3266941E+000	-2.7036972E+002
3	0	3.157689953529916E+002	1.3265229E+000	-2.7037326E+002