EC-Lab ASCII FILE
Nb header lines : 55                          

Open Circuit Voltage

Run on channel : 1 (SN 81504)
User : 
CE vs. WE compliance from -10 V to 10 V
Electrode connection : standard
Potential control : Ewe
Ewe ctrl range : min = -2.50 V, max = 2.50 V
Safety Limits :
	Do not start on E overload
Acquisition started on : 05/07/2026 16:01:37.735
Loaded Setting File :  C:\PEM-WE_measurements\2026\372_IV_IV IrOx, 5 min Pt, 30 min C, etched cathode\new station\Loopeis new\1,46 V different time gaps open cell\Loopeis 1,46V_45s_4_PEIS from 650Hz to 100Hz.mps
Saved on :
	File : L_09_Loopeis 1,46V_45s_4_PEIS from 650Hz to 100Hz_18_OCV_C01.mpr
	Directory : C:\PEM-WE_measurements\2026\372_IV_IV IrOx, 5 min Pt, 30 min C, etched cathode\new station\Loopeis new\1,46 V different time gaps open cell\
	Host : 192.168.0.2
Device : SP-150e (SN .005491)
Address : 192.168.0.91
EC-LAB for windows v11.71 (software)
Internet server v28.00 (firmware)
Command interpretor v14.01 (firmware)
Electrode material : 
Initial state : 
Electrolyte : 
Comments : 
Current amplifier : SP-150eB-20A
Electrode surface area : 0.001 cm²
Characteristic mass : 0.001 g
Equivalent Weight : 0.000 g/eq.
Density : 0.000 g/cm3
Volume (V) : 0.001 cm³
Record Analogic IN 1
Text export
   Mode : Standard
   Time format : Elapsed
Cycle Definition : Charge/Discharge alternance
External device configuration :
   device type : Temperature Probe
   device name : Other
   Analog IN 1 : 
      unit : T/Â°C
      max : 100.000 at 2.000 V
      min : 0.000 at 1.460 V
tR (h:m:s)          0:00:45.0000        
dER/dt (mV/h)       1.0                 
record              <Ewe>               
dER (mV)            10.00               
dtR (s)             0.5000              
E range min (V)     -2.500              
E range max (V)     2.500               

mode	error	time/s	<Ewe/V>	Analog IN 1/V	
3	0	7.698629939652892E+002	1.2769568E+000	-2.7037677E+002
3	0	7.703629939526581E+002	1.2724024E+000	-2.7036972E+002
3	0	7.708629939400271E+002	1.2370427E+000	-2.7036972E+002
3	0	7.713629939273960E+002	1.1635362E+000	-2.7038742E+002
3	0	7.718629939147650E+002	9.2296588E-001	-2.7037326E+002
3	0	7.723629939021339E+002	4.7565246E-001	-2.7038385E+002
3	0	7.728629938895028E+002	3.5963589E-001	-2.7039447E+002
3	0	7.733629938768718E+002	3.4323701E-001	-2.7037677E+002
3	0	7.738629938642407E+002	3.3410814E-001	-2.7037326E+002
3	0	7.743629938516096E+002	3.2695365E-001	-2.7038031E+002
3	0	7.748629938389786E+002	3.2156298E-001	-2.7040506E+002
3	0	7.753629938263475E+002	3.1748140E-001	-2.7038385E+002
3	0	7.758629938137165E+002	3.1428805E-001	-2.7036972E+002
3	0	7.763629938010854E+002	3.1173241E-001	-2.7039447E+002
3	0	7.768629937884543E+002	3.0962217E-001	-2.7039447E+002
3	0	7.773629937758233E+002	3.0784500E-001	-2.7038385E+002
3	0	7.778629937631922E+002	3.0628914E-001	-2.7035913E+002
3	0	7.783629937505611E+002	3.0489799E-001	-2.7038385E+002
3	0	7.788629937379301E+002	3.0367088E-001	-2.7038031E+002
3	0	7.793629937252990E+002	3.0259100E-001	-2.7039801E+002
3	0	7.798629937126680E+002	3.0159986E-001	-2.7037677E+002
3	0	7.803629937000369E+002	3.0067691E-001	-2.7036972E+002
3	0	7.808629936874058E+002	2.9981402E-001	-2.7037326E+002
3	0	7.813629936747748E+002	2.9900011E-001	-2.7037326E+002
3	0	7.818629936621437E+002	2.9821393E-001	-2.7037677E+002
3	0	7.823629936495126E+002	2.9743350E-001	-2.7039801E+002
3	0	7.828629936368816E+002	2.9669541E-001	-2.7038031E+002
3	0	7.833629936242505E+002	2.9601097E-001	-2.7040155E+002
3	0	7.838629936116195E+002	2.9534888E-001	-2.7035559E+002
3	0	7.843629935989884E+002	2.9470229E-001	-2.7039801E+002
3	0	7.848629935863573E+002	2.9407156E-001	-2.7037326E+002
3	0	7.853629935737263E+002	2.9345292E-001	-2.7038385E+002
3	0	7.858629935610952E+002	2.9283008E-001	-2.7037326E+002
3	0	7.863629935484641E+002	2.9219496E-001	-2.7037326E+002
3	0	7.868629935358331E+002	2.9158461E-001	-2.7036972E+002
3	0	7.873629935232020E+002	2.9100698E-001	-2.7038385E+002
3	0	7.878629935105710E+002	2.9044130E-001	-2.7038031E+002
3	0	7.883629934979399E+002	2.8988922E-001	-2.7036618E+002
3	0	7.888629934853088E+002	2.8933486E-001	-2.7038031E+002
3	0	7.893629934726778E+002	2.8878820E-001	-2.7036972E+002
3	0	7.898629934600467E+002	2.8823119E-001	-2.7036618E+002
3	0	7.903629934474156E+002	2.8764936E-001	-2.7036972E+002
3	0	7.908629934347846E+002	2.8709635E-001	-2.7036972E+002
3	0	7.913629934221535E+002	2.8657889E-001	-2.7036267E+002
3	0	7.918629934095225E+002	2.8606132E-001	-2.7035205E+002
3	0	7.923629933968914E+002	2.8554583E-001	-2.7037677E+002
3	0	7.928629933842603E+002	2.8503385E-001	-2.7038385E+002
3	0	7.933629933716293E+002	2.8452605E-001	-2.7036267E+002
3	0	7.938629933589982E+002	2.8400800E-001	-2.7036618E+002
3	0	7.943629933463671E+002	2.8346422E-001	-2.7035913E+002
3	0	7.948629933337361E+002	2.8295135E-001	-2.7037677E+002
3	0	7.953629933211050E+002	2.8247622E-001	-2.7037677E+002
3	0	7.958629933084740E+002	2.8200704E-001	-2.7038031E+002
3	0	7.963629932958429E+002	2.8152958E-001	-2.7038031E+002
3	0	7.968629932832118E+002	2.8105590E-001	-2.7038742E+002
3	0	7.973629932705808E+002	2.8059027E-001	-2.7038385E+002
3	0	7.978629932579497E+002	2.8010216E-001	-2.7036618E+002
3	0	7.983629932453186E+002	2.7960569E-001	-2.7036618E+002
3	0	7.988629932326876E+002	2.7913171E-001	-2.7036618E+002
3	0	7.993629932200565E+002	2.7869120E-001	-2.7035913E+002
3	0	7.998629932074255E+002	2.7825263E-001	-2.7040155E+002
3	0	8.003629931947944E+002	2.7781305E-001	-2.7038742E+002
3	0	8.008629931821633E+002	2.7737910E-001	-2.7040155E+002
3	0	8.013629931695323E+002	2.7694574E-001	-2.7036972E+002
3	0	8.018629931569012E+002	2.7649391E-001	-2.7039093E+002
3	0	8.023629931442701E+002	2.7603349E-001	-2.7038385E+002
3	0	8.028629931316391E+002	2.7559862E-001	-2.7037326E+002
3	0	8.033629931190080E+002	2.7518854E-001	-2.7037326E+002
3	0	8.038629931063770E+002	2.7478772E-001	-2.7037677E+002
3	0	8.043629930937459E+002	2.7438909E-001	-2.7035913E+002
3	0	8.048629930811148E+002	2.7397880E-001	-2.7037677E+002
3	0	8.053629930684838E+002	2.7358133E-001	-2.7038031E+002
3	0	8.058629930558527E+002	2.7316263E-001	-2.7037326E+002
3	0	8.063629930432217E+002	2.7272573E-001	-2.7040860E+002
3	0	8.068629930305906E+002	2.7232403E-001	-2.7037677E+002
3	0	8.073629930179595E+002	2.7195114E-001	-2.7038385E+002
3	0	8.078629930053285E+002	2.7157378E-001	-2.7038385E+002
3	0	8.083629929926974E+002	2.7118960E-001	-2.7037326E+002
3	0	8.088629929800663E+002	2.7082184E-001	-2.7037677E+002
3	0	8.093629929674353E+002	2.7044207E-001	-2.7037326E+002
3	0	8.098629929548042E+002	2.7004749E-001	-2.7039093E+002
3	0	8.103629929421732E+002	2.6965219E-001	-2.7036618E+002
3	0	8.108629929295421E+002	2.6928219E-001	-2.7037677E+002
3	0	8.113629929169110E+002	2.6893610E-001	-2.7037677E+002
3	0	8.118629929042800E+002	2.6858982E-001	-2.7040155E+002
3	0	8.123629928916489E+002	2.6824164E-001	-2.7037326E+002
3	0	8.128629928790178E+002	2.6789433E-001	-2.7036972E+002
3	0	8.133629928663868E+002	2.6754436E-001	-2.7037677E+002
3	0	8.138629928537557E+002	2.6718456E-001	-2.7035559E+002
3	0	8.143629928411247E+002	2.6681054E-001	-2.7038742E+002
3	0	8.143633928411145E+002	2.6664749E-001	-2.7038385E+002