EC-Lab ASCII FILE
Nb header lines : 55                          

Open Circuit Voltage

Run on channel : 1 (SN 81504)
User : 
CE vs. WE compliance from -10 V to 10 V
Electrode connection : standard
Potential control : Ewe
Ewe ctrl range : min = -2.50 V, max = 2.50 V
Safety Limits :
	Do not start on E overload
Acquisition started on : 05/07/2026 19:04:33.160
Loaded Setting File :  C:\PEM-WE_measurements\2026\372_IV_IV IrOx, 5 min Pt, 30 min C, etched cathode\new station\Loopeis new\1,46 V different time gaps open cell\Loopeis 1,46V_90s_3_PEIS from 6500Hz to 1000Hz.mps
Saved on :
	File : L_18_Loopeis 1,46V_90s_3_PEIS from 6500Hz to 1000Hz_18_OCV_C01.mpr
	Directory : C:\PEM-WE_measurements\2026\372_IV_IV IrOx, 5 min Pt, 30 min C, etched cathode\new station\Loopeis new\1,46 V different time gaps open cell\
	Host : 192.168.0.2
Device : SP-150e (SN .005491)
Address : 192.168.0.91
EC-LAB for windows v11.71 (software)
Internet server v28.00 (firmware)
Command interpretor v14.01 (firmware)
Electrode material : 
Initial state : 
Electrolyte : 
Comments : 
Current amplifier : SP-150eB-20A
Electrode surface area : 0.001 cm²
Characteristic mass : 0.001 g
Equivalent Weight : 0.000 g/eq.
Density : 0.000 g/cm3
Volume (V) : 0.001 cm³
Record Analogic IN 1
Text export
   Mode : Standard
   Time format : Elapsed
Cycle Definition : Charge/Discharge alternance
External device configuration :
   device type : Temperature Probe
   device name : Other
   Analog IN 1 : 
      unit : T/Â°C
      max : 100.000 at 2.000 V
      min : 0.000 at 1.460 V
tR (h:m:s)          0:01:30.0000        
dER/dt (mV/h)       1.0                 
record              <Ewe>               
dER (mV)            10.00               
dtR (s)             0.5000              
E range min (V)     -2.500              
E range max (V)     2.500               

mode	error	time/s	<Ewe/V>	Analog IN 1/V	
3	0	1.130061984880376E+003	1.2677896E+000	-2.7036972E+002
3	0	1.130561984867745E+003	1.2528863E+000	-2.7038031E+002
3	0	1.131061984855114E+003	1.1898363E+000	-2.7037326E+002
3	0	1.131561984842483E+003	1.0479490E+000	-2.7037677E+002
3	0	1.132061984829852E+003	6.0570109E-001	-2.7036618E+002
3	0	1.132561984817221E+003	3.6187562E-001	-2.7037677E+002
3	0	1.133061984804590E+003	3.2577449E-001	-2.7036972E+002
3	0	1.133561984791959E+003	3.1678078E-001	-2.7039447E+002
3	0	1.134061984779328E+003	3.0951342E-001	-2.7039801E+002
3	0	1.134561984766697E+003	3.0377480E-001	-2.7038031E+002
3	0	1.135061984754066E+003	2.9939499E-001	-2.7038385E+002
3	0	1.135561984741435E+003	2.9600587E-001	-2.7038031E+002
3	0	1.136061984728804E+003	2.9333723E-001	-2.7040155E+002
3	0	1.136561984716172E+003	2.9117084E-001	-2.7039093E+002
3	0	1.137061984703541E+003	2.8936806E-001	-2.7037677E+002
3	0	1.137561984690910E+003	2.8782833E-001	-2.7040506E+002
3	0	1.138061984678279E+003	2.8646791E-001	-2.7040155E+002
3	0	1.138561984665648E+003	2.8527898E-001	-2.7036267E+002
3	0	1.139061984653017E+003	2.8423661E-001	-2.7036267E+002
3	0	1.139561984640386E+003	2.8326702E-001	-2.7038742E+002
3	0	1.140061984627755E+003	2.8238150E-001	-2.7039093E+002
3	0	1.140561984615124E+003	2.8155735E-001	-2.7036972E+002
3	0	1.141061984602493E+003	2.8075317E-001	-2.7038385E+002
3	0	1.141561984589862E+003	2.7997380E-001	-2.7038031E+002
3	0	1.142061984577231E+003	2.7924895E-001	-2.7036972E+002
3	0	1.142561984564600E+003	2.7856678E-001	-2.7038031E+002
3	0	1.143061984551969E+003	2.7793118E-001	-2.7040506E+002
3	0	1.143561984539338E+003	2.7729630E-001	-2.7038742E+002
3	0	1.144061984526707E+003	2.7667859E-001	-2.7039801E+002
3	0	1.144561984514075E+003	2.7606940E-001	-2.7038385E+002
3	0	1.145061984501444E+003	2.7546915E-001	-2.7038385E+002
3	0	1.145561984488813E+003	2.7485931E-001	-2.7040155E+002
3	0	1.146061984476182E+003	2.7424803E-001	-2.7038742E+002
3	0	1.146561984463551E+003	2.7365205E-001	-2.7038385E+002
3	0	1.147061984450920E+003	2.7309585E-001	-2.7038031E+002
3	0	1.147561984438289E+003	2.7254623E-001	-2.7039801E+002
3	0	1.148061984425658E+003	2.7200893E-001	-2.7039801E+002
3	0	1.148561984413027E+003	2.7145430E-001	-2.7038385E+002
3	0	1.149061984400396E+003	2.7091250E-001	-2.7036267E+002
3	0	1.149561984387765E+003	2.7036351E-001	-2.7035559E+002
3	0	1.150061984375134E+003	2.6979437E-001	-2.7037326E+002
3	0	1.150561984362503E+003	2.6925212E-001	-2.7035913E+002
3	0	1.151061984349872E+003	2.6874176E-001	-2.7039093E+002
3	0	1.151561984337241E+003	2.6823488E-001	-2.7039801E+002
3	0	1.152061984324610E+003	2.6772881E-001	-2.7036267E+002
3	0	1.152561984311978E+003	2.6722205E-001	-2.7038385E+002
3	0	1.153061984299347E+003	2.6671886E-001	-2.7039093E+002
3	0	1.153561984286716E+003	2.6620224E-001	-2.7035559E+002
3	0	1.154061984274085E+003	2.6567623E-001	-2.7038031E+002
3	0	1.154561984261454E+003	2.6516625E-001	-2.7038385E+002
3	0	1.155061984248823E+003	2.6469359E-001	-2.7036618E+002
3	0	1.155561984236192E+003	2.6422974E-001	-2.7039447E+002
3	0	1.156061984223561E+003	2.6375884E-001	-2.7036267E+002
3	0	1.156561984210930E+003	2.6329410E-001	-2.7041214E+002
3	0	1.157061984198299E+003	2.6282874E-001	-2.7038742E+002
3	0	1.157561984185668E+003	2.6235077E-001	-2.7037677E+002
3	0	1.158061984173037E+003	2.6184896E-001	-2.7036972E+002
3	0	1.158561984160406E+003	2.6137212E-001	-2.7041214E+002
3	0	1.159061984147775E+003	2.6093560E-001	-2.7036972E+002
3	0	1.159561984135144E+003	2.6049516E-001	-2.7036618E+002
3	0	1.160061984122513E+003	2.6005438E-001	-2.7038742E+002
3	0	1.160561984109881E+003	2.5962228E-001	-2.7040506E+002
3	0	1.161061984097250E+003	2.5919122E-001	-2.7037677E+002
3	0	1.161561984084619E+003	2.5874469E-001	-2.7037326E+002
3	0	1.162061984071988E+003	2.5828579E-001	-2.7039093E+002
3	0	1.162561984059357E+003	2.5784865E-001	-2.7039093E+002
3	0	1.163061984046726E+003	2.5744405E-001	-2.7037326E+002
3	0	1.163561984034095E+003	2.5703686E-001	-2.7036972E+002
3	0	1.164061984021464E+003	2.5663483E-001	-2.7037677E+002
3	0	1.164561984008833E+003	2.5623670E-001	-2.7038742E+002
3	0	1.165061983996202E+003	2.5583184E-001	-2.7039801E+002
3	0	1.165561983983571E+003	2.5541598E-001	-2.7036972E+002
3	0	1.166061983970940E+003	2.5497875E-001	-2.7038385E+002
3	0	1.166561983958309E+003	2.5457609E-001	-2.7039447E+002
3	0	1.167061983945678E+003	2.5420979E-001	-2.7037677E+002
3	0	1.167561983933047E+003	2.5383624E-001	-2.7036972E+002
3	0	1.168061983920416E+003	2.5346226E-001	-2.7039801E+002
3	0	1.168561983907784E+003	2.5308901E-001	-2.7036972E+002
3	0	1.169061983895153E+003	2.5272155E-001	-2.7037326E+002
3	0	1.169561983882522E+003	2.5233668E-001	-2.7036972E+002
3	0	1.170061983869891E+003	2.5192940E-001	-2.7039447E+002
3	0	1.170561983857260E+003	2.5155121E-001	-2.7038742E+002
3	0	1.171061983844629E+003	2.5120199E-001	-2.7038385E+002
3	0	1.171561983831998E+003	2.5085565E-001	-2.7036972E+002
3	0	1.172061983819367E+003	2.5050879E-001	-2.7039801E+002
3	0	1.172561983806736E+003	2.5016302E-001	-2.7037326E+002
3	0	1.173061983794105E+003	2.4982205E-001	-2.7038742E+002
3	0	1.173561983781474E+003	2.4946710E-001	-2.7034851E+002
3	0	1.174061983768843E+003	2.4909727E-001	-2.7036618E+002
3	0	1.174561983756212E+003	2.4874261E-001	-2.7038742E+002
3	0	1.175061983743581E+003	2.4842662E-001	-2.7040506E+002
3	0	1.175561983730950E+003	2.4812055E-001	-2.7037326E+002
3	0	1.176061983718319E+003	2.4780513E-001	-2.7037326E+002
3	0	1.176561983705687E+003	2.4749394E-001	-2.7037677E+002
3	0	1.177061983693056E+003	2.4717589E-001	-2.7038031E+002
3	0	1.177561983680425E+003	2.4684654E-001	-2.7036267E+002
3	0	1.178061983667794E+003	2.4650118E-001	-2.7039801E+002
3	0	1.178561983655163E+003	2.4618158E-001	-2.7038385E+002
3	0	1.179061983642532E+003	2.4589318E-001	-2.7036972E+002
3	0	1.179561983629901E+003	2.4561104E-001	-2.7036972E+002
3	0	1.180061983617270E+003	2.4532463E-001	-2.7038385E+002
3	0	1.180561983604639E+003	2.4503687E-001	-2.7038031E+002
3	0	1.181061983592008E+003	2.4474567E-001	-2.7037677E+002
3	0	1.181561983579377E+003	2.4444368E-001	-2.7038742E+002
3	0	1.182061983566746E+003	2.4412638E-001	-2.7038385E+002
3	0	1.182561983554115E+003	2.4382591E-001	-2.7039447E+002
3	0	1.183061983541484E+003	2.4356142E-001	-2.7038385E+002
3	0	1.183561983528853E+003	2.4330360E-001	-2.7038385E+002
3	0	1.184061983516222E+003	2.4304344E-001	-2.7037677E+002
3	0	1.184561983503590E+003	2.4277702E-001	-2.7038385E+002
3	0	1.185061983490959E+003	2.4251461E-001	-2.7037677E+002
3	0	1.185561983478328E+003	2.4223004E-001	-2.7036618E+002
3	0	1.186061983465697E+003	2.4193649E-001	-2.7039447E+002
3	0	1.186561983453066E+003	2.4166340E-001	-2.7036972E+002
3	0	1.187061983440435E+003	2.4142627E-001	-2.7036972E+002
3	0	1.187561983427804E+003	2.4118531E-001	-2.7039447E+002
3	0	1.188061983415173E+003	2.4093886E-001	-2.7037326E+002
3	0	1.188561983402542E+003	2.4070318E-001	-2.7036618E+002
3	0	1.189061983389911E+003	2.4046294E-001	-2.7036972E+002
3	0	1.189561983377280E+003	2.4019767E-001	-2.7039093E+002
3	0	1.190061983364649E+003	2.3991989E-001	-2.7037326E+002
3	0	1.190561983352018E+003	2.3966546E-001	-2.7037326E+002
3	0	1.191061983339387E+003	2.3944752E-001	-2.7035913E+002
3	0	1.191561983326756E+003	2.3922701E-001	-2.7037677E+002
3	0	1.192061983314125E+003	2.3900892E-001	-2.7038742E+002
3	0	1.192561983301493E+003	2.3878741E-001	-2.7038385E+002
3	0	1.193061983288862E+003	2.3856334E-001	-2.7041568E+002
3	0	1.193561983276231E+003	2.3833048E-001	-2.7039447E+002
3	0	1.194061983263600E+003	2.3807904E-001	-2.7040155E+002
3	0	1.194561983250969E+003	2.3784676E-001	-2.7038031E+002
3	0	1.195061983238338E+003	2.3764974E-001	-2.7036267E+002
3	0	1.195561983225707E+003	2.3745102E-001	-2.7036618E+002
3	0	1.196061983213076E+003	2.3724787E-001	-2.7038031E+002
3	0	1.196561983200445E+003	2.3705116E-001	-2.7039093E+002
3	0	1.197061983187814E+003	2.3684943E-001	-2.7037326E+002
3	0	1.197561983175183E+003	2.3663393E-001	-2.7037677E+002
3	0	1.198061983162552E+003	2.3639695E-001	-2.7038031E+002
3	0	1.198561983149921E+003	2.3617467E-001	-2.7039093E+002
3	0	1.199061983137290E+003	2.3599716E-001	-2.7036267E+002
3	0	1.199561983124659E+003	2.3582003E-001	-2.7037326E+002
3	0	1.200061983112028E+003	2.3564303E-001	-2.7037677E+002
3	0	1.200561983099396E+003	2.3546326E-001	-2.7037326E+002
3	0	1.201061983086765E+003	2.3528482E-001	-2.7037326E+002
3	0	1.201561983074134E+003	2.3508412E-001	-2.7038742E+002
3	0	1.202061983061503E+003	2.3485826E-001	-2.7037677E+002
3	0	1.202561983048872E+003	2.3466063E-001	-2.7036972E+002
3	0	1.203061983036241E+003	2.3449610E-001	-2.7039801E+002
3	0	1.203561983023610E+003	2.3433551E-001	-2.7036972E+002
3	0	1.204061983010979E+003	2.3417088E-001	-2.7037326E+002
3	0	1.204561982998348E+003	2.3400670E-001	-2.7037677E+002
3	0	1.205061982985717E+003	2.3384145E-001	-2.7036267E+002
3	0	1.205561982973086E+003	2.3365030E-001	-2.7036618E+002
3	0	1.206061982960455E+003	2.3344225E-001	-2.7039801E+002
3	0	1.206561982947824E+003	2.3325753E-001	-2.7037677E+002
3	0	1.207061982935193E+003	2.3311417E-001	-2.7036267E+002
3	0	1.207561982922562E+003	2.3296501E-001	-2.7035559E+002
3	0	1.208061982909931E+003	2.3280524E-001	-2.7037326E+002
3	0	1.208561982897299E+003	2.3265092E-001	-2.7035913E+002
3	0	1.209061982884668E+003	2.3248687E-001	-2.7036267E+002
3	0	1.209561982872037E+003	2.3230895E-001	-2.7038385E+002
3	0	1.210061982859406E+003	2.3210983E-001	-2.7038385E+002
3	0	1.210561982846775E+003	2.3193243E-001	-2.7036972E+002
3	0	1.211061982834144E+003	2.3179460E-001	-2.7036972E+002
3	0	1.211561982821513E+003	2.3165616E-001	-2.7036618E+002
3	0	1.212061982808882E+003	2.3151489E-001	-2.7041214E+002
3	0	1.212561982796251E+003	2.3137011E-001	-2.7039447E+002
3	0	1.213061982783620E+003	2.3121752E-001	-2.7035559E+002
3	0	1.213561982770989E+003	2.3104879E-001	-2.7038742E+002
3	0	1.214061982758358E+003	2.3085789E-001	-2.7036267E+002
3	0	1.214561982745727E+003	2.3069647E-001	-2.7039093E+002
3	0	1.215061982733096E+003	2.3056862E-001	-2.7038031E+002
3	0	1.215561982720465E+003	2.3044671E-001	-2.7036267E+002
3	0	1.216061982707834E+003	2.3030992E-001	-2.7038742E+002
3	0	1.216561982695202E+003	2.3018207E-001	-2.7036972E+002
3	0	1.217061982682571E+003	2.3004413E-001	-2.7037677E+002
3	0	1.217561982669940E+003	2.2989620E-001	-2.7037677E+002
3	0	1.218061982657309E+003	2.2972009E-001	-2.7037326E+002
3	0	1.218561982644678E+003	2.2956961E-001	-2.7039801E+002
3	0	1.219061982632047E+003	2.2945663E-001	-2.7040155E+002
3	0	1.219561982619416E+003	2.2934420E-001	-2.7038742E+002
3	0	1.219562382619406E+003	2.2931948E-001	-2.7039801E+002