EC-Lab ASCII FILE
Nb header lines : 55                          

Open Circuit Voltage

Run on channel : 1 (SN 81504)
User : 
CE vs. WE compliance from -10 V to 10 V
Electrode connection : standard
Potential control : Ewe
Ewe ctrl range : min = -2.50 V, max = 2.50 V
Safety Limits :
	Do not start on E overload
Acquisition started on : 05/10/2026 06:49:56.074
Loaded Setting File :  C:\PEM-WE_measurements\2026\372_IV_IV IrOx, 5 min Pt, 30 min C, etched cathode\new station\Loopeis new\1,46 V different time gaps closed cell\Loopeis 1,46V_120s_4_PEIS from 650Hz to 100Hz.mps
Saved on :
	File : L_24_Loopeis 1,46V_120s_4_PEIS from 650Hz to 100Hz_06_OCV_C01.mpr
	Directory : C:\PEM-WE_measurements\2026\372_IV_IV IrOx, 5 min Pt, 30 min C, etched cathode\new station\Loopeis new\1,46 V different time gaps closed cell\
	Host : 192.168.0.2
Device : SP-150e (SN .005491)
Address : 192.168.0.91
EC-LAB for windows v11.71 (software)
Internet server v28.00 (firmware)
Command interpretor v14.01 (firmware)
Electrode material : 
Initial state : 
Electrolyte : 
Comments : 
Current amplifier : SP-150eB-20A
Electrode surface area : 0.001 cm²
Characteristic mass : 0.001 g
Equivalent Weight : 0.000 g/eq.
Density : 0.000 g/cm3
Volume (V) : 0.001 cm³
Record Analogic IN 1
Text export
   Mode : Standard
   Time format : Elapsed
Cycle Definition : Charge/Discharge alternance
External device configuration :
   device type : Temperature Probe
   device name : Other
   Analog IN 1 : 
      unit : T/Â°C
      max : 100.000 at 2.000 V
      min : 0.000 at 1.460 V
tR (h:m:s)          0:02:0.0000         
dER/dt (mV/h)       1.0                 
record              <Ewe>               
dER (mV)            10.00               
dtR (s)             0.5000              
E range min (V)     -2.500              
E range max (V)     2.500               

mode	error	time/s	<Ewe/V>	Analog IN 1/V	
3	0	3.752205937748658E+002	1.2911124E+000	-2.7038742E+002
3	0	3.757205937622348E+002	1.2978702E+000	-2.7038742E+002
3	0	3.762205937496037E+002	1.2946603E+000	-2.7038742E+002
3	0	3.767205937369727E+002	1.2862368E+000	-2.7036267E+002
3	0	3.772205937243416E+002	1.2713379E+000	-2.7038385E+002
3	0	3.777205937117105E+002	1.2476480E+000	-2.7038385E+002
3	0	3.782205936990795E+002	1.2103875E+000	-2.7036267E+002
3	0	3.787205936864484E+002	1.1475952E+000	-2.7036618E+002
3	0	3.792205936738173E+002	9.9880201E-001	-2.7038385E+002
3	0	3.797205936611863E+002	6.4370924E-001	-2.7039093E+002
3	0	3.802205936485552E+002	4.8279607E-001	-2.7038385E+002
3	0	3.807205936359242E+002	4.3031844E-001	-2.7037326E+002
3	0	3.812205936232931E+002	4.1438416E-001	-2.7038031E+002
3	0	3.817205936106620E+002	4.0923342E-001	-2.7036267E+002
3	0	3.822205935980310E+002	4.0611702E-001	-2.7036972E+002
3	0	3.827205935853999E+002	4.0367332E-001	-2.7039801E+002
3	0	3.832205935727688E+002	4.0156808E-001	-2.7039801E+002
3	0	3.837205935601378E+002	3.9982781E-001	-2.7040155E+002
3	0	3.842205935475067E+002	3.9818960E-001	-2.7036972E+002
3	0	3.847205935348757E+002	3.9658284E-001	-2.7036972E+002
3	0	3.852205935222446E+002	3.9540061E-001	-2.7039093E+002
3	0	3.857205935096135E+002	3.9508158E-001	-2.7038742E+002
3	0	3.862205934969825E+002	3.9454928E-001	-2.7040155E+002
3	0	3.867205934843514E+002	3.9410338E-001	-2.7036267E+002
3	0	3.872205934717203E+002	3.9366892E-001	-2.7040860E+002
3	0	3.877205934590893E+002	3.9321402E-001	-2.7037677E+002
3	0	3.882205934464582E+002	3.9267987E-001	-2.7041568E+002
3	0	3.887205934338272E+002	3.9199039E-001	-2.7039093E+002
3	0	3.892205934211961E+002	3.9154345E-001	-2.7040506E+002
3	0	3.897205934085650E+002	3.9179692E-001	-2.7035559E+002
3	0	3.902205933959340E+002	3.9178845E-001	-2.7039093E+002
3	0	3.907205933833029E+002	3.9175960E-001	-2.7037326E+002
3	0	3.912205933706719E+002	3.9166388E-001	-2.7039093E+002
3	0	3.917205933580408E+002	3.9154598E-001	-2.7037326E+002
3	0	3.922205933454097E+002	3.9138570E-001	-2.7038031E+002
3	0	3.927205933327787E+002	3.9114735E-001	-2.7037677E+002
3	0	3.932205933201476E+002	3.9118874E-001	-2.7035559E+002
3	0	3.937205933075165E+002	3.9198175E-001	-2.7037326E+002
3	0	3.942205932948855E+002	3.9262784E-001	-2.7039447E+002
3	0	3.947205932822544E+002	3.9334175E-001	-2.7037326E+002
3	0	3.952205932696234E+002	3.9406317E-001	-2.7036618E+002
3	0	3.957205932569923E+002	3.9480972E-001	-2.7036267E+002
3	0	3.962205932443612E+002	3.9541382E-001	-2.7038385E+002
3	0	3.967205932317302E+002	3.9572826E-001	-2.7038385E+002
3	0	3.972205932190991E+002	3.9612889E-001	-2.7035913E+002
3	0	3.977205932064680E+002	3.9706832E-001	-2.7037677E+002
3	0	3.982205931938370E+002	3.9769417E-001	-2.7040155E+002
3	0	3.987205931812059E+002	3.9823866E-001	-2.7037677E+002
3	0	3.992205931685749E+002	3.9865097E-001	-2.7039447E+002
3	0	3.997205931559438E+002	3.9898908E-001	-2.7035559E+002
3	0	4.002205931433127E+002	3.9912504E-001	-2.7036618E+002
3	0	4.007205931306817E+002	3.9904505E-001	-2.7039447E+002
3	0	4.012205931180506E+002	3.9905107E-001	-2.7036618E+002
3	0	4.017205931054195E+002	3.9961720E-001	-2.7038031E+002
3	0	4.022205930927885E+002	3.9995182E-001	-2.7034143E+002
3	0	4.027205930801574E+002	4.0016863E-001	-2.7037326E+002
3	0	4.032205930675264E+002	4.0028650E-001	-2.7037677E+002
3	0	4.037205930548953E+002	4.0027642E-001	-2.7039447E+002
3	0	4.042205930422642E+002	4.0007874E-001	-2.7036972E+002
3	0	4.047205930296332E+002	3.9965197E-001	-2.7036972E+002
3	0	4.052205930170021E+002	3.9932844E-001	-2.7037677E+002
3	0	4.057205930043710E+002	3.9961445E-001	-2.7039093E+002
3	0	4.062205929917400E+002	3.9966935E-001	-2.7040155E+002
3	0	4.067205929791089E+002	3.9965561E-001	-2.7036972E+002
3	0	4.072205929664779E+002	3.9958194E-001	-2.7036972E+002
3	0	4.077205929538468E+002	3.9937335E-001	-2.7040860E+002
3	0	4.082205929412157E+002	3.9904237E-001	-2.7036618E+002
3	0	4.087205929285847E+002	3.9846030E-001	-2.7039093E+002
3	0	4.092205929159536E+002	3.9795524E-001	-2.7036267E+002
3	0	4.097205929033225E+002	3.9801481E-001	-2.7039801E+002
3	0	4.102205928906915E+002	3.9787975E-001	-2.7036618E+002
3	0	4.107205928780604E+002	3.9772153E-001	-2.7037677E+002
3	0	4.112205928654294E+002	3.9745146E-001	-2.7036618E+002
3	0	4.117205928527983E+002	3.9714000E-001	-2.7035559E+002
3	0	4.122205928401672E+002	3.9671871E-001	-2.7036618E+002
3	0	4.127205928275362E+002	3.9621595E-001	-2.7037677E+002
3	0	4.132205928149051E+002	3.9590627E-001	-2.7036267E+002
3	0	4.137205928022740E+002	3.9625007E-001	-2.7037677E+002
3	0	4.142205927896430E+002	3.9654127E-001	-2.7038385E+002
3	0	4.147205927770119E+002	3.9690331E-001	-2.7036618E+002
3	0	4.152205927643809E+002	3.9729393E-001	-2.7038031E+002
3	0	4.157205927517498E+002	3.9765397E-001	-2.7039093E+002
3	0	4.162205927391187E+002	3.9792970E-001	-2.7037677E+002
3	0	4.167205927264877E+002	3.9795086E-001	-2.7035205E+002
3	0	4.172205927138566E+002	3.9799654E-001	-2.7039093E+002
3	0	4.177205927012255E+002	3.9848474E-001	-2.7037326E+002
3	0	4.182205926885945E+002	3.9874697E-001	-2.7036972E+002
3	0	4.187205926759634E+002	3.9891040E-001	-2.7036618E+002
3	0	4.192205926633324E+002	3.9897215E-001	-2.7038031E+002
3	0	4.197205926507013E+002	3.9891559E-001	-2.7038385E+002
3	0	4.202205926380702E+002	3.9873970E-001	-2.7038031E+002
3	0	4.207205926254392E+002	3.9835560E-001	-2.7035913E+002
3	0	4.212205926128081E+002	3.9801455E-001	-2.7037677E+002
3	0	4.217205926001770E+002	3.9815503E-001	-2.7038742E+002
3	0	4.222205925875460E+002	3.9811218E-001	-2.7035205E+002
3	0	4.227205925749149E+002	3.9796856E-001	-2.7036618E+002
3	0	4.232205925622839E+002	3.9774027E-001	-2.7038385E+002
3	0	4.237205925496528E+002	3.9744258E-001	-2.7038031E+002
3	0	4.242205925370217E+002	3.9695886E-001	-2.7040155E+002
3	0	4.247205925243907E+002	3.9632416E-001	-2.7037326E+002
3	0	4.252205925117596E+002	3.9575142E-001	-2.7039447E+002
3	0	4.257205924991285E+002	3.9567474E-001	-2.7038742E+002
3	0	4.262205924864975E+002	3.9547062E-001	-2.7036267E+002
3	0	4.267205924738664E+002	3.9514935E-001	-2.7040506E+002
3	0	4.272205924612354E+002	3.9476949E-001	-2.7037326E+002
3	0	4.277205924486043E+002	3.9425319E-001	-2.7036267E+002
3	0	4.282205924359732E+002	3.9351249E-001	-2.7038385E+002
3	0	4.287205924233422E+002	3.9317730E-001	-2.7037677E+002
3	0	4.292205924107111E+002	3.9275333E-001	-2.7037326E+002
3	0	4.297205923980800E+002	3.9267230E-001	-2.7037677E+002
3	0	4.302205923854490E+002	3.9246801E-001	-2.7034497E+002
3	0	4.307205923728179E+002	3.9203694E-001	-2.7036267E+002
3	0	4.312205923601869E+002	3.9160314E-001	-2.7036618E+002
3	0	4.317205923475558E+002	3.9112562E-001	-2.7037677E+002
3	0	4.322205923349247E+002	3.9051321E-001	-2.7038385E+002
3	0	4.327205923222937E+002	3.8986349E-001	-2.7038385E+002
3	0	4.332205923096626E+002	3.8937992E-001	-2.7040506E+002
3	0	4.337205922970315E+002	3.8950172E-001	-2.7038031E+002
3	0	4.342205922844005E+002	3.8967374E-001	-2.7037677E+002
3	0	4.347205922717694E+002	3.8978961E-001	-2.7039093E+002
3	0	4.352205922591384E+002	3.8984510E-001	-2.7039801E+002
3	0	4.357205922465073E+002	3.8998282E-001	-2.7035913E+002
3	0	4.362205922338762E+002	3.9008197E-001	-2.7039093E+002
3	0	4.367205922212452E+002	3.9001253E-001	-2.7040860E+002
3	0	4.372205922086141E+002	3.8994616E-001	-2.7038031E+002
3	0	4.377205921959830E+002	3.9031386E-001	-2.7036267E+002
3	0	4.382205921833520E+002	3.9062831E-001	-2.7035913E+002
3	0	4.387205921707209E+002	3.9069298E-001	-2.7038031E+002
3	0	4.392205921580899E+002	3.9065379E-001	-2.7034851E+002
3	0	4.397205921454588E+002	3.9052111E-001	-2.7037326E+002
3	0	4.402205921328277E+002	3.9025331E-001	-2.7039447E+002
3	0	4.407205921201967E+002	3.8982868E-001	-2.7039801E+002
3	0	4.412205921075656E+002	3.8946283E-001	-2.7037677E+002
3	0	4.417205920949345E+002	3.8953617E-001	-2.7037677E+002
3	0	4.422205920823035E+002	3.8953447E-001	-2.7038385E+002
3	0	4.427205920696724E+002	3.8937688E-001	-2.7038385E+002
3	0	4.432205920570414E+002	3.8909116E-001	-2.7035559E+002
3	0	4.437205920444103E+002	3.8880035E-001	-2.7038031E+002
3	0	4.442205920317792E+002	3.8843080E-001	-2.7039093E+002
3	0	4.447205920191482E+002	3.8782406E-001	-2.7037677E+002
3	0	4.452205920065171E+002	3.8728908E-001	-2.7036972E+002
3	0	4.457205919938860E+002	3.8722482E-001	-2.7039093E+002
3	0	4.462205919812550E+002	3.8710997E-001	-2.7036618E+002
3	0	4.467205919686239E+002	3.8681063E-001	-2.7036618E+002
3	0	4.472205919559929E+002	3.8643357E-001	-2.7037326E+002
3	0	4.477205919433618E+002	3.8605276E-001	-2.7038031E+002
3	0	4.482205919307307E+002	3.8554999E-001	-2.7035205E+002
3	0	4.487205919180997E+002	3.8496050E-001	-2.7041568E+002
3	0	4.492205919054686E+002	3.8439775E-001	-2.7038031E+002
3	0	4.497205918928375E+002	3.8424000E-001	-2.7039093E+002
3	0	4.502205918802065E+002	3.8409728E-001	-2.7037326E+002
3	0	4.507205918675754E+002	3.8379225E-001	-2.7036972E+002
3	0	4.512205918549444E+002	3.8338497E-001	-2.7037677E+002
3	0	4.517205918423133E+002	3.8296711E-001	-2.7036618E+002
3	0	4.522205918296822E+002	3.8243973E-001	-2.7034851E+002
3	0	4.527205918170512E+002	3.8183990E-001	-2.7039801E+002
3	0	4.532205918044201E+002	3.8139999E-001	-2.7035205E+002
3	0	4.537205917917890E+002	3.8145375E-001	-2.7037326E+002
3	0	4.542205917791580E+002	3.8159487E-001	-2.7036267E+002
3	0	4.547205917665269E+002	3.8165429E-001	-2.7036972E+002
3	0	4.552205917538959E+002	3.8171759E-001	-2.7040155E+002
3	0	4.557205917412648E+002	3.8183844E-001	-2.7038031E+002
3	0	4.562205917286337E+002	3.8191083E-001	-2.7039093E+002
3	0	4.567205917160027E+002	3.8177401E-001	-2.7039093E+002
3	0	4.572205917033716E+002	3.8166094E-001	-2.7037677E+002
3	0	4.577205916907405E+002	3.8191080E-001	-2.7037326E+002
3	0	4.582205916781095E+002	3.8211989E-001	-2.7037326E+002
3	0	4.587205916654784E+002	3.8212875E-001	-2.7037326E+002
3	0	4.592205916528474E+002	3.8205096E-001	-2.7036618E+002
3	0	4.597205916402163E+002	3.8194165E-001	-2.7035205E+002
3	0	4.602205916275852E+002	3.8172409E-001	-2.7036267E+002
3	0	4.607205916149542E+002	3.8133600E-001	-2.7036618E+002
3	0	4.612205916023231E+002	3.8095474E-001	-2.7037326E+002
3	0	4.617205915896920E+002	3.8094911E-001	-2.7040860E+002
3	0	4.622205915770610E+002	3.8096008E-001	-2.7038742E+002
3	0	4.627205915644299E+002	3.8080594E-001	-2.7038031E+002
3	0	4.632205915517989E+002	3.8055548E-001	-2.7039093E+002
3	0	4.637205915391678E+002	3.8026944E-001	-2.7038385E+002
3	0	4.642205915265367E+002	3.7988910E-001	-2.7040506E+002
3	0	4.647205915139057E+002	3.7935281E-001	-2.7036972E+002
3	0	4.652205915012746E+002	3.7887079E-001	-2.7039447E+002
3	0	4.657205914886435E+002	3.7876263E-001	-2.7038742E+002
3	0	4.662205914760125E+002	3.7864321E-001	-2.7037326E+002
3	0	4.667205914633814E+002	3.7838265E-001	-2.7035913E+002
3	0	4.672205914507504E+002	3.7805679E-001	-2.7037677E+002
3	0	4.677205914381193E+002	3.7772605E-001	-2.7037326E+002
3	0	4.682205914254882E+002	3.7728590E-001	-2.7037326E+002
3	0	4.687205914128572E+002	3.7671703E-001	-2.7036618E+002
3	0	4.692205914002261E+002	3.7620416E-001	-2.7040155E+002
3	0	4.697205913875951E+002	3.7607563E-001	-2.7038385E+002
3	0	4.702205913749640E+002	3.7596637E-001	-2.7038031E+002
3	0	4.707205913623329E+002	3.7569964E-001	-2.7036618E+002
3	0	4.712205913497019E+002	3.7539050E-001	-2.7038031E+002
3	0	4.717205913370708E+002	3.7507892E-001	-2.7039093E+002
3	0	4.722205913244397E+002	3.7466174E-001	-2.7036267E+002
3	0	4.727205913118087E+002	3.7411517E-001	-2.7036972E+002
3	0	4.732205912991776E+002	3.7370110E-001	-2.7038742E+002
3	0	4.737205912865466E+002	3.7370831E-001	-2.7038385E+002
3	0	4.742205912739155E+002	3.7384164E-001	-2.7039093E+002
3	0	4.747205912612844E+002	3.7390152E-001	-2.7036972E+002
3	0	4.752205912486534E+002	3.7396857E-001	-2.7036972E+002
3	0	4.757205912360223E+002	3.7409014E-001	-2.7039801E+002
3	0	4.762205912233912E+002	3.7411574E-001	-2.7038031E+002
3	0	4.767205912107602E+002	3.7399957E-001	-2.7036267E+002
3	0	4.772205911981291E+002	3.7389699E-001	-2.7038031E+002
3	0	4.777205911854981E+002	3.7411606E-001	-2.7037677E+002
3	0	4.782205911728670E+002	3.7431180E-001	-2.7038385E+002
3	0	4.787205911602359E+002	3.7432006E-001	-2.7037326E+002
3	0	4.792205911476049E+002	3.7423506E-001	-2.7037677E+002
3	0	4.797205911349738E+002	3.7415245E-001	-2.7038742E+002
3	0	4.802205911223427E+002	3.7395415E-001	-2.7040155E+002
3	0	4.807205911097117E+002	3.7356308E-001	-2.7040155E+002
3	0	4.812205910970806E+002	3.7318793E-001	-2.7039801E+002
3	0	4.817205910844496E+002	3.7315241E-001	-2.7038385E+002
3	0	4.822205910718185E+002	3.7313256E-001	-2.7036267E+002
3	0	4.827205910591874E+002	3.7294638E-001	-2.7036618E+002
3	0	4.832205910465564E+002	3.7270489E-001	-2.7039093E+002
3	0	4.837205910339253E+002	3.7244081E-001	-2.7037677E+002
3	0	4.842205910212942E+002	3.7212062E-001	-2.7038031E+002
3	0	4.847205910086632E+002	3.7165263E-001	-2.7038385E+002
3	0	4.852205909960321E+002	3.7118691E-001	-2.7038385E+002
3	0	4.857205909834011E+002	3.7105066E-001	-2.7036972E+002
3	0	4.862205909707700E+002	3.7094736E-001	-2.7039093E+002
3	0	4.867205909581389E+002	3.7071022E-001	-2.7036267E+002
3	0	4.872205909455079E+002	3.7042189E-001	-2.7035913E+002
3	0	4.877205909328768E+002	3.7012759E-001	-2.7035913E+002
3	0	4.882205909202457E+002	3.6972415E-001	-2.7038385E+002
3	0	4.887205909076147E+002	3.6921576E-001	-2.7036972E+002
3	0	4.892205908949836E+002	3.6876044E-001	-2.7040155E+002
3	0	4.897205908823526E+002	3.6863121E-001	-2.7038031E+002
3	0	4.902205908697215E+002	3.6851859E-001	-2.7037326E+002
3	0	4.907205908570904E+002	3.6830443E-001	-2.7036618E+002
3	0	4.912205908444594E+002	3.6801815E-001	-2.7039093E+002
3	0	4.917205908318283E+002	3.6772329E-001	-2.7038385E+002
3	0	4.922205908191972E+002	3.6737415E-001	-2.7039093E+002
3	0	4.927205908065662E+002	3.6690545E-001	-2.7036267E+002
3	0	4.932205907939351E+002	3.6649579E-001	-2.7037326E+002
3	0	4.937205907813041E+002	3.6646712E-001	-2.7038385E+002
3	0	4.942205907686730E+002	3.6652356E-001	-2.7036618E+002
3	0	4.947205907560419E+002	3.6652669E-001	-2.7038385E+002
3	0	4.947209907560318E+002	3.6649084E-001	-2.7039447E+002