EC-Lab ASCII FILE
Nb header lines : 55                          

Open Circuit Voltage

Run on channel : 1 (SN 81504)
User : 
CE vs. WE compliance from -10 V to 10 V
Electrode connection : standard
Potential control : Ewe
Ewe ctrl range : min = -2.50 V, max = 2.50 V
Safety Limits :
	Do not start on E overload
Acquisition started on : 05/07/2026 17:34:11.611
Loaded Setting File :  C:\PEM-WE_measurements\2026\372_IV_IV IrOx, 5 min Pt, 30 min C, etched cathode\new station\Loopeis new\1,46 V different time gaps open cell\Loopeis 1,46V_60s_4_PEIS from 650Hz to 100Hz.mps
Saved on :
	File : L_14_Loopeis 1,46V_60s_4_PEIS from 650Hz to 100Hz_12_OCV_C01.mpr
	Directory : C:\PEM-WE_measurements\2026\372_IV_IV IrOx, 5 min Pt, 30 min C, etched cathode\new station\Loopeis new\1,46 V different time gaps open cell\
	Host : 192.168.0.2
Device : SP-150e (SN .005491)
Address : 192.168.0.91
EC-LAB for windows v11.71 (software)
Internet server v28.00 (firmware)
Command interpretor v14.01 (firmware)
Electrode material : 
Initial state : 
Electrolyte : 
Comments : 
Current amplifier : SP-150eB-20A
Electrode surface area : 0.001 cm²
Characteristic mass : 0.001 g
Equivalent Weight : 0.000 g/eq.
Density : 0.000 g/cm3
Volume (V) : 0.001 cm³
Record Analogic IN 1
Text export
   Mode : Standard
   Time format : Elapsed
Cycle Definition : Charge/Discharge alternance
External device configuration :
   device type : Temperature Probe
   device name : Other
   Analog IN 1 : 
      unit : T/Â°C
      max : 100.000 at 2.000 V
      min : 0.000 at 1.460 V
tR (h:m:s)          0:01:0.0000         
dER/dt (mV/h)       1.0                 
record              <Ewe>               
dER (mV)            10.00               
dtR (s)             0.5000              
E range min (V)     -2.500              
E range max (V)     2.500               

mode	error	time/s	<Ewe/V>	Analog IN 1/V	
3	0	5.726189955126029E+002	1.0684875E+000	-2.7038385E+002
3	0	5.731189954999718E+002	1.2237773E+000	-2.7038385E+002
3	0	5.736189954873407E+002	1.1873999E+000	-2.7038031E+002
3	0	5.741189954747097E+002	1.1106725E+000	-2.7039093E+002
3	0	5.746189954620786E+002	8.7103122E-001	-2.7040860E+002
3	0	5.751189954494475E+002	4.4896564E-001	-2.7038031E+002
3	0	5.756189954368165E+002	3.2539347E-001	-2.7038031E+002
3	0	5.761189954241854E+002	3.1013873E-001	-2.7039801E+002
3	0	5.766189954115544E+002	3.0249795E-001	-2.7039447E+002
3	0	5.771189953989233E+002	2.9610413E-001	-2.7038742E+002
3	0	5.776189953862922E+002	2.9110375E-001	-2.7036618E+002
3	0	5.781189953736612E+002	2.8722581E-001	-2.7035205E+002
3	0	5.786189953610301E+002	2.8418204E-001	-2.7038742E+002
3	0	5.791189953483990E+002	2.8172854E-001	-2.7038031E+002
3	0	5.796189953357680E+002	2.7970529E-001	-2.7038742E+002
3	0	5.801189953231369E+002	2.7799329E-001	-2.7038031E+002
3	0	5.806189953105059E+002	2.7653795E-001	-2.7040860E+002
3	0	5.811189952978748E+002	2.7528629E-001	-2.7036267E+002
3	0	5.816189952852437E+002	2.7418259E-001	-2.7036618E+002
3	0	5.821189952726127E+002	2.7318859E-001	-2.7037326E+002
3	0	5.826189952599816E+002	2.7227956E-001	-2.7036267E+002
3	0	5.831189952473505E+002	2.7142733E-001	-2.7038031E+002
3	0	5.836189952347195E+002	2.7061844E-001	-2.7038385E+002
3	0	5.841189952220884E+002	2.6983690E-001	-2.7039801E+002
3	0	5.846189952094574E+002	2.6911911E-001	-2.7040506E+002
3	0	5.851189951968263E+002	2.6844847E-001	-2.7037677E+002
3	0	5.856189951841952E+002	2.6779538E-001	-2.7038742E+002
3	0	5.861189951715642E+002	2.6716626E-001	-2.7038385E+002
3	0	5.866189951589331E+002	2.6655516E-001	-2.7037677E+002
3	0	5.871189951463020E+002	2.6595914E-001	-2.7038385E+002
3	0	5.876189951336710E+002	2.6535413E-001	-2.7038385E+002
3	0	5.881189951210399E+002	2.6474583E-001	-2.7039093E+002
3	0	5.886189951084089E+002	2.6416901E-001	-2.7037326E+002
3	0	5.891189950957778E+002	2.6362562E-001	-2.7036972E+002
3	0	5.896189950831467E+002	2.6307628E-001	-2.7037677E+002
3	0	5.901189950705157E+002	2.6254246E-001	-2.7037326E+002
3	0	5.906189950578846E+002	2.6201537E-001	-2.7038385E+002
3	0	5.911189950452535E+002	2.6148915E-001	-2.7038742E+002
3	0	5.916189950326225E+002	2.6095188E-001	-2.7038742E+002
3	0	5.921189950199914E+002	2.6040047E-001	-2.7038031E+002
3	0	5.926189950073604E+002	2.5987658E-001	-2.7038031E+002
3	0	5.931189949947293E+002	2.5938070E-001	-2.7039093E+002
3	0	5.936189949820982E+002	2.5887710E-001	-2.7038385E+002
3	0	5.941189949694672E+002	2.5838155E-001	-2.7035913E+002
3	0	5.946189949568361E+002	2.5788710E-001	-2.7037326E+002
3	0	5.951189949442050E+002	2.5740129E-001	-2.7039447E+002
3	0	5.956189949315740E+002	2.5690040E-001	-2.7036618E+002
3	0	5.961189949189429E+002	2.5638744E-001	-2.7038742E+002
3	0	5.966189949063119E+002	2.5589469E-001	-2.7039093E+002
3	0	5.971189948936808E+002	2.5543660E-001	-2.7040155E+002
3	0	5.976189948810497E+002	2.5497147E-001	-2.7039801E+002
3	0	5.981189948684187E+002	2.5451520E-001	-2.7037326E+002
3	0	5.986189948557876E+002	2.5406852E-001	-2.7038385E+002
3	0	5.991189948431565E+002	2.5361216E-001	-2.7037326E+002
3	0	5.996189948305255E+002	2.5314343E-001	-2.7038385E+002
3	0	6.001189948178944E+002	2.5265759E-001	-2.7038385E+002
3	0	6.006189948052634E+002	2.5220540E-001	-2.7038742E+002
3	0	6.011189947926323E+002	2.5177166E-001	-2.7038385E+002
3	0	6.016189947800012E+002	2.5133306E-001	-2.7037326E+002
3	0	6.021189947673702E+002	2.5090215E-001	-2.7037326E+002
3	0	6.026189947547391E+002	2.5047824E-001	-2.7038742E+002
3	0	6.031189947421080E+002	2.5004992E-001	-2.7038742E+002
3	0	6.036189947294770E+002	2.4961694E-001	-2.7038385E+002
3	0	6.041189947168459E+002	2.4916537E-001	-2.7038385E+002
3	0	6.046189947042149E+002	2.4874051E-001	-2.7037677E+002
3	0	6.051189946915838E+002	2.4833849E-001	-2.7037677E+002
3	0	6.056189946789527E+002	2.4793394E-001	-2.7036618E+002
3	0	6.061189946663217E+002	2.4753505E-001	-2.7037677E+002
3	0	6.066189946536906E+002	2.4713068E-001	-2.7036972E+002
3	0	6.071189946410595E+002	2.4673238E-001	-2.7038385E+002
3	0	6.076189946284285E+002	2.4632360E-001	-2.7039093E+002
3	0	6.081189946157974E+002	2.4590179E-001	-2.7036972E+002
3	0	6.086189946031664E+002	2.4550682E-001	-2.7036972E+002
3	0	6.091189945905353E+002	2.4513507E-001	-2.7040155E+002
3	0	6.096189945779042E+002	2.4475704E-001	-2.7037326E+002
3	0	6.101189945652732E+002	2.4438880E-001	-2.7038742E+002
3	0	6.106189945526421E+002	2.4402191E-001	-2.7037326E+002
3	0	6.111189945400110E+002	2.4365309E-001	-2.7038385E+002
3	0	6.116189945273800E+002	2.4327132E-001	-2.7038742E+002
3	0	6.121189945147489E+002	2.4287696E-001	-2.7037326E+002
3	0	6.126189945021179E+002	2.4250370E-001	-2.7037677E+002
3	0	6.131189944894868E+002	2.4215846E-001	-2.7039801E+002
3	0	6.136189944768557E+002	2.4181004E-001	-2.7039801E+002
3	0	6.141189944642247E+002	2.4146585E-001	-2.7038385E+002
3	0	6.146189944515936E+002	2.4112166E-001	-2.7038385E+002
3	0	6.151189944389625E+002	2.4078080E-001	-2.7038385E+002
3	0	6.156189944263315E+002	2.4042411E-001	-2.7038742E+002
3	0	6.161189944137004E+002	2.4006109E-001	-2.7038385E+002
3	0	6.166189944010694E+002	2.3972169E-001	-2.7035913E+002
3	0	6.171189943884383E+002	2.3940484E-001	-2.7037677E+002
3	0	6.176189943758072E+002	2.3908146E-001	-2.7038031E+002
3	0	6.181189943631762E+002	2.3876983E-001	-2.7038742E+002
3	0	6.186189943505451E+002	2.3845670E-001	-2.7039447E+002
3	0	6.191189943379140E+002	2.3812991E-001	-2.7040155E+002
3	0	6.196189943252830E+002	2.3779166E-001	-2.7036972E+002
3	0	6.201189943126519E+002	2.3746116E-001	-2.7039801E+002
3	0	6.206189943000209E+002	2.3716190E-001	-2.7040155E+002
3	0	6.211189942873898E+002	2.3688836E-001	-2.7037326E+002
3	0	6.216189942747587E+002	2.3660606E-001	-2.7035559E+002
3	0	6.221189942621277E+002	2.3632079E-001	-2.7037326E+002
3	0	6.226189942494966E+002	2.3603585E-001	-2.7039093E+002
3	0	6.231189942368655E+002	2.3574798E-001	-2.7038031E+002
3	0	6.236189942242345E+002	2.3544715E-001	-2.7035559E+002
3	0	6.241189942116034E+002	2.3513101E-001	-2.7035913E+002
3	0	6.246189941989724E+002	2.3483707E-001	-2.7036972E+002
3	0	6.251189941863413E+002	2.3457643E-001	-2.7038385E+002
3	0	6.256189941737102E+002	2.3432128E-001	-2.7036618E+002
3	0	6.261189941610792E+002	2.3406193E-001	-2.7036618E+002
3	0	6.266189941484481E+002	2.3379384E-001	-2.7036972E+002
3	0	6.271189941358170E+002	2.3352753E-001	-2.7037677E+002
3	0	6.276189941231860E+002	2.3325004E-001	-2.7035913E+002
3	0	6.281189941105549E+002	2.3296063E-001	-2.7038031E+002
3	0	6.286189940979239E+002	2.3268990E-001	-2.7037677E+002
3	0	6.291189940852928E+002	2.3245119E-001	-2.7038031E+002
3	0	6.296189940726617E+002	2.3221581E-001	-2.7037677E+002
3	0	6.301189940600307E+002	2.3197764E-001	-2.7036618E+002
3	0	6.306189940473996E+002	2.3173888E-001	-2.7037326E+002
3	0	6.311189940347685E+002	2.3149274E-001	-2.7039093E+002
3	0	6.316189940221375E+002	2.3122826E-001	-2.7037677E+002
3	0	6.321189940095064E+002	2.3095132E-001	-2.7040155E+002
3	0	6.321435940088850E+002	2.3080482E-001	-2.7040155E+002