EC-Lab ASCII FILE
Nb header lines : 55                          

Open Circuit Voltage

Run on channel : 1 (SN 81504)
User : 
CE vs. WE compliance from -10 V to 10 V
Electrode connection : standard
Potential control : Ewe
Ewe ctrl range : min = -2.50 V, max = 2.50 V
Safety Limits :
	Do not start on E overload
Acquisition started on : 05/07/2026 19:27:13.907
Loaded Setting File :  C:\PEM-WE_measurements\2026\372_IV_IV IrOx, 5 min Pt, 30 min C, etched cathode\new station\Loopeis new\1,46 V different time gaps open cell\Loopeis 1,46V_90s_4_PEIS from 650Hz to 100Hz.mps
Saved on :
	File : L_19_Loopeis 1,46V_90s_4_PEIS from 650Hz to 100Hz_06_OCV_C01.mpr
	Directory : C:\PEM-WE_measurements\2026\372_IV_IV IrOx, 5 min Pt, 30 min C, etched cathode\new station\Loopeis new\1,46 V different time gaps open cell\
	Host : 192.168.0.2
Device : SP-150e (SN .005491)
Address : 192.168.0.91
EC-LAB for windows v11.71 (software)
Internet server v28.00 (firmware)
Command interpretor v14.01 (firmware)
Electrode material : 
Initial state : 
Electrolyte : 
Comments : 
Current amplifier : SP-150eB-20A
Electrode surface area : 0.001 cm²
Characteristic mass : 0.001 g
Equivalent Weight : 0.000 g/eq.
Density : 0.000 g/cm3
Volume (V) : 0.001 cm³
Record Analogic IN 1
Text export
   Mode : Standard
   Time format : Elapsed
Cycle Definition : Charge/Discharge alternance
External device configuration :
   device type : Temperature Probe
   device name : Other
   Analog IN 1 : 
      unit : T/Â°C
      max : 100.000 at 2.000 V
      min : 0.000 at 1.460 V
tR (h:m:s)          0:01:30.0000        
dER/dt (mV/h)       1.0                 
record              <Ewe>               
dER (mV)            10.00               
dtR (s)             0.5000              
E range min (V)     -2.500              
E range max (V)     2.500               

mode	error	time/s	<Ewe/V>	Analog IN 1/V	
3	0	3.154735953026102E+002	1.2666578E+000	-2.7039447E+002
3	0	3.159735952899791E+002	1.2500086E+000	-2.7037326E+002
3	0	3.164735952773481E+002	1.1823231E+000	-2.7039093E+002
3	0	3.169735952647170E+002	1.0201247E+000	-2.7039447E+002
3	0	3.174735952520859E+002	5.6041837E-001	-2.7040155E+002
3	0	3.179735952394549E+002	3.5166705E-001	-2.7036267E+002
3	0	3.184735952268238E+002	3.2347986E-001	-2.7036972E+002
3	0	3.189735952141928E+002	3.1493852E-001	-2.7038385E+002
3	0	3.194735952015617E+002	3.0790800E-001	-2.7038385E+002
3	0	3.199735951889306E+002	3.0238271E-001	-2.7038742E+002
3	0	3.204735951762996E+002	2.9815710E-001	-2.7038031E+002
3	0	3.209735951636685E+002	2.9488155E-001	-2.7037326E+002
3	0	3.214735951510374E+002	2.9228029E-001	-2.7040506E+002
3	0	3.219735951384064E+002	2.9015180E-001	-2.7037326E+002
3	0	3.224735951257753E+002	2.8840932E-001	-2.7038031E+002
3	0	3.229735951131443E+002	2.8691930E-001	-2.7040860E+002
3	0	3.234735951005132E+002	2.8562459E-001	-2.7036618E+002
3	0	3.239735950878821E+002	2.8448451E-001	-2.7037677E+002
3	0	3.244735950752511E+002	2.8345218E-001	-2.7038031E+002
3	0	3.249735950626200E+002	2.8250214E-001	-2.7038742E+002
3	0	3.254735950499889E+002	2.8160650E-001	-2.7035913E+002
3	0	3.259735950373579E+002	2.8075963E-001	-2.7038385E+002
3	0	3.264735950247268E+002	2.7999219E-001	-2.7037326E+002
3	0	3.269735950120958E+002	2.7927297E-001	-2.7038031E+002
3	0	3.274735949994647E+002	2.7857602E-001	-2.7037677E+002
3	0	3.279735949868336E+002	2.7790612E-001	-2.7038031E+002
3	0	3.284735949742026E+002	2.7725497E-001	-2.7040506E+002
3	0	3.289735949615715E+002	2.7661735E-001	-2.7037326E+002
3	0	3.294735949489404E+002	2.7596739E-001	-2.7039801E+002
3	0	3.299735949363094E+002	2.7532089E-001	-2.7039093E+002
3	0	3.304735949236783E+002	2.7472872E-001	-2.7036972E+002
3	0	3.309735949110473E+002	2.7414960E-001	-2.7039093E+002
3	0	3.314735948984162E+002	2.7357349E-001	-2.7037677E+002
3	0	3.319735948857851E+002	2.7300966E-001	-2.7035913E+002
3	0	3.324735948731541E+002	2.7245641E-001	-2.7039093E+002
3	0	3.329735948605230E+002	2.7190563E-001	-2.7036618E+002
3	0	3.334735948478919E+002	2.7133054E-001	-2.7039447E+002
3	0	3.339735948352609E+002	2.7076072E-001	-2.7037677E+002
3	0	3.344735948226298E+002	2.7022618E-001	-2.7040506E+002
3	0	3.349735948099988E+002	2.6970083E-001	-2.7037326E+002
3	0	3.354735947973677E+002	2.6918963E-001	-2.7036972E+002
3	0	3.359735947847366E+002	2.6867479E-001	-2.7041214E+002
3	0	3.364735947721056E+002	2.6816851E-001	-2.7039093E+002
3	0	3.369735947594745E+002	2.6765296E-001	-2.7034851E+002
3	0	3.374735947468434E+002	2.6712272E-001	-2.7036618E+002
3	0	3.379735947342124E+002	2.6658660E-001	-2.7039093E+002
3	0	3.384735947215813E+002	2.6609051E-001	-2.7036267E+002
3	0	3.389735947089503E+002	2.6560226E-001	-2.7039093E+002
3	0	3.394735946963192E+002	2.6511106E-001	-2.7036267E+002
3	0	3.399735946836881E+002	2.6463720E-001	-2.7037326E+002
3	0	3.404735946710571E+002	2.6416591E-001	-2.7037326E+002
3	0	3.409735946584260E+002	2.6368651E-001	-2.7038385E+002
3	0	3.414735946457949E+002	2.6319224E-001	-2.7038385E+002
3	0	3.419735946331639E+002	2.6269487E-001	-2.7038031E+002
3	0	3.424735946205328E+002	2.6223275E-001	-2.7036267E+002
3	0	3.429735946079018E+002	2.6177782E-001	-2.7040506E+002
3	0	3.434735945952707E+002	2.6132637E-001	-2.7038385E+002
3	0	3.439735945826396E+002	2.6087853E-001	-2.7038385E+002
3	0	3.444735945700086E+002	2.6043546E-001	-2.7035559E+002
3	0	3.449735945573775E+002	2.5998655E-001	-2.7036267E+002
3	0	3.454735945447464E+002	2.5952378E-001	-2.7035913E+002
3	0	3.459735945321154E+002	2.5905773E-001	-2.7038742E+002
3	0	3.464735945194843E+002	2.5862455E-001	-2.7035559E+002
3	0	3.469735945068533E+002	2.5819796E-001	-2.7039093E+002
3	0	3.474735944942222E+002	2.5777736E-001	-2.7039093E+002
3	0	3.479735944815911E+002	2.5736022E-001	-2.7036972E+002
3	0	3.484735944689601E+002	2.5694859E-001	-2.7040155E+002
3	0	3.489735944563290E+002	2.5653455E-001	-2.7040155E+002
3	0	3.494735944436979E+002	2.5610274E-001	-2.7039093E+002
3	0	3.499735944310669E+002	2.5566688E-001	-2.7037677E+002
3	0	3.504735944184358E+002	2.5527048E-001	-2.7039447E+002
3	0	3.509735944058048E+002	2.5487685E-001	-2.7037677E+002
3	0	3.514735943931737E+002	2.5448489E-001	-2.7035559E+002
3	0	3.519735943805426E+002	2.5410193E-001	-2.7036972E+002
3	0	3.524735943679116E+002	2.5372058E-001	-2.7037677E+002
3	0	3.529735943552805E+002	2.5333285E-001	-2.7039801E+002
3	0	3.534735943426494E+002	2.5292799E-001	-2.7037677E+002
3	0	3.539735943300184E+002	2.5251555E-001	-2.7037326E+002
3	0	3.544735943173873E+002	2.5214401E-001	-2.7038031E+002
3	0	3.549735943047563E+002	2.5178036E-001	-2.7037677E+002
3	0	3.554735942921252E+002	2.5142241E-001	-2.7038385E+002
3	0	3.559735942794941E+002	2.5106820E-001	-2.7037677E+002
3	0	3.564735942668631E+002	2.5071642E-001	-2.7038031E+002
3	0	3.569735942542320E+002	2.5036007E-001	-2.7038031E+002
3	0	3.574735942416009E+002	2.4998675E-001	-2.7039447E+002
3	0	3.579735942289699E+002	2.4960846E-001	-2.7039447E+002
3	0	3.584735942163388E+002	2.4927391E-001	-2.7036618E+002
3	0	3.589735942037078E+002	2.4894360E-001	-2.7037677E+002
3	0	3.594735941910767E+002	2.4861236E-001	-2.7035913E+002
3	0	3.599735941784456E+002	2.4828871E-001	-2.7038385E+002
3	0	3.604735941658146E+002	2.4797362E-001	-2.7037677E+002
3	0	3.609735941531835E+002	2.4765018E-001	-2.7037677E+002
3	0	3.614735941405525E+002	2.4730018E-001	-2.7038031E+002
3	0	3.619735941279214E+002	2.4694642E-001	-2.7036267E+002
3	0	3.624735941152903E+002	2.4664107E-001	-2.7036618E+002
3	0	3.629735941026593E+002	2.4633753E-001	-2.7038385E+002
3	0	3.634735940900282E+002	2.4603580E-001	-2.7036972E+002
3	0	3.639735940773971E+002	2.4574132E-001	-2.7037326E+002
3	0	3.644735940647661E+002	2.4545020E-001	-2.7039801E+002
3	0	3.649735940521350E+002	2.4514569E-001	-2.7039093E+002
3	0	3.654735940395040E+002	2.4482699E-001	-2.7039093E+002
3	0	3.659735940268729E+002	2.4450578E-001	-2.7035205E+002
3	0	3.664735940142418E+002	2.4422206E-001	-2.7039447E+002
3	0	3.669735940016108E+002	2.4394698E-001	-2.7038031E+002
3	0	3.674735939889797E+002	2.4367134E-001	-2.7036972E+002
3	0	3.679735939763486E+002	2.4339889E-001	-2.7036972E+002
3	0	3.684735939637176E+002	2.4313377E-001	-2.7038031E+002
3	0	3.689735939510865E+002	2.4285306E-001	-2.7036267E+002
3	0	3.694735939384555E+002	2.4255644E-001	-2.7039447E+002
3	0	3.699735939258244E+002	2.4225682E-001	-2.7038385E+002
3	0	3.704735939131933E+002	2.4199972E-001	-2.7040860E+002
3	0	3.709735939005623E+002	2.4174508E-001	-2.7035913E+002
3	0	3.714735938879312E+002	2.4149166E-001	-2.7035205E+002
3	0	3.719735938753001E+002	2.4124178E-001	-2.7038031E+002
3	0	3.724735938626691E+002	2.4098763E-001	-2.7037677E+002
3	0	3.729735938500380E+002	2.4073397E-001	-2.7038031E+002
3	0	3.734735938374070E+002	2.4045941E-001	-2.7036618E+002
3	0	3.739735938247759E+002	2.4018262E-001	-2.7038031E+002
3	0	3.744735938121448E+002	2.3995177E-001	-2.7038385E+002
3	0	3.749735937995138E+002	2.3971838E-001	-2.7035559E+002
3	0	3.754735937868827E+002	2.3948883E-001	-2.7038742E+002
3	0	3.759735937742516E+002	2.3925722E-001	-2.7039801E+002
3	0	3.764735937616206E+002	2.3903583E-001	-2.7038385E+002
3	0	3.769735937489895E+002	2.3880224E-001	-2.7040860E+002
3	0	3.774735937363585E+002	2.3854689E-001	-2.7037326E+002
3	0	3.779735937237274E+002	2.3829491E-001	-2.7038385E+002
3	0	3.784735937110963E+002	2.3807724E-001	-2.7036267E+002
3	0	3.789735936984653E+002	2.3787054E-001	-2.7039447E+002
3	0	3.794735936858342E+002	2.3765838E-001	-2.7038031E+002
3	0	3.799735936732031E+002	2.3744623E-001	-2.7039447E+002
3	0	3.804735936605721E+002	2.3721388E-001	-2.7039447E+002
3	0	3.809735936479410E+002	2.3699403E-001	-2.7039447E+002
3	0	3.814735936353100E+002	2.3677890E-001	-2.7035205E+002
3	0	3.819735936226789E+002	2.3656540E-001	-2.7035559E+002
3	0	3.824735936100478E+002	2.3638146E-001	-2.7039447E+002
3	0	3.829735935974168E+002	2.3619266E-001	-2.7036972E+002
3	0	3.834735935847857E+002	2.3600461E-001	-2.7037326E+002
3	0	3.839735935721546E+002	2.3580897E-001	-2.7039093E+002
3	0	3.844735935595236E+002	2.3562831E-001	-2.7038385E+002
3	0	3.849735935468925E+002	2.3542906E-001	-2.7038742E+002
3	0	3.854735935342615E+002	2.3521180E-001	-2.7037677E+002
3	0	3.859735935216304E+002	2.3498575E-001	-2.7038031E+002
3	0	3.864735935089993E+002	2.3480678E-001	-2.7039093E+002
3	0	3.869735934963683E+002	2.3463576E-001	-2.7039447E+002
3	0	3.874735934837372E+002	2.3446137E-001	-2.7039093E+002
3	0	3.879735934711061E+002	2.3428358E-001	-2.7036618E+002
3	0	3.884735934584751E+002	2.3410633E-001	-2.7037326E+002
3	0	3.889735934458440E+002	2.3392273E-001	-2.7037326E+002
3	0	3.894735934332130E+002	2.3371626E-001	-2.7036972E+002
3	0	3.899735934205819E+002	2.3350626E-001	-2.7040155E+002
3	0	3.904735934079508E+002	2.3334074E-001	-2.7036972E+002
3	0	3.909735933953198E+002	2.3318809E-001	-2.7037326E+002
3	0	3.914735933826887E+002	2.3303278E-001	-2.7036618E+002
3	0	3.919735933700576E+002	2.3287278E-001	-2.7038385E+002
3	0	3.924735933574266E+002	2.3271067E-001	-2.7039447E+002
3	0	3.929735933447955E+002	2.3253553E-001	-2.7040506E+002
3	0	3.934735933321645E+002	2.3233600E-001	-2.7038742E+002
3	0	3.939735933195334E+002	2.3213790E-001	-2.7039093E+002
3	0	3.944735933069023E+002	2.3198353E-001	-2.7034497E+002
3	0	3.949735932942713E+002	2.3184010E-001	-2.7036267E+002
3	0	3.954735932816402E+002	2.3169506E-001	-2.7039447E+002
3	0	3.959735932690091E+002	2.3154771E-001	-2.7038031E+002
3	0	3.964735932563781E+002	2.3139708E-001	-2.7040506E+002
3	0	3.969735932437470E+002	2.3123084E-001	-2.7038742E+002
3	0	3.974735932311160E+002	2.3104987E-001	-2.7036972E+002
3	0	3.979735932184849E+002	2.3086962E-001	-2.7035913E+002
3	0	3.984735932058538E+002	2.3073263E-001	-2.7036618E+002
3	0	3.989735931932228E+002	2.3060717E-001	-2.7037326E+002
3	0	3.994735931805917E+002	2.3047389E-001	-2.7038385E+002
3	0	3.999735931679606E+002	2.3034322E-001	-2.7038742E+002
3	0	4.004735931553296E+002	2.3020673E-001	-2.7035559E+002
3	0	4.009735931426985E+002	2.3005524E-001	-2.7039093E+002
3	0	4.014735931300675E+002	2.2989222E-001	-2.7038742E+002
3	0	4.019735931174364E+002	2.2971928E-001	-2.7036972E+002
3	0	4.024735931048053E+002	2.2959174E-001	-2.7039801E+002
3	0	4.029735930921743E+002	2.2947614E-001	-2.7038031E+002
3	0	4.034735930795432E+002	2.2935504E-001	-2.7039801E+002
3	0	4.039735930669121E+002	2.2923295E-001	-2.7040155E+002
3	0	4.044735930542811E+002	2.2910641E-001	-2.7035913E+002
3	0	4.049735930416500E+002	2.2896430E-001	-2.7037677E+002
3	0	4.049739930416399E+002	2.2887100E-001	-2.7038742E+002