EC-Lab ASCII FILE
Nb header lines : 55                          

Open Circuit Voltage

Run on channel : 1 (SN 81504)
User : 
CE vs. WE compliance from -10 V to 10 V
Electrode connection : standard
Potential control : Ewe
Ewe ctrl range : min = -2.50 V, max = 2.50 V
Safety Limits :
	Do not start on E overload
Acquisition started on : 05/10/2026 03:03:02.549
Loaded Setting File :  C:\PEM-WE_measurements\2026\372_IV_IV IrOx, 5 min Pt, 30 min C, etched cathode\new station\Loopeis new\1,46 V different time gaps closed cell\Loopeis 1,46V_60s_5_PEIS from 65Hz to 10Hz.mps
Saved on :
	File : L_15_Loopeis 1,46V_60s_5_PEIS from 65Hz to 10Hz_12_OCV_C01.mpr
	Directory : C:\PEM-WE_measurements\2026\372_IV_IV IrOx, 5 min Pt, 30 min C, etched cathode\new station\Loopeis new\1,46 V different time gaps closed cell\
	Host : 192.168.0.2
Device : SP-150e (SN .005491)
Address : 192.168.0.91
EC-LAB for windows v11.71 (software)
Internet server v28.00 (firmware)
Command interpretor v14.01 (firmware)
Electrode material : 
Initial state : 
Electrolyte : 
Comments : 
Current amplifier : SP-150eB-20A
Electrode surface area : 0.001 cm²
Characteristic mass : 0.001 g
Equivalent Weight : 0.000 g/eq.
Density : 0.000 g/cm3
Volume (V) : 0.001 cm³
Record Analogic IN 1
Text export
   Mode : Standard
   Time format : Elapsed
Cycle Definition : Charge/Discharge alternance
External device configuration :
   device type : Temperature Probe
   device name : Other
   Analog IN 1 : 
      unit : T/Â°C
      max : 100.000 at 2.000 V
      min : 0.000 at 1.460 V
tR (h:m:s)          0:01:0.0000         
dER/dt (mV/h)       1.0                 
record              <Ewe>               
dER (mV)            10.00               
dtR (s)             0.5000              
E range min (V)     -2.500              
E range max (V)     2.500               

mode	error	time/s	<Ewe/V>	Analog IN 1/V	
3	0	1.051692018267349E+003	1.2484776E+000	-2.7037326E+002
3	0	1.052192018254718E+003	1.2581580E+000	-2.7036618E+002
3	0	1.052692018242087E+003	1.2620773E+000	-2.7036618E+002
3	0	1.053192018229456E+003	1.2643107E+000	-2.7036972E+002
3	0	1.053692018216825E+003	1.2657603E+000	-2.7037326E+002
3	0	1.054192018204194E+003	1.2667407E+000	-2.7038385E+002
3	0	1.054692018191563E+003	1.2673674E+000	-2.7036972E+002
3	0	1.055192018178932E+003	1.2677680E+000	-2.7038742E+002
3	0	1.055692018166301E+003	1.2680936E+000	-2.7037326E+002
3	0	1.056192018153670E+003	1.2683212E+000	-2.7038742E+002
3	0	1.056692018141039E+003	1.2684662E+000	-2.7034497E+002
3	0	1.057192018128408E+003	1.2685629E+000	-2.7039093E+002
3	0	1.057692018115777E+003	1.2686032E+000	-2.7038031E+002
3	0	1.058192018103146E+003	1.2685900E+000	-2.7039093E+002
3	0	1.058692018090514E+003	1.2684962E+000	-2.7037326E+002
3	0	1.059192018077883E+003	1.2683456E+000	-2.7033789E+002
3	0	1.059692018065252E+003	1.2682608E+000	-2.7039447E+002
3	0	1.060192018052621E+003	1.2681700E+000	-2.7036267E+002
3	0	1.060692018039990E+003	1.2680792E+000	-2.7035913E+002
3	0	1.061192018027359E+003	1.2679882E+000	-2.7038742E+002
3	0	1.061692018014728E+003	1.2678941E+000	-2.7038031E+002
3	0	1.062192018002097E+003	1.2677845E+000	-2.7036618E+002
3	0	1.062692017989466E+003	1.2676011E+000	-2.7037326E+002
3	0	1.063192017976835E+003	1.2673835E+000	-2.7040155E+002
3	0	1.063692017964204E+003	1.2672547E+000	-2.7038742E+002
3	0	1.064192017951573E+003	1.2671398E+000	-2.7036972E+002
3	0	1.064692017938942E+003	1.2670310E+000	-2.7036618E+002
3	0	1.065192017926311E+003	1.2669349E+000	-2.7038742E+002
3	0	1.065692017913680E+003	1.2668442E+000	-2.7036972E+002
3	0	1.066192017901049E+003	1.2667387E+000	-2.7036618E+002
3	0	1.066692017888417E+003	1.2665957E+000	-2.7038742E+002
3	0	1.067192017875786E+003	1.2664264E+000	-2.7038031E+002
3	0	1.067692017863155E+003	1.2663555E+000	-2.7037326E+002
3	0	1.068192017850524E+003	1.2663196E+000	-2.7040506E+002
3	0	1.068692017837893E+003	1.2663009E+000	-2.7038031E+002
3	0	1.069192017825262E+003	1.2662967E+000	-2.7037326E+002
3	0	1.069692017812631E+003	1.2662963E+000	-2.7033438E+002
3	0	1.070192017800000E+003	1.2662827E+000	-2.7037677E+002
3	0	1.070692017787369E+003	1.2661973E+000	-2.7036618E+002
3	0	1.071192017774738E+003	1.2660738E+000	-2.7038742E+002
3	0	1.071692017762107E+003	1.2660425E+000	-2.7037326E+002
3	0	1.072192017749476E+003	1.2660252E+000	-2.7036618E+002
3	0	1.072692017736845E+003	1.2659990E+000	-2.7039093E+002
3	0	1.073192017724214E+003	1.2659850E+000	-2.7038385E+002
3	0	1.073692017711583E+003	1.2659655E+000	-2.7038385E+002
3	0	1.074192017698952E+003	1.2659144E+000	-2.7038742E+002
3	0	1.074692017686320E+003	1.2657933E+000	-2.7040506E+002
3	0	1.075192017673689E+003	1.2656233E+000	-2.7037677E+002
3	0	1.075692017661058E+003	1.2655460E+000	-2.7038742E+002
3	0	1.076192017648427E+003	1.2654743E+000	-2.7038385E+002
3	0	1.076692017635796E+003	1.2653980E+000	-2.7035913E+002
3	0	1.077192017623165E+003	1.2653245E+000	-2.7037326E+002
3	0	1.077692017610534E+003	1.2652447E+000	-2.7036618E+002
3	0	1.078192017597903E+003	1.2651285E+000	-2.7036972E+002
3	0	1.078692017585272E+003	1.2649490E+000	-2.7036267E+002
3	0	1.079192017572641E+003	1.2647200E+000	-2.7036618E+002
3	0	1.079692017560010E+003	1.2645820E+000	-2.7039447E+002
3	0	1.080192017547379E+003	1.2644570E+000	-2.7037677E+002
3	0	1.080692017534748E+003	1.2643321E+000	-2.7039801E+002
3	0	1.081192017522117E+003	1.2641946E+000	-2.7038742E+002
3	0	1.081692017509486E+003	1.2640651E+000	-2.7037326E+002
3	0	1.082192017496855E+003	1.2639077E+000	-2.7037326E+002
3	0	1.082692017484223E+003	1.2636670E+000	-2.7038031E+002
3	0	1.083192017471592E+003	1.2633822E+000	-2.7038742E+002
3	0	1.083692017458961E+003	1.2631879E+000	-2.7039801E+002
3	0	1.084192017446330E+003	1.2630060E+000	-2.7038385E+002
3	0	1.084692017433699E+003	1.2628267E+000	-2.7035913E+002
3	0	1.085192017421068E+003	1.2626549E+000	-2.7036972E+002
3	0	1.085692017408437E+003	1.2624887E+000	-2.7040860E+002
3	0	1.086192017395806E+003	1.2623042E+000	-2.7037677E+002
3	0	1.086692017383175E+003	1.2620702E+000	-2.7038742E+002
3	0	1.087192017370544E+003	1.2617958E+000	-2.7038385E+002
3	0	1.087692017357913E+003	1.2616256E+000	-2.7035559E+002
3	0	1.088192017345282E+003	1.2614834E+000	-2.7038385E+002
3	0	1.088692017332651E+003	1.2613516E+000	-2.7040506E+002
3	0	1.089192017320020E+003	1.2612270E+000	-2.7039093E+002
3	0	1.089692017307389E+003	1.2611135E+000	-2.7036972E+002
3	0	1.090192017294758E+003	1.2609797E+000	-2.7038742E+002
3	0	1.090692017282126E+003	1.2607808E+000	-2.7038742E+002
3	0	1.091192017269495E+003	1.2605373E+000	-2.7036618E+002
3	0	1.091692017256864E+003	1.2603769E+000	-2.7035913E+002
3	0	1.092192017244233E+003	1.2602392E+000	-2.7037677E+002
3	0	1.092692017231602E+003	1.2600980E+000	-2.7037326E+002
3	0	1.093192017218971E+003	1.2599516E+000	-2.7037677E+002
3	0	1.093692017206340E+003	1.2598068E+000	-2.7038742E+002
3	0	1.094192017193709E+003	1.2596414E+000	-2.7039093E+002
3	0	1.094692017181078E+003	1.2594007E+000	-2.7037326E+002
3	0	1.095192017168447E+003	1.2591059E+000	-2.7039447E+002
3	0	1.095692017155816E+003	1.2589000E+000	-2.7034143E+002
3	0	1.096192017143185E+003	1.2587057E+000	-2.7037677E+002
3	0	1.096692017130554E+003	1.2585144E+000	-2.7036972E+002
3	0	1.097192017117923E+003	1.2583191E+000	-2.7036267E+002
3	0	1.097692017105292E+003	1.2581260E+000	-2.7036972E+002
3	0	1.098192017092661E+003	1.2579046E+000	-2.7039093E+002
3	0	1.098692017080029E+003	1.2576236E+000	-2.7037677E+002
3	0	1.099192017067398E+003	1.2572889E+000	-2.7035205E+002
3	0	1.099692017054767E+003	1.2570425E+000	-2.7038742E+002
3	0	1.100192017042136E+003	1.2568120E+000	-2.7038031E+002
3	0	1.100692017029505E+003	1.2565808E+000	-2.7038742E+002
3	0	1.101192017016874E+003	1.2563535E+000	-2.7037326E+002
3	0	1.101692017004243E+003	1.2561330E+000	-2.7038031E+002
3	0	1.102192016991612E+003	1.2558801E+000	-2.7039093E+002
3	0	1.102692016978981E+003	1.2555583E+000	-2.7037677E+002
3	0	1.103192016966350E+003	1.2551863E+000	-2.7036618E+002
3	0	1.103692016953719E+003	1.2549092E+000	-2.7037677E+002
3	0	1.104192016941088E+003	1.2546479E+000	-2.7037677E+002
3	0	1.104692016928457E+003	1.2543908E+000	-2.7037677E+002
3	0	1.105192016915826E+003	1.2541500E+000	-2.7038742E+002
3	0	1.105692016903195E+003	1.2539082E+000	-2.7036618E+002
3	0	1.106192016890564E+003	1.2536587E+000	-2.7035559E+002
3	0	1.106692016877932E+003	1.2533430E+000	-2.7037677E+002
3	0	1.107192016865301E+003	1.2530022E+000	-2.7037326E+002
3	0	1.107692016852670E+003	1.2527587E+000	-2.7037677E+002
3	0	1.108192016840039E+003	1.2525438E+000	-2.7037677E+002
3	0	1.108692016827408E+003	1.2523520E+000	-2.7038385E+002
3	0	1.109192016814777E+003	1.2521632E+000	-2.7035559E+002
3	0	1.109692016802146E+003	1.2519761E+000	-2.7038742E+002
3	0	1.110192016789515E+003	1.2517796E+000	-2.7038742E+002
3	0	1.110692016776884E+003	1.2515153E+000	-2.7038385E+002
3	0	1.111192016764253E+003	1.2512146E+000	-2.7037677E+002
3	0	1.111216616763631E+003	1.2510811E+000	-2.7039093E+002