EC-Lab ASCII FILE
Nb header lines : 55                          

Open Circuit Voltage

Run on channel : 1 (SN 81504)
User : 
CE vs. WE compliance from -10 V to 10 V
Electrode connection : standard
Potential control : Ewe
Ewe ctrl range : min = -2.50 V, max = 2.50 V
Safety Limits :
	Do not start on E overload
Acquisition started on : 05/08/2026 01:25:27.042
Loaded Setting File :  C:\PEM-WE_measurements\2026\372_IV_IV IrOx, 5 min Pt, 30 min C, etched cathode\new station\Loopeis new\1,46 V different time gaps open cell\Loopeis 1,46V_180s_5_PEIS from 65Hz to 10Hz.mps
Saved on :
	File : L_30_Loopeis 1,46V_180s_5_PEIS from 65Hz to 10Hz_04_OCV_C01.mpr
	Directory : C:\PEM-WE_measurements\2026\372_IV_IV IrOx, 5 min Pt, 30 min C, etched cathode\new station\Loopeis new\1,46 V different time gaps open cell\
	Host : 192.168.0.2
Device : SP-150e (SN .005491)
Address : 192.168.0.91
EC-LAB for windows v11.71 (software)
Internet server v28.00 (firmware)
Command interpretor v14.01 (firmware)
Electrode material : 
Initial state : 
Electrolyte : 
Comments : 
Current amplifier : SP-150eB-20A
Electrode surface area : 0.001 cm²
Characteristic mass : 0.001 g
Equivalent Weight : 0.000 g/eq.
Density : 0.000 g/cm3
Volume (V) : 0.001 cm³
Record Analogic IN 1
Text export
   Mode : Standard
   Time format : Elapsed
Cycle Definition : Charge/Discharge alternance
External device configuration :
   device type : Temperature Probe
   device name : Other
   Analog IN 1 : 
      unit : T/Â°C
      max : 100.000 at 2.000 V
      min : 0.000 at 1.460 V
tR (h:m:s)          0:03:0.0000         
dER/dt (mV/h)       1.0                 
record              <Ewe>               
dER (mV)            10.00               
dtR (s)             0.5000              
E range min (V)     -2.500              
E range max (V)     2.500               

mode	error	time/s	<Ewe/V>	Analog IN 1/V	
3	0	2.835865970639861E+002	1.2303693E+000	-2.7037677E+002
3	0	2.840865970513551E+002	1.2001785E+000	-2.7038385E+002
3	0	2.845865970387240E+002	9.4702291E-001	-2.7039447E+002
3	0	2.850865970260929E+002	4.7685593E-001	-2.7036972E+002
3	0	2.855865970134619E+002	3.5437423E-001	-2.7038742E+002
3	0	2.860865970008308E+002	3.3792242E-001	-2.7038742E+002
3	0	2.865865969881997E+002	3.2942739E-001	-2.7036972E+002
3	0	2.870865969755687E+002	3.2272831E-001	-2.7039093E+002
3	0	2.875865969629376E+002	3.1766525E-001	-2.7038385E+002
3	0	2.880865969503066E+002	3.1381574E-001	-2.7035913E+002
3	0	2.885865969376755E+002	3.1081215E-001	-2.7038031E+002
3	0	2.890865969250444E+002	3.0841357E-001	-2.7037677E+002
3	0	2.895865969124134E+002	3.0643478E-001	-2.7038385E+002
3	0	2.900865968997823E+002	3.0476305E-001	-2.7039801E+002
3	0	2.905865968871512E+002	3.0330077E-001	-2.7036618E+002
3	0	2.910865968745202E+002	3.0200526E-001	-2.7038742E+002
3	0	2.915865968618891E+002	3.0088100E-001	-2.7036972E+002
3	0	2.920865968492581E+002	2.9986864E-001	-2.7037677E+002
3	0	2.925865968366270E+002	2.9893488E-001	-2.7040155E+002
3	0	2.930865968239959E+002	2.9807952E-001	-2.7036972E+002
3	0	2.935865968113649E+002	2.9726613E-001	-2.7035913E+002
3	0	2.940865967987338E+002	2.9648969E-001	-2.7038385E+002
3	0	2.945865967861027E+002	2.9572612E-001	-2.7040155E+002
3	0	2.950865967734717E+002	2.9498336E-001	-2.7038031E+002
3	0	2.955865967608406E+002	2.9430130E-001	-2.7039447E+002
3	0	2.960865967482096E+002	2.9364920E-001	-2.7039801E+002
3	0	2.965865967355785E+002	2.9301718E-001	-2.7035205E+002
3	0	2.970865967229474E+002	2.9240063E-001	-2.7033789E+002
3	0	2.975865967103164E+002	2.9180440E-001	-2.7035913E+002
3	0	2.980865966976853E+002	2.9120314E-001	-2.7037677E+002
3	0	2.985865966850542E+002	2.9060239E-001	-2.7039801E+002
3	0	2.990865966724232E+002	2.8998893E-001	-2.7038385E+002
3	0	2.995865966597921E+002	2.8942159E-001	-2.7037677E+002
3	0	3.000865966471611E+002	2.8887439E-001	-2.7036972E+002
3	0	3.005865966345300E+002	2.8833777E-001	-2.7038385E+002
3	0	3.010865966218989E+002	2.8779536E-001	-2.7040155E+002
3	0	3.015865966092679E+002	2.8726777E-001	-2.7037326E+002
3	0	3.020865965966368E+002	2.8673843E-001	-2.7036618E+002
3	0	3.025865965840057E+002	2.8619000E-001	-2.7039447E+002
3	0	3.030865965713747E+002	2.8564587E-001	-2.7038742E+002
3	0	3.035865965587436E+002	2.8513852E-001	-2.7038385E+002
3	0	3.040865965461126E+002	2.8463969E-001	-2.7038742E+002
3	0	3.045865965334815E+002	2.8414807E-001	-2.7038742E+002
3	0	3.050865965208504E+002	2.8365174E-001	-2.7037677E+002
3	0	3.055865965082194E+002	2.8317350E-001	-2.7038385E+002
3	0	3.060865964955883E+002	2.8268206E-001	-2.7036618E+002
3	0	3.065865964829572E+002	2.8218371E-001	-2.7038031E+002
3	0	3.070865964703262E+002	2.8167516E-001	-2.7038031E+002
3	0	3.075865964576951E+002	2.8120330E-001	-2.7038031E+002
3	0	3.080865964450641E+002	2.8074211E-001	-2.7038385E+002
3	0	3.085865964324330E+002	2.8028473E-001	-2.7037677E+002
3	0	3.090865964198019E+002	2.7983460E-001	-2.7036972E+002
3	0	3.095865964071709E+002	2.7939242E-001	-2.7038385E+002
3	0	3.100865963945398E+002	2.7895087E-001	-2.7036618E+002
3	0	3.105865963819087E+002	2.7848768E-001	-2.7036972E+002
3	0	3.110865963692777E+002	2.7801558E-001	-2.7036972E+002
3	0	3.115865963566466E+002	2.7758190E-001	-2.7039447E+002
3	0	3.120865963440156E+002	2.7715358E-001	-2.7038385E+002
3	0	3.125865963313845E+002	2.7673090E-001	-2.7038031E+002
3	0	3.130865963187534E+002	2.7631193E-001	-2.7036618E+002
3	0	3.135865963061224E+002	2.7589586E-001	-2.7039801E+002
3	0	3.140865962934913E+002	2.7547121E-001	-2.7037677E+002
3	0	3.145865962808602E+002	2.7503398E-001	-2.7037326E+002
3	0	3.150865962682292E+002	2.7459940E-001	-2.7037326E+002
3	0	3.155865962555981E+002	2.7420396E-001	-2.7038031E+002
3	0	3.160865962429671E+002	2.7380902E-001	-2.7040155E+002
3	0	3.165865962303360E+002	2.7341676E-001	-2.7039447E+002
3	0	3.170865962177049E+002	2.7303427E-001	-2.7036618E+002
3	0	3.175865962050739E+002	2.7265069E-001	-2.7038385E+002
3	0	3.180865961924428E+002	2.7227330E-001	-2.7038385E+002
3	0	3.185865961798118E+002	2.7187324E-001	-2.7039447E+002
3	0	3.190865961671807E+002	2.7146524E-001	-2.7036618E+002
3	0	3.195865961545496E+002	2.7109927E-001	-2.7037326E+002
3	0	3.200865961419186E+002	2.7074257E-001	-2.7037677E+002
3	0	3.205865961292875E+002	2.7038816E-001	-2.7036618E+002
3	0	3.210865961166564E+002	2.7003130E-001	-2.7038031E+002
3	0	3.215865961040254E+002	2.6969072E-001	-2.7037326E+002
3	0	3.220865960913943E+002	2.6934379E-001	-2.7038742E+002
3	0	3.225865960787633E+002	2.6897517E-001	-2.7038385E+002
3	0	3.230865960661322E+002	2.6860058E-001	-2.7036618E+002
3	0	3.235865960535011E+002	2.6827171E-001	-2.7038031E+002
3	0	3.240865960408701E+002	2.6794341E-001	-2.7035559E+002
3	0	3.245865960282390E+002	2.6761270E-001	-2.7038385E+002
3	0	3.250865960156079E+002	2.6729390E-001	-2.7037326E+002
3	0	3.255865960029769E+002	2.6697576E-001	-2.7036618E+002
3	0	3.260865959903458E+002	2.6664960E-001	-2.7038742E+002
3	0	3.265865959777148E+002	2.6630947E-001	-2.7035559E+002
3	0	3.270865959650837E+002	2.6596972E-001	-2.7038385E+002
3	0	3.275865959524526E+002	2.6566440E-001	-2.7037677E+002
3	0	3.280865959398216E+002	2.6536667E-001	-2.7035913E+002
3	0	3.285865959271905E+002	2.6506269E-001	-2.7039447E+002
3	0	3.290865959145594E+002	2.6477918E-001	-2.7038742E+002
3	0	3.295865959019284E+002	2.6448959E-001	-2.7036972E+002
3	0	3.300865958892973E+002	2.6418856E-001	-2.7038385E+002
3	0	3.305865958766663E+002	2.6387149E-001	-2.7035913E+002
3	0	3.310865958640352E+002	2.6355261E-001	-2.7040506E+002
3	0	3.315865958514041E+002	2.6327974E-001	-2.7036972E+002
3	0	3.320865958387731E+002	2.6300493E-001	-2.7037677E+002
3	0	3.325865958261420E+002	2.6273200E-001	-2.7039447E+002
3	0	3.330865958135109E+002	2.6245943E-001	-2.7039093E+002
3	0	3.335865958008799E+002	2.6218414E-001	-2.7038031E+002
3	0	3.340865957882488E+002	2.6188603E-001	-2.7038385E+002
3	0	3.345865957756178E+002	2.6159635E-001	-2.7035913E+002
3	0	3.350865957629867E+002	2.6131386E-001	-2.7040860E+002
3	0	3.355865957503556E+002	2.6106608E-001	-2.7037677E+002
3	0	3.360865957377246E+002	2.6081643E-001	-2.7037677E+002
3	0	3.365865957250935E+002	2.6056308E-001	-2.7035913E+002
3	0	3.370865957124624E+002	2.6031354E-001	-2.7038742E+002
3	0	3.375865956998314E+002	2.6006618E-001	-2.7036972E+002
3	0	3.380865956872003E+002	2.5981236E-001	-2.7039093E+002
3	0	3.385865956745693E+002	2.5955164E-001	-2.7037677E+002
3	0	3.390865956619382E+002	2.5927842E-001	-2.7036972E+002
3	0	3.395865956493071E+002	2.5904915E-001	-2.7038742E+002
3	0	3.400865956366761E+002	2.5882477E-001	-2.7036972E+002
3	0	3.405865956240450E+002	2.5860184E-001	-2.7038031E+002
3	0	3.410865956114139E+002	2.5837150E-001	-2.7034851E+002
3	0	3.415865955987829E+002	2.5815037E-001	-2.7040860E+002
3	0	3.420865955861518E+002	2.5791776E-001	-2.7039801E+002
3	0	3.425865955735208E+002	2.5766259E-001	-2.7037677E+002
3	0	3.430865955608897E+002	2.5741437E-001	-2.7036267E+002
3	0	3.435865955482586E+002	2.5720385E-001	-2.7038385E+002
3	0	3.440865955356276E+002	2.5699696E-001	-2.7039093E+002
3	0	3.445865955229965E+002	2.5679031E-001	-2.7038742E+002
3	0	3.450865955103654E+002	2.5658223E-001	-2.7038742E+002
3	0	3.455865954977344E+002	2.5637892E-001	-2.7038031E+002
3	0	3.460865954851033E+002	2.5617754E-001	-2.7034851E+002
3	0	3.465865954724723E+002	2.5594345E-001	-2.7038385E+002
3	0	3.470865954598412E+002	2.5570753E-001	-2.7038031E+002
3	0	3.475865954472101E+002	2.5551656E-001	-2.7038742E+002
3	0	3.480865954345791E+002	2.5532344E-001	-2.7036972E+002
3	0	3.485865954219480E+002	2.5513008E-001	-2.7037326E+002
3	0	3.490865954093169E+002	2.5493649E-001	-2.7039447E+002
3	0	3.495865953966859E+002	2.5474975E-001	-2.7037677E+002
3	0	3.500865953840548E+002	2.5454658E-001	-2.7038031E+002
3	0	3.505865953714238E+002	2.5433952E-001	-2.7035559E+002
3	0	3.510865953587927E+002	2.5412321E-001	-2.7040860E+002
3	0	3.515865953461616E+002	2.5394410E-001	-2.7040506E+002
3	0	3.520865953335306E+002	2.5377408E-001	-2.7035913E+002
3	0	3.525865953208995E+002	2.5360182E-001	-2.7036972E+002
3	0	3.530865953082684E+002	2.5342202E-001	-2.7034851E+002
3	0	3.535865952956374E+002	2.5324896E-001	-2.7035205E+002
3	0	3.540865952830063E+002	2.5306758E-001	-2.7036972E+002
3	0	3.545865952703753E+002	2.5286490E-001	-2.7038742E+002
3	0	3.550865952577442E+002	2.5265115E-001	-2.7036618E+002
3	0	3.555865952451131E+002	2.5248489E-001	-2.7038031E+002
3	0	3.560865952324821E+002	2.5231707E-001	-2.7039447E+002
3	0	3.565865952198510E+002	2.5215352E-001	-2.7037677E+002
3	0	3.570865952072199E+002	2.5198784E-001	-2.7039093E+002
3	0	3.575865951945889E+002	2.5182059E-001	-2.7039801E+002
3	0	3.580865951819578E+002	2.5165439E-001	-2.7037677E+002
3	0	3.585865951693268E+002	2.5146735E-001	-2.7036972E+002
3	0	3.590865951566957E+002	2.5127351E-001	-2.7039093E+002
3	0	3.595865951440646E+002	2.5112268E-001	-2.7039093E+002
3	0	3.600865951314336E+002	2.5096986E-001	-2.7037326E+002
3	0	3.605865951188025E+002	2.5081837E-001	-2.7036618E+002
3	0	3.610865951061714E+002	2.5067067E-001	-2.7039447E+002
3	0	3.615865950935404E+002	2.5052744E-001	-2.7037326E+002
3	0	3.620865950809093E+002	2.5036925E-001	-2.7038742E+002
3	0	3.625865950682783E+002	2.5018555E-001	-2.7039447E+002
3	0	3.630865950556472E+002	2.5001022E-001	-2.7036972E+002
3	0	3.635865950430161E+002	2.4987218E-001	-2.7036618E+002
3	0	3.640865950303851E+002	2.4973978E-001	-2.7038385E+002
3	0	3.645865950177540E+002	2.4959885E-001	-2.7038385E+002
3	0	3.650865950051229E+002	2.4945900E-001	-2.7037326E+002
3	0	3.655865949924919E+002	2.4932501E-001	-2.7039801E+002
3	0	3.660865949798608E+002	2.4918185E-001	-2.7038385E+002
3	0	3.665865949672298E+002	2.4901378E-001	-2.7039447E+002
3	0	3.670865949545987E+002	2.4884509E-001	-2.7035913E+002
3	0	3.675865949419676E+002	2.4871740E-001	-2.7038385E+002
3	0	3.680865949293366E+002	2.4859346E-001	-2.7039447E+002
3	0	3.685865949167055E+002	2.4845931E-001	-2.7035913E+002
3	0	3.690865949040744E+002	2.4833047E-001	-2.7036972E+002
3	0	3.695865948914434E+002	2.4820775E-001	-2.7035205E+002
3	0	3.700865948788123E+002	2.4807164E-001	-2.7037326E+002
3	0	3.705865948661813E+002	2.4791649E-001	-2.7041919E+002
3	0	3.710865948535502E+002	2.4775499E-001	-2.7038385E+002
3	0	3.715865948409191E+002	2.4763404E-001	-2.7038385E+002
3	0	3.720865948282881E+002	2.4752091E-001	-2.7037677E+002
3	0	3.725865948156570E+002	2.4739738E-001	-2.7036972E+002
3	0	3.730865948030259E+002	2.4728070E-001	-2.7038385E+002
3	0	3.735865947903949E+002	2.4715848E-001	-2.7038385E+002
3	0	3.740865947777638E+002	2.4702288E-001	-2.7036618E+002
3	0	3.745865947651328E+002	2.4687679E-001	-2.7039093E+002
3	0	3.750865947525017E+002	2.4672134E-001	-2.7035913E+002
3	0	3.755865947398706E+002	2.4661329E-001	-2.7038742E+002
3	0	3.760865947272396E+002	2.4650246E-001	-2.7040155E+002
3	0	3.765865947146085E+002	2.4638526E-001	-2.7039801E+002
3	0	3.770865947019774E+002	2.4627386E-001	-2.7037677E+002
3	0	3.775865946893464E+002	2.4615528E-001	-2.7038385E+002
3	0	3.780865946767153E+002	2.4603109E-001	-2.7037326E+002
3	0	3.785865946640843E+002	2.4588615E-001	-2.7036972E+002
3	0	3.790865946514532E+002	2.4573939E-001	-2.7035913E+002
3	0	3.795865946388221E+002	2.4563532E-001	-2.7037326E+002
3	0	3.800865946261911E+002	2.4553359E-001	-2.7036618E+002
3	0	3.805865946135600E+002	2.4542738E-001	-2.7038031E+002
3	0	3.810865946009289E+002	2.4532780E-001	-2.7035913E+002
3	0	3.815865945882979E+002	2.4522567E-001	-2.7037326E+002
3	0	3.820865945756668E+002	2.4511418E-001	-2.7039801E+002
3	0	3.825865945630358E+002	2.4497831E-001	-2.7038031E+002
3	0	3.830865945504047E+002	2.4483976E-001	-2.7037677E+002
3	0	3.835865945377736E+002	2.4474710E-001	-2.7035205E+002
3	0	3.840865945251426E+002	2.4465156E-001	-2.7037326E+002
3	0	3.845865945125115E+002	2.4455160E-001	-2.7035205E+002
3	0	3.850865944998804E+002	2.4445710E-001	-2.7039093E+002
3	0	3.855865944872494E+002	2.4436285E-001	-2.7038385E+002
3	0	3.860865944746183E+002	2.4426115E-001	-2.7040506E+002
3	0	3.865865944619873E+002	2.4412963E-001	-2.7037677E+002
3	0	3.870865944493562E+002	2.4400029E-001	-2.7035205E+002
3	0	3.875865944367251E+002	2.4390997E-001	-2.7035913E+002
3	0	3.880865944240941E+002	2.4382649E-001	-2.7039447E+002
3	0	3.885865944114630E+002	2.4373326E-001	-2.7041919E+002
3	0	3.890865943988319E+002	2.4364640E-001	-2.7038742E+002
3	0	3.895865943862009E+002	2.4355887E-001	-2.7039093E+002
3	0	3.900865943735698E+002	2.4345118E-001	-2.7036972E+002
3	0	3.905865943609388E+002	2.4333240E-001	-2.7037677E+002
3	0	3.910865943483077E+002	2.4320216E-001	-2.7036972E+002
3	0	3.915865943356766E+002	2.4311621E-001	-2.7039093E+002
3	0	3.920865943230456E+002	2.4303333E-001	-2.7038742E+002
3	0	3.925865943104145E+002	2.4295299E-001	-2.7038742E+002
3	0	3.930865942977834E+002	2.4286729E-001	-2.7039801E+002
3	0	3.935865942851524E+002	2.4278124E-001	-2.7039801E+002
3	0	3.940865942725213E+002	2.4268822E-001	-2.7036972E+002
3	0	3.945865942598903E+002	2.4256583E-001	-2.7039093E+002
3	0	3.950865942472592E+002	2.4243961E-001	-2.7037326E+002
3	0	3.955865942346281E+002	2.4235651E-001	-2.7039447E+002
3	0	3.960865942219971E+002	2.4226639E-001	-2.7035913E+002
3	0	3.965865942093660E+002	2.4218526E-001	-2.7037326E+002
3	0	3.970865941967350E+002	2.4209820E-001	-2.7038031E+002
3	0	3.975865941841039E+002	2.4201237E-001	-2.7038031E+002
3	0	3.980865941714728E+002	2.4191853E-001	-2.7036618E+002
3	0	3.985865941588418E+002	2.4180734E-001	-2.7035913E+002
3	0	3.990865941462107E+002	2.4168460E-001	-2.7038742E+002
3	0	3.995865941335796E+002	2.4160391E-001	-2.7041214E+002
3	0	4.000865941209486E+002	2.4152964E-001	-2.7038031E+002
3	0	4.005865941083175E+002	2.4145502E-001	-2.7035913E+002
3	0	4.010865940956865E+002	2.4137922E-001	-2.7038742E+002
3	0	4.015865940830554E+002	2.4130294E-001	-2.7041919E+002
3	0	4.020865940704243E+002	2.4121137E-001	-2.7037677E+002
3	0	4.025865940577933E+002	2.4110201E-001	-2.7039093E+002
3	0	4.030865940451622E+002	2.4098253E-001	-2.7038742E+002
3	0	4.035865940325311E+002	2.4091025E-001	-2.7036972E+002
3	0	4.040865940199001E+002	2.4083839E-001	-2.7037326E+002
3	0	4.045865940072690E+002	2.4076772E-001	-2.7037326E+002
3	0	4.050865939946380E+002	2.4069530E-001	-2.7039093E+002
3	0	4.055865939820069E+002	2.4062520E-001	-2.7035913E+002
3	0	4.060865939693758E+002	2.4054620E-001	-2.7038742E+002
3	0	4.065865939567448E+002	2.4044025E-001	-2.7038742E+002
3	0	4.070865939441137E+002	2.4032764E-001	-2.7034143E+002
3	0	4.075865939314826E+002	2.4025765E-001	-2.7036972E+002
3	0	4.080865939188516E+002	2.4019203E-001	-2.7038031E+002
3	0	4.085865939062205E+002	2.4012658E-001	-2.7039093E+002
3	0	4.090865938935895E+002	2.4005379E-001	-2.7038031E+002
3	0	4.095865938809584E+002	2.3998964E-001	-2.7038031E+002
3	0	4.100865938683273E+002	2.3990646E-001	-2.7036618E+002
3	0	4.105865938556963E+002	2.3980540E-001	-2.7039093E+002
3	0	4.110865938430652E+002	2.3970103E-001	-2.7038385E+002
3	0	4.115865938304341E+002	2.3963487E-001	-2.7038742E+002
3	0	4.120865938178031E+002	2.3957181E-001	-2.7035913E+002
3	0	4.125865938051720E+002	2.3950538E-001	-2.7037677E+002
3	0	4.130865937925410E+002	2.3944640E-001	-2.7035205E+002
3	0	4.135865937799099E+002	2.3937498E-001	-2.7040506E+002
3	0	4.140865937672788E+002	2.3929825E-001	-2.7039801E+002
3	0	4.145865937546478E+002	2.3919749E-001	-2.7036972E+002
3	0	4.150865937420167E+002	2.3909144E-001	-2.7037677E+002
3	0	4.155865937293856E+002	2.3902719E-001	-2.7038385E+002
3	0	4.160865937167546E+002	2.3896119E-001	-2.7036618E+002
3	0	4.165865937041235E+002	2.3889044E-001	-2.7035205E+002
3	0	4.170865936914925E+002	2.3882188E-001	-2.7038742E+002
3	0	4.175865936788614E+002	2.3874958E-001	-2.7039093E+002
3	0	4.180865936662303E+002	2.3867016E-001	-2.7035559E+002
3	0	4.185865936535993E+002	2.3856647E-001	-2.7038385E+002
3	0	4.190865936409682E+002	2.3846009E-001	-2.7038031E+002
3	0	4.195865936283371E+002	2.3839585E-001	-2.7036267E+002
3	0	4.200865936157061E+002	2.3833622E-001	-2.7037677E+002
3	0	4.205865936030750E+002	2.3827255E-001	-2.7037326E+002
3	0	4.210865935904440E+002	2.3821381E-001	-2.7039093E+002
3	0	4.215865935778129E+002	2.3814991E-001	-2.7037326E+002
3	0	4.220865935651818E+002	2.3807994E-001	-2.7041919E+002
3	0	4.225865935525508E+002	2.3798236E-001	-2.7034851E+002
3	0	4.230865935399197E+002	2.3787907E-001	-2.7036267E+002
3	0	4.235865935272886E+002	2.3782155E-001	-2.7037677E+002
3	0	4.240865935146576E+002	2.3776801E-001	-2.7036618E+002
3	0	4.245865935020265E+002	2.3771004E-001	-2.7038385E+002
3	0	4.250865934893955E+002	2.3765653E-001	-2.7036618E+002
3	0	4.255865934767644E+002	2.3759940E-001	-2.7037677E+002
3	0	4.260865934641333E+002	2.3753123E-001	-2.7037326E+002
3	0	4.265865934515023E+002	2.3743650E-001	-2.7036972E+002
3	0	4.270865934388712E+002	2.3734012E-001	-2.7040155E+002
3	0	4.275865934262401E+002	2.3728412E-001	-2.7037326E+002
3	0	4.280865934136091E+002	2.3723377E-001	-2.7035559E+002
3	0	4.285865934009780E+002	2.3717637E-001	-2.7037677E+002
3	0	4.290865933883470E+002	2.3711950E-001	-2.7035913E+002
3	0	4.295865933757159E+002	2.3706849E-001	-2.7036972E+002
3	0	4.300865933630848E+002	2.3700252E-001	-2.7038742E+002
3	0	4.305865933504538E+002	2.3691709E-001	-2.7038742E+002
3	0	4.310865933378227E+002	2.3682059E-001	-2.7039093E+002
3	0	4.315865933251916E+002	2.3677291E-001	-2.7038031E+002
3	0	4.320865933125606E+002	2.3672393E-001	-2.7036267E+002
3	0	4.325865932999295E+002	2.3666969E-001	-2.7038385E+002
3	0	4.330865932872985E+002	2.3661883E-001	-2.7036972E+002
3	0	4.335865932746674E+002	2.3656163E-001	-2.7037677E+002
3	0	4.340865932620363E+002	2.3649901E-001	-2.7037326E+002
3	0	4.345865932494053E+002	2.3641227E-001	-2.7037326E+002
3	0	4.350865932367742E+002	2.3631682E-001	-2.7039093E+002
3	0	4.355865932241431E+002	2.3626275E-001	-2.7038385E+002
3	0	4.360865932115121E+002	2.3621131E-001	-2.7038031E+002
3	0	4.365865931988810E+002	2.3615694E-001	-2.7038385E+002
3	0	4.370865931862500E+002	2.3610035E-001	-2.7036618E+002
3	0	4.375865931736189E+002	2.3604488E-001	-2.7038742E+002
3	0	4.380865931609878E+002	2.3597558E-001	-2.7039093E+002
3	0	4.385865931483568E+002	2.3588531E-001	-2.7037677E+002
3	0	4.390865931357257E+002	2.3579019E-001	-2.7035559E+002
3	0	4.395865931230946E+002	2.3573691E-001	-2.7037326E+002
3	0	4.400865931104636E+002	2.3568870E-001	-2.7036618E+002
3	0	4.405865930978325E+002	2.3564188E-001	-2.7038742E+002
3	0	4.410865930852015E+002	2.3559506E-001	-2.7038031E+002
3	0	4.415865930725704E+002	2.3554347E-001	-2.7037677E+002
3	0	4.420865930599393E+002	2.3548527E-001	-2.7037677E+002
3	0	4.425865930473083E+002	2.3540168E-001	-2.7037677E+002
3	0	4.430865930346772E+002	2.3531236E-001	-2.7036972E+002
3	0	4.435865930220461E+002	2.3526239E-001	-2.7037677E+002
3	0	4.440865930094151E+002	2.3521984E-001	-2.7035205E+002
3	0	4.445865929967840E+002	2.3517333E-001	-2.7036618E+002
3	0	4.450865929841530E+002	2.3512304E-001	-2.7037326E+002
3	0	4.455865929715219E+002	2.3507677E-001	-2.7039447E+002
3	0	4.460865929588908E+002	2.3501971E-001	-2.7036618E+002
3	0	4.465865929462598E+002	2.3493926E-001	-2.7038385E+002
3	0	4.470865929336287E+002	2.3484996E-001	-2.7035559E+002
3	0	4.475865929209976E+002	2.3480277E-001	-2.7038385E+002
3	0	4.480865929083666E+002	2.3475951E-001	-2.7036267E+002
3	0	4.485865928957355E+002	2.3471496E-001	-2.7037677E+002
3	0	4.490865928831045E+002	2.3466758E-001	-2.7038385E+002
3	0	4.495865928704734E+002	2.3458925E-001	-2.7038031E+002
3	0	4.500865928578423E+002	2.3452821E-001	-2.7039093E+002
3	0	4.505865928452113E+002	2.3447411E-001	-2.7038385E+002
3	0	4.510865928325802E+002	2.3439862E-001	-2.7039447E+002
3	0	4.515865928199491E+002	2.3436618E-001	-2.7036267E+002
3	0	4.520865928073181E+002	2.3433620E-001	-2.7037326E+002
3	0	4.525865927946870E+002	2.3429923E-001	-2.7036972E+002
3	0	4.530865927820560E+002	2.3425531E-001	-2.7039801E+002
3	0	4.535865927694249E+002	2.3421893E-001	-2.7038385E+002
3	0	4.540865927567938E+002	2.3415978E-001	-2.7037677E+002
3	0	4.545865927441628E+002	2.3407558E-001	-2.7038742E+002
3	0	4.550865927315317E+002	2.3398112E-001	-2.7039447E+002
3	0	4.555865927189006E+002	2.3392965E-001	-2.7038385E+002
3	0	4.560865927062696E+002	2.3388693E-001	-2.7037326E+002
3	0	4.565865926936385E+002	2.3384340E-001	-2.7035205E+002
3	0	4.570865926810075E+002	2.3379305E-001	-2.7034851E+002
3	0	4.575865926683764E+002	2.3374215E-001	-2.7036972E+002
3	0	4.580865926557453E+002	2.3367606E-001	-2.7038031E+002
3	0	4.585865926431143E+002	2.3359136E-001	-2.7039093E+002
3	0	4.590865926304832E+002	2.3349144E-001	-2.7037326E+002
3	0	4.595865926178521E+002	2.3344286E-001	-2.7038742E+002
3	0	4.600865926052211E+002	2.3341073E-001	-2.7038385E+002
3	0	4.605865925925900E+002	2.3336954E-001	-2.7038742E+002
3	0	4.610865925799590E+002	2.3333001E-001	-2.7038385E+002
3	0	4.615865925673279E+002	2.3328182E-001	-2.7037326E+002
3	0	4.620865925546968E+002	2.3321815E-001	-2.7038385E+002
3	0	4.625865925420658E+002	2.3313320E-001	-2.7037326E+002
3	0	4.630865925294347E+002	2.3304005E-001	-2.7038385E+002
3	0	4.631099925288436E+002	2.3299834E-001	-2.7038031E+002