EC-Lab ASCII FILE
Nb header lines : 55                          

Open Circuit Voltage

Run on channel : 1 (SN 81504)
User : 
CE vs. WE compliance from -10 V to 10 V
Electrode connection : standard
Potential control : Ewe
Ewe ctrl range : min = -2.50 V, max = 2.50 V
Safety Limits :
	Do not start on E overload
Acquisition started on : 05/10/2026 05:01:31.658
Loaded Setting File :  C:\PEM-WE_measurements\2026\372_IV_IV IrOx, 5 min Pt, 30 min C, etched cathode\new station\Loopeis new\1,46 V different time gaps closed cell\Loopeis 1,46V_90s_5_PEIS from 65Hz to 10Hz.mps
Saved on :
	File : L_20_Loopeis 1,46V_90s_5_PEIS from 65Hz to 10Hz_18_OCV_C01.mpr
	Directory : C:\PEM-WE_measurements\2026\372_IV_IV IrOx, 5 min Pt, 30 min C, etched cathode\new station\Loopeis new\1,46 V different time gaps closed cell\
	Host : 192.168.0.2
Device : SP-150e (SN .005491)
Address : 192.168.0.91
EC-LAB for windows v11.71 (software)
Internet server v28.00 (firmware)
Command interpretor v14.01 (firmware)
Electrode material : 
Initial state : 
Electrolyte : 
Comments : 
Current amplifier : SP-150eB-20A
Electrode surface area : 0.001 cm²
Characteristic mass : 0.001 g
Equivalent Weight : 0.000 g/eq.
Density : 0.000 g/cm3
Volume (V) : 0.001 cm³
Record Analogic IN 1
Text export
   Mode : Standard
   Time format : Elapsed
Cycle Definition : Charge/Discharge alternance
External device configuration :
   device type : Temperature Probe
   device name : Other
   Analog IN 1 : 
      unit : T/Â°C
      max : 100.000 at 2.000 V
      min : 0.000 at 1.460 V
tR (h:m:s)          0:01:30.0000        
dER/dt (mV/h)       1.0                 
record              <Ewe>               
dER (mV)            10.00               
dtR (s)             0.5000              
E range min (V)     -2.500              
E range max (V)     2.500               

mode	error	time/s	<Ewe/V>	Analog IN 1/V	
3	0	1.135912985158284E+003	1.2895607E+000	-2.7040860E+002
3	0	1.136412985145653E+003	1.2964195E+000	-2.7038742E+002
3	0	1.136912985133022E+003	1.2965286E+000	-2.7037326E+002
3	0	1.137412985120391E+003	1.2947887E+000	-2.7038031E+002
3	0	1.137912985107760E+003	1.2913488E+000	-2.7039093E+002
3	0	1.138412985095129E+003	1.2850885E+000	-2.7038742E+002
3	0	1.138912985082497E+003	1.2740800E+000	-2.7037326E+002
3	0	1.139412985069866E+003	1.2559662E+000	-2.7037326E+002
3	0	1.139912985057235E+003	1.2272439E+000	-2.7040155E+002
3	0	1.140412985044604E+003	1.1805849E+000	-2.7036267E+002
3	0	1.140912985031973E+003	1.0939828E+000	-2.7042273E+002
3	0	1.141412985019342E+003	8.7881178E-001	-2.7036267E+002
3	0	1.141912985006711E+003	6.1779487E-001	-2.7038742E+002
3	0	1.142412984994080E+003	5.3750479E-001	-2.7035205E+002
3	0	1.142912984981449E+003	5.0687397E-001	-2.7042981E+002
3	0	1.143412984968818E+003	4.9551609E-001	-2.7039447E+002
3	0	1.143912984956187E+003	4.9128917E-001	-2.7037677E+002
3	0	1.144412984943556E+003	4.8958147E-001	-2.7038031E+002
3	0	1.144912984930925E+003	4.8858768E-001	-2.7035559E+002
3	0	1.145412984918294E+003	4.8805428E-001	-2.7040155E+002
3	0	1.145912984905663E+003	4.8919612E-001	-2.7037326E+002
3	0	1.146412984893032E+003	4.9138743E-001	-2.7037677E+002
3	0	1.146912984880400E+003	4.9346200E-001	-2.7039447E+002
3	0	1.147412984867769E+003	4.9533352E-001	-2.7038031E+002
3	0	1.147912984855138E+003	4.9732083E-001	-2.7039093E+002
3	0	1.148412984842507E+003	4.9927536E-001	-2.7037326E+002
3	0	1.148912984829876E+003	5.0082374E-001	-2.7039093E+002
3	0	1.149412984817245E+003	5.0234401E-001	-2.7036972E+002
3	0	1.149912984804614E+003	5.0508893E-001	-2.7036972E+002
3	0	1.150412984791983E+003	5.0845218E-001	-2.7035559E+002
3	0	1.150912984779352E+003	5.1151168E-001	-2.7039093E+002
3	0	1.151412984766721E+003	5.1417637E-001	-2.7035913E+002
3	0	1.151912984754090E+003	5.1693022E-001	-2.7036972E+002
3	0	1.152412984741459E+003	5.1947957E-001	-2.7038031E+002
3	0	1.152912984728828E+003	5.2131438E-001	-2.7036972E+002
3	0	1.153412984716197E+003	5.2283633E-001	-2.7036618E+002
3	0	1.153912984703566E+003	5.2552927E-001	-2.7039093E+002
3	0	1.154412984690935E+003	5.2884847E-001	-2.7038031E+002
3	0	1.154912984678303E+003	5.3164887E-001	-2.7038742E+002
3	0	1.155412984665672E+003	5.3396797E-001	-2.7035205E+002
3	0	1.155912984653041E+003	5.3620726E-001	-2.7034851E+002
3	0	1.156412984640410E+003	5.3809327E-001	-2.7039447E+002
3	0	1.156912984627779E+003	5.3937870E-001	-2.7037326E+002
3	0	1.157412984615148E+003	5.4045188E-001	-2.7038031E+002
3	0	1.157912984602517E+003	5.4247648E-001	-2.7038031E+002
3	0	1.158412984589886E+003	5.4517251E-001	-2.7037326E+002
3	0	1.158912984577255E+003	5.4744947E-001	-2.7036267E+002
3	0	1.159412984564624E+003	5.4919732E-001	-2.7036267E+002
3	0	1.159912984551993E+003	5.5073392E-001	-2.7038742E+002
3	0	1.160412984539362E+003	5.5224496E-001	-2.7036618E+002
3	0	1.160912984526731E+003	5.5346614E-001	-2.7038385E+002
3	0	1.161412984514100E+003	5.5470341E-001	-2.7037326E+002
3	0	1.161912984501469E+003	5.5746663E-001	-2.7036972E+002
3	0	1.162412984488838E+003	5.6134695E-001	-2.7042273E+002
3	0	1.162912984476206E+003	5.6540900E-001	-2.7038031E+002
3	0	1.163412984463575E+003	5.6940210E-001	-2.7038385E+002
3	0	1.163912984450944E+003	5.7339603E-001	-2.7039093E+002
3	0	1.164412984438313E+003	5.7718801E-001	-2.7037677E+002
3	0	1.164912984425682E+003	5.8019310E-001	-2.7039801E+002
3	0	1.165412984413051E+003	5.8290565E-001	-2.7039801E+002
3	0	1.165912984400420E+003	5.8647281E-001	-2.7036267E+002
3	0	1.166412984387789E+003	5.9050620E-001	-2.7039093E+002
3	0	1.166912984375158E+003	5.9398979E-001	-2.7037677E+002
3	0	1.167412984362527E+003	5.9673935E-001	-2.7037677E+002
3	0	1.167912984349896E+003	5.9909183E-001	-2.7039093E+002
3	0	1.168412984337265E+003	6.0094917E-001	-2.7039093E+002
3	0	1.168912984324634E+003	6.0198331E-001	-2.7041214E+002
3	0	1.169412984312003E+003	6.0227460E-001	-2.7037326E+002
3	0	1.169912984299372E+003	6.0337305E-001	-2.7036618E+002
3	0	1.170412984286741E+003	6.0510510E-001	-2.7038385E+002
3	0	1.170912984274109E+003	6.0631341E-001	-2.7038742E+002
3	0	1.171412984261478E+003	6.0678053E-001	-2.7037326E+002
3	0	1.171912984248847E+003	6.0675228E-001	-2.7039801E+002
3	0	1.172412984236216E+003	6.0633796E-001	-2.7036618E+002
3	0	1.172912984223585E+003	6.0508466E-001	-2.7035913E+002
3	0	1.173412984210954E+003	6.0337394E-001	-2.7036972E+002
3	0	1.173912984198323E+003	6.0275215E-001	-2.7036972E+002
3	0	1.174412984185692E+003	6.0287720E-001	-2.7038742E+002
3	0	1.174912984173061E+003	6.0257632E-001	-2.7036972E+002
3	0	1.175412984160430E+003	6.0162830E-001	-2.7037677E+002
3	0	1.175912984147799E+003	6.0035068E-001	-2.7039447E+002
3	0	1.176412984135168E+003	5.9877437E-001	-2.7038031E+002
3	0	1.176912984122537E+003	5.9635735E-001	-2.7037326E+002
3	0	1.177412984109906E+003	5.9351867E-001	-2.7039447E+002
3	0	1.177912984097275E+003	5.9178108E-001	-2.7036267E+002
3	0	1.178412984084644E+003	5.9092718E-001	-2.7038742E+002
3	0	1.178912984072012E+003	5.8977711E-001	-2.7036618E+002
3	0	1.179412984059381E+003	5.8812827E-001	-2.7034851E+002
3	0	1.179912984046750E+003	5.8624744E-001	-2.7038031E+002
3	0	1.180412984034119E+003	5.8439863E-001	-2.7037326E+002
3	0	1.180912984021488E+003	5.8218092E-001	-2.7037677E+002
3	0	1.181412984008857E+003	5.8017969E-001	-2.7037677E+002
3	0	1.181912983996226E+003	5.7986057E-001	-2.7036618E+002
3	0	1.182412983983595E+003	5.8119714E-001	-2.7038742E+002
3	0	1.182912983970964E+003	5.8286178E-001	-2.7037677E+002
3	0	1.183412983958333E+003	5.8433437E-001	-2.7034851E+002
3	0	1.183912983945702E+003	5.8594793E-001	-2.7038742E+002
3	0	1.184412983933071E+003	5.8739108E-001	-2.7037326E+002
3	0	1.184912983920440E+003	5.8804637E-001	-2.7040860E+002
3	0	1.185412983907809E+003	5.8837450E-001	-2.7039447E+002
3	0	1.185912983895178E+003	5.8980906E-001	-2.7038031E+002
3	0	1.186412983882547E+003	5.9212369E-001	-2.7036618E+002
3	0	1.186912983869915E+003	5.9390986E-001	-2.7035559E+002
3	0	1.187412983857284E+003	5.9489495E-001	-2.7039447E+002
3	0	1.187912983844653E+003	5.9555340E-001	-2.7040860E+002
3	0	1.188412983832022E+003	5.9569353E-001	-2.7036618E+002
3	0	1.188912983819391E+003	5.9485841E-001	-2.7036267E+002
3	0	1.189412983806760E+003	5.9339863E-001	-2.7036618E+002
3	0	1.189912983794129E+003	5.9282625E-001	-2.7038385E+002
3	0	1.190412983781498E+003	5.9304696E-001	-2.7039093E+002
3	0	1.190912983768867E+003	5.9276611E-001	-2.7038031E+002
3	0	1.191412983756236E+003	5.9176975E-001	-2.7038385E+002
3	0	1.191912983743605E+003	5.9042996E-001	-2.7036972E+002
3	0	1.192412983730974E+003	5.8863205E-001	-2.7036972E+002
3	0	1.192912983718343E+003	5.8602768E-001	-2.7037326E+002
3	0	1.193412983705712E+003	5.8293557E-001	-2.7039447E+002
3	0	1.193912983693081E+003	5.8075440E-001	-2.7036618E+002
3	0	1.194412983680450E+003	5.7951063E-001	-2.7037326E+002
3	0	1.194912983667818E+003	5.7789040E-001	-2.7035913E+002
3	0	1.195412983655187E+003	5.7567418E-001	-2.7039801E+002
3	0	1.195912983642556E+003	5.7319665E-001	-2.7039801E+002
3	0	1.196412983629925E+003	5.7038659E-001	-2.7038031E+002
3	0	1.196912983617294E+003	5.6674618E-001	-2.7038031E+002
3	0	1.197412983604663E+003	5.6269234E-001	-2.7036267E+002
3	0	1.197912983592032E+003	5.5978096E-001	-2.7039093E+002
3	0	1.198412983579401E+003	5.5776101E-001	-2.7038385E+002
3	0	1.198912983566770E+003	5.5537039E-001	-2.7037677E+002
3	0	1.199412983554139E+003	5.5239481E-001	-2.7037677E+002
3	0	1.199912983541508E+003	5.4933625E-001	-2.7039447E+002
3	0	1.200412983528877E+003	5.4620397E-001	-2.7038742E+002
3	0	1.200912983516246E+003	5.4283279E-001	-2.7040155E+002
3	0	1.201412983503615E+003	5.3934079E-001	-2.7036972E+002
3	0	1.201912983490984E+003	5.3747088E-001	-2.7037326E+002
3	0	1.202412983478353E+003	5.3713441E-001	-2.7036618E+002
3	0	1.202912983465721E+003	5.3704822E-001	-2.7039447E+002
3	0	1.203412983453090E+003	5.3694642E-001	-2.7036972E+002
3	0	1.203912983440459E+003	5.3727555E-001	-2.7038031E+002
3	0	1.204412983427828E+003	5.3783214E-001	-2.7039093E+002
3	0	1.204912983415197E+003	5.3795928E-001	-2.7038385E+002
3	0	1.205412983402566E+003	5.3777015E-001	-2.7038742E+002
3	0	1.205912983389935E+003	5.3865665E-001	-2.7038385E+002
3	0	1.206412983377304E+003	5.4029530E-001	-2.7037677E+002
3	0	1.206912983364673E+003	5.4158795E-001	-2.7036972E+002
3	0	1.207412983352042E+003	5.4231995E-001	-2.7039801E+002
3	0	1.207912983339411E+003	5.4276991E-001	-2.7038031E+002
3	0	1.208412983326780E+003	5.4273695E-001	-2.7038742E+002
3	0	1.208912983314149E+003	5.4192376E-001	-2.7036972E+002
3	0	1.209412983301518E+003	5.4054642E-001	-2.7036972E+002
3	0	1.209912983288887E+003	5.3995079E-001	-2.7036267E+002
3	0	1.210412983276256E+003	5.3996688E-001	-2.7038742E+002
3	0	1.210912983263624E+003	5.3954703E-001	-2.7036618E+002
3	0	1.211412983250993E+003	5.3856224E-001	-2.7037326E+002
3	0	1.211912983238362E+003	5.3730059E-001	-2.7038385E+002
3	0	1.212412983225731E+003	5.3555804E-001	-2.7038385E+002
3	0	1.212912983213100E+003	5.3315753E-001	-2.7037326E+002
3	0	1.213412983200469E+003	5.3006148E-001	-2.7036972E+002
3	0	1.213912983187838E+003	5.2780437E-001	-2.7036972E+002
3	0	1.214412983175207E+003	5.2619863E-001	-2.7038031E+002
3	0	1.214912983162576E+003	5.2420038E-001	-2.7037326E+002
3	0	1.215412983149945E+003	5.2168888E-001	-2.7036972E+002
3	0	1.215912983137314E+003	5.1907742E-001	-2.7039093E+002
3	0	1.216412983124683E+003	5.1610172E-001	-2.7038385E+002
3	0	1.216912983112052E+003	5.1267320E-001	-2.7037326E+002
3	0	1.217412983099421E+003	5.0883269E-001	-2.7037677E+002
3	0	1.217912983086790E+003	5.0579607E-001	-2.7038031E+002
3	0	1.218412983074159E+003	5.0354171E-001	-2.7038385E+002
3	0	1.218912983061527E+003	5.0098389E-001	-2.7037326E+002
3	0	1.219412983048896E+003	4.9814239E-001	-2.7039093E+002
3	0	1.219912983036265E+003	4.9528238E-001	-2.7037677E+002
3	0	1.220412983023634E+003	4.9240562E-001	-2.7038385E+002
3	0	1.220912983011003E+003	4.8919344E-001	-2.7037326E+002
3	0	1.221412982998372E+003	4.8603258E-001	-2.7036618E+002
3	0	1.221912982985741E+003	4.8410943E-001	-2.7039801E+002
3	0	1.222412982973110E+003	4.8324198E-001	-2.7036972E+002
3	0	1.222912982960479E+003	4.8256272E-001	-2.7038385E+002
3	0	1.223412982947848E+003	4.8193458E-001	-2.7038031E+002
3	0	1.223912982935217E+003	4.8149410E-001	-2.7036618E+002
3	0	1.224412982922586E+003	4.8112059E-001	-2.7037677E+002
3	0	1.224912982909955E+003	4.8026824E-001	-2.7038742E+002
3	0	1.225412982897324E+003	4.7904676E-001	-2.7036618E+002
3	0	1.225413382897314E+003	4.7862753E-001	-2.7039447E+002