EC-Lab ASCII FILE
Nb header lines : 48                          

Open Circuit Voltage

Run on channel : 1 (SN 81504)
User : 
CE vs. WE compliance from -10 V to 10 V
Electrode connection : standard
Potential control : Ewe
Ewe ctrl range : min = -2.50 V, max = 2.50 V
Safety Limits :
	Do not start on E overload
Acquisition started on : 05/07/2026 18:41:54.331
Loaded Setting File :  C:\PEM-WE_measurements\2026\372_IV_IV IrOx, 5 min Pt, 30 min C, etched cathode\new station\Loopeis new\1,46 V different time gaps open cell\Loopeis 1,46V_90s_2_PEIS from 65kHz to 10kHz.mps
Saved on :
	File : L_17_Loopeis 1,46V_90s_2_PEIS from 65kHz to 10kHz_16_OCV_C01.mpr
	Directory : C:\PEM-WE_measurements\2026\372_IV_IV IrOx, 5 min Pt, 30 min C, etched cathode\new station\Loopeis new\1,46 V different time gaps open cell\
	Host : 192.168.0.2
Device : SP-150e (SN .005491)
Address : 192.168.0.91
EC-LAB for windows v11.71 (software)
Internet server v28.00 (firmware)
Command interpretor v14.01 (firmware)
Electrode material : 
Initial state : 
Electrolyte : 
Comments : 
Current amplifier : SP-150eB-20A
Electrode surface area : 0.001 cm²
Characteristic mass : 0.001 g
Equivalent Weight : 0.000 g/eq.
Density : 0.000 g/cm3
Volume (V) : 0.001 cm³
Record Analogic IN 1
Text export
   Mode : Standard
   Time format : Elapsed
Cycle Definition : Charge/Discharge alternance
tR (h:m:s)          0:01:30.0000        
dER/dt (mV/h)       1.0                 
record              <Ewe>               
dER (mV)            10.00               
dtR (s)             0.5000              
E range min (V)     -2.500              
E range max (V)     2.500               

mode	error	time/s	<Ewe/V>	Analog IN 1/V	
3	0	9.923873881662439E+002	1.0500635E+000	-1.2973390E-004
3	0	9.928873881536128E+002	1.2133782E+000	-1.1064836E-004
3	0	9.933873881409818E+002	1.1622634E+000	-1.1064836E-004
3	0	9.938873881283507E+002	1.0551983E+000	-1.5220648E-005
3	0	9.943873881157197E+002	6.9865286E-001	-1.4881945E-004
3	0	9.948873881030886E+002	3.6710280E-001	2.2950437E-005
3	0	9.953873880904575E+002	3.0356476E-001	4.2035979E-005
3	0	9.958873880778265E+002	2.9468453E-001	-7.2477276E-005
3	0	9.963873880651954E+002	2.8797051E-001	-1.4881945E-004
3	0	9.968873880525643E+002	2.8232822E-001	-3.4306191E-005
3	0	9.973873880399333E+002	2.7789253E-001	-9.1562819E-005
3	0	9.978873880273022E+002	2.7444741E-001	-1.4881945E-004
3	0	9.983873880146712E+002	2.7173626E-001	-5.3391734E-005
3	0	9.988873880020401E+002	2.6954719E-001	-1.1064836E-004
3	0	9.993873879894090E+002	2.6774737E-001	3.8648941E-006
3	0	9.998873879767780E+002	2.6622164E-001	3.8648941E-006
3	0	1.000387387964147E+003	2.6490113E-001	-5.3391734E-005
3	0	1.000887387951516E+003	2.6372701E-001	-3.4306191E-005
3	0	1.001387387938885E+003	2.6268804E-001	-1.8699054E-004
3	0	1.001887387926254E+003	2.6177230E-001	-5.3391734E-005
3	0	1.002387387913623E+003	2.6093069E-001	-9.1562819E-005
3	0	1.002887387900992E+003	2.6015002E-001	4.2035979E-005
3	0	1.003387387888361E+003	2.5942624E-001	-5.3391734E-005
3	0	1.003887387875729E+003	2.5873274E-001	6.1121522E-005
3	0	1.004387387863098E+003	2.5805330E-001	1.1837815E-004
3	0	1.004887387850467E+003	2.5737897E-001	6.1121522E-005
3	0	1.005387387837836E+003	2.5673285E-001	-1.5220648E-005
3	0	1.005887387825205E+003	2.5613970E-001	-3.4306191E-005
3	0	1.006387387812574E+003	2.5556484E-001	2.2950437E-005
3	0	1.006887387799943E+003	2.5499618E-001	3.8648941E-006
3	0	1.007387387787312E+003	2.5445062E-001	8.0207064E-005
3	0	1.007887387774681E+003	2.5389871E-001	-9.1562819E-005
3	0	1.008387387762050E+003	2.5334358E-001	-7.2477276E-005
3	0	1.008887387749419E+003	2.5277296E-001	3.8648941E-006
3	0	1.009387387736788E+003	2.5221962E-001	-1.1064836E-004
3	0	1.009887387724157E+003	2.5170428E-001	-3.4306191E-005
3	0	1.010387387711526E+003	2.5119674E-001	6.1121522E-005
3	0	1.010887387698895E+003	2.5069633E-001	-1.4881945E-004
3	0	1.011387387686264E+003	2.5019601E-001	-7.2477276E-005
3	0	1.011887387673632E+003	2.4969950E-001	-7.2477276E-005
3	0	1.012387387661001E+003	2.4919437E-001	6.1121522E-005
3	0	1.012887387648370E+003	2.4866739E-001	3.8648941E-006
3	0	1.013387387635739E+003	2.4815337E-001	-1.1064836E-004
3	0	1.013887387623108E+003	2.4767372E-001	-1.5220648E-005
3	0	1.014387387610477E+003	2.4719320E-001	-1.5220648E-005
3	0	1.014887387597846E+003	2.4671735E-001	3.8648941E-006
3	0	1.015387387585215E+003	2.4625210E-001	3.8648941E-006
3	0	1.015887387572584E+003	2.4578939E-001	-1.1064836E-004
3	0	1.016387387559953E+003	2.4530734E-001	-1.1064836E-004
3	0	1.016887387547322E+003	2.4480748E-001	-1.2973390E-004
3	0	1.017387387534691E+003	2.4432518E-001	-9.1562819E-005
3	0	1.017887387522060E+003	2.4387440E-001	-2.4424717E-004
3	0	1.018387387509429E+003	2.4342562E-001	3.8648941E-006
3	0	1.018887387496798E+003	2.4298759E-001	-1.5220648E-005
3	0	1.019387387484167E+003	2.4253897E-001	-5.3391734E-005
3	0	1.019887387471535E+003	2.4209049E-001	-5.3391734E-005
3	0	1.020387387458904E+003	2.4164003E-001	2.3289140E-004
3	0	1.020887387446273E+003	2.4116859E-001	-1.2973390E-004
3	0	1.021387387433642E+003	2.4071606E-001	-1.2973390E-004
3	0	1.021887387421011E+003	2.4030189E-001	-9.1562819E-005
3	0	1.022387387408380E+003	2.3989515E-001	-7.2477276E-005
3	0	1.022887387395749E+003	2.3948090E-001	8.0207064E-005
3	0	1.023387387383118E+003	2.3906773E-001	3.8648941E-006
3	0	1.023887387370487E+003	2.3866634E-001	-5.3391734E-005
3	0	1.024387387357856E+003	2.3823996E-001	-5.3391734E-005
3	0	1.024887387345225E+003	2.3780175E-001	-9.1562819E-005
3	0	1.025387387332594E+003	2.3737891E-001	-9.1562819E-005
3	0	1.025887387319963E+003	2.3698880E-001	-3.4306191E-005
3	0	1.026387387307332E+003	2.3660192E-001	-5.3391734E-005
3	0	1.026887387294701E+003	2.3621334E-001	-7.2477276E-005
3	0	1.027387387282070E+003	2.3583217E-001	2.2950437E-005
3	0	1.027887387269438E+003	2.3545846E-001	-1.4881945E-004
3	0	1.028387387256807E+003	2.3506695E-001	-2.0607607E-004
3	0	1.028887387244176E+003	2.3465617E-001	-5.3391734E-005
3	0	1.029387387231545E+003	2.3426431E-001	6.1121522E-005
3	0	1.029887387218914E+003	2.3390675E-001	-5.3391734E-005
3	0	1.030387387206283E+003	2.3354383E-001	-1.5220648E-005
3	0	1.030887387193652E+003	2.3318793E-001	2.2950437E-005
3	0	1.031387387181021E+003	2.3284023E-001	3.8648941E-006
3	0	1.031887387168390E+003	2.3247680E-001	4.2035979E-005
3	0	1.032387387155759E+003	2.3211053E-001	-1.5220648E-005
3	0	1.032887387143128E+003	2.3173319E-001	-7.2477276E-005
3	0	1.033387387130497E+003	2.3135982E-001	1.5654923E-004
3	0	1.033887387117866E+003	2.3102868E-001	-5.3391734E-005
3	0	1.034387387105235E+003	2.3069915E-001	6.1121522E-005
3	0	1.034887387092604E+003	2.3037879E-001	3.8648941E-006
3	0	1.035387387079973E+003	2.3005491E-001	3.8648941E-006
3	0	1.035887387067341E+003	2.2972433E-001	6.1121522E-005
3	0	1.036387387054710E+003	2.2938062E-001	2.2950437E-005
3	0	1.036887387042079E+003	2.2901919E-001	-9.1562819E-005
3	0	1.037387387029448E+003	2.2867706E-001	-3.4306191E-005
3	0	1.037887387016817E+003	2.2836715E-001	-5.3391734E-005
3	0	1.038387387004186E+003	2.2805887E-001	4.2035979E-005
3	0	1.038887386991555E+003	2.2774935E-001	3.8648941E-006
3	0	1.039387386978924E+003	2.2744752E-001	-9.1562819E-005
3	0	1.039887386966293E+003	2.2713424E-001	-7.2477276E-005
3	0	1.040387386953662E+003	2.2682513E-001	-9.1562819E-005
3	0	1.040887386941031E+003	2.2649042E-001	6.1121522E-005
3	0	1.041387386928400E+003	2.2617443E-001	6.1121522E-005
3	0	1.041887386915769E+003	2.2588941E-001	-1.8699054E-004
3	0	1.042387386903138E+003	2.2561088E-001	2.2950437E-005
3	0	1.042887386890507E+003	2.2533421E-001	-3.4306191E-005
3	0	1.043387386877876E+003	2.2505029E-001	-1.1064836E-004
3	0	1.043887386865244E+003	2.2478205E-001	4.2035979E-005
3	0	1.044387386852613E+003	2.2448847E-001	-1.1064836E-004
3	0	1.044887386839982E+003	2.2418346E-001	-1.4881945E-004
3	0	1.045387386827351E+003	2.2389293E-001	2.2950437E-005
3	0	1.045887386814720E+003	2.2364630E-001	-1.1064836E-004
3	0	1.046387386802089E+003	2.2340009E-001	2.2950437E-005
3	0	1.046887386789458E+003	2.2314963E-001	-1.5220648E-005
3	0	1.047387386776827E+003	2.2289307E-001	-3.4306191E-005
3	0	1.047887386764196E+003	2.2262935E-001	4.2035979E-005
3	0	1.048387386751565E+003	2.2236852E-001	-1.1064836E-004
3	0	1.048887386738934E+003	2.2209093E-001	-1.5220648E-005
3	0	1.049387386726303E+003	2.2183184E-001	3.8648941E-006
3	0	1.049887386713672E+003	2.2160181E-001	-5.3391734E-005
3	0	1.050387386701041E+003	2.2136290E-001	-7.2477276E-005
3	0	1.050887386688410E+003	2.2113317E-001	-5.3391734E-005
3	0	1.051387386675779E+003	2.2090919E-001	2.2950437E-005
3	0	1.051887386663147E+003	2.2067975E-001	-7.2477276E-005
3	0	1.052387386650516E+003	2.2043815E-001	-1.4881945E-004
3	0	1.052887386637885E+003	2.2017881E-001	-5.3391734E-005
3	0	1.053387386625254E+003	2.1993773E-001	3.8648941E-006
3	0	1.053887386612623E+003	2.1972699E-001	2.2950437E-005
3	0	1.054387386599992E+003	2.1951263E-001	-3.4306191E-005
3	0	1.054887386587361E+003	2.1930362E-001	2.2950437E-005
3	0	1.055387386574730E+003	2.1909477E-001	-9.1562819E-005
3	0	1.055887386562099E+003	2.1888143E-001	2.2950437E-005
3	0	1.056387386549468E+003	2.1865813E-001	-7.2477276E-005
3	0	1.056887386536837E+003	2.1841596E-001	-1.1064836E-004
3	0	1.057387386524206E+003	2.1818949E-001	-7.2477276E-005
3	0	1.057887386511575E+003	2.1799351E-001	4.2035979E-005
3	0	1.058387386498944E+003	2.1779911E-001	-1.5220648E-005
3	0	1.058887386486313E+003	2.1760143E-001	-9.1562819E-005
3	0	1.059387386473682E+003	2.1740785E-001	3.8648941E-006
3	0	1.059887386461050E+003	2.1721666E-001	-5.3391734E-005
3	0	1.060387386448419E+003	2.1700539E-001	-9.1562819E-005
3	0	1.060887386435788E+003	2.1677652E-001	8.0207064E-005
3	0	1.061387386423157E+003	2.1656691E-001	-7.2477276E-005
3	0	1.061887386410526E+003	2.1638612E-001	-1.2973390E-004
3	0	1.062387386397895E+003	2.1620604E-001	-9.1562819E-005
3	0	1.062887386385264E+003	2.1602857E-001	3.8648941E-006
3	0	1.063387386372633E+003	2.1585999E-001	-1.5220648E-005
3	0	1.063887386360002E+003	2.1569166E-001	2.2950437E-005
3	0	1.064387386347371E+003	2.1550184E-001	2.2950437E-005
3	0	1.064887386334740E+003	2.1529114E-001	-1.5220648E-005
3	0	1.065387386322109E+003	2.1510190E-001	3.8648941E-006
3	0	1.065887386309478E+003	2.1494515E-001	-1.4881945E-004
3	0	1.066387386296847E+003	2.1478541E-001	-1.2973390E-004
3	0	1.066887386284216E+003	2.1462663E-001	-7.2477276E-005
3	0	1.067387386271585E+003	2.1446708E-001	-7.2477276E-005
3	0	1.067887386258953E+003	2.1430814E-001	-2.0607607E-004
3	0	1.068387386246322E+003	2.1413054E-001	-1.2973390E-004
3	0	1.068887386233691E+003	2.1393615E-001	-1.6790499E-004
3	0	1.069387386221060E+003	2.1376012E-001	4.2035979E-005
3	0	1.069887386208429E+003	2.1361235E-001	4.2035979E-005
3	0	1.070387386195798E+003	2.1346638E-001	3.8648941E-006
3	0	1.070887386183167E+003	2.1332730E-001	-5.3391734E-005
3	0	1.071387386170536E+003	2.1318565E-001	9.9292607E-005
3	0	1.071887386157905E+003	2.1303172E-001	-1.6790499E-004
3	0	1.072387386145274E+003	2.1286649E-001	8.0207064E-005
3	0	1.072887386132643E+003	2.1268304E-001	-3.4306191E-005
3	0	1.073387386120012E+003	2.1251966E-001	-1.4881945E-004
3	0	1.073887386107381E+003	2.1238329E-001	-9.1562819E-005
3	0	1.074387386094750E+003	2.1225011E-001	-1.5220648E-005
3	0	1.074887386082119E+003	2.1212299E-001	-5.3391734E-005
3	0	1.075387386069488E+003	2.1198735E-001	-9.1562819E-005
3	0	1.075887386056856E+003	2.1185580E-001	-3.4306191E-005
3	0	1.076387386044225E+003	2.1169981E-001	-2.4424717E-004
3	0	1.076887386031594E+003	2.1152952E-001	2.2950437E-005
3	0	1.077387386018963E+003	2.1137659E-001	-7.2477276E-005
3	0	1.077887386006332E+003	2.1125358E-001	-5.3391734E-005
3	0	1.078387385993701E+003	2.1112254E-001	-3.4306191E-005
3	0	1.078887385981070E+003	2.1099702E-001	-5.3391734E-005
3	0	1.079387385968439E+003	2.1087579E-001	-3.4306191E-005
3	0	1.079887385955808E+003	2.1072669E-001	3.8648941E-006
3	0	1.080387385943177E+003	2.1057032E-001	-1.5220648E-005
3	0	1.080887385930546E+003	2.1042584E-001	2.2950437E-005
3	0	1.081387385917915E+003	2.1028878E-001	-9.1562819E-005
3	0	1.081887385905284E+003	2.1019083E-001	-2.2516162E-004
3	0	1.081921385904425E+003	2.1014178E-001	-5.3391734E-005