EC-Lab ASCII FILE
Nb header lines : 55                          

Open Circuit Voltage

Run on channel : 1 (SN 81504)
User : 
CE vs. WE compliance from -10 V to 10 V
Electrode connection : standard
Potential control : Ewe
Ewe ctrl range : min = -2.50 V, max = 2.50 V
Safety Limits :
	Do not start on E overload
Acquisition started on : 05/08/2026 00:43:10.981
Loaded Setting File :  C:\PEM-WE_measurements\2026\372_IV_IV IrOx, 5 min Pt, 30 min C, etched cathode\new station\Loopeis new\1,46 V different time gaps open cell\Loopeis 1,46V_180s_4_PEIS from 650Hz to 100Hz.mps
Saved on :
	File : L_29_Loopeis 1,46V_180s_4_PEIS from 650Hz to 100Hz_16_OCV_C01.mpr
	Directory : C:\PEM-WE_measurements\2026\372_IV_IV IrOx, 5 min Pt, 30 min C, etched cathode\new station\Loopeis new\1,46 V different time gaps open cell\
	Host : 192.168.0.2
Device : SP-150e (SN .005491)
Address : 192.168.0.91
EC-LAB for windows v11.71 (software)
Internet server v28.00 (firmware)
Command interpretor v14.01 (firmware)
Electrode material : 
Initial state : 
Electrolyte : 
Comments : 
Current amplifier : SP-150eB-20A
Electrode surface area : 0.001 cm²
Characteristic mass : 0.001 g
Equivalent Weight : 0.000 g/eq.
Density : 0.000 g/cm3
Volume (V) : 0.001 cm³
Record Analogic IN 1
Text export
   Mode : Standard
   Time format : Elapsed
Cycle Definition : Charge/Discharge alternance
External device configuration :
   device type : Temperature Probe
   device name : Other
   Analog IN 1 : 
      unit : T/Â°C
      max : 100.000 at 2.000 V
      min : 0.000 at 1.460 V
tR (h:m:s)          0:03:0.0000         
dER/dt (mV/h)       1.0                 
record              <Ewe>               
dER (mV)            10.00               
dtR (s)             0.5000              
E range min (V)     -2.500              
E range max (V)     2.500               

mode	error	time/s	<Ewe/V>	Analog IN 1/V	
3	0	1.626475772444610E+003	9.4676733E-001	-2.7038385E+002
3	0	1.626975772431979E+003	1.1344467E+000	-2.7037326E+002
3	0	1.627475772419348E+003	7.7473742E-001	-2.7039801E+002
3	0	1.627975772406717E+003	3.9608586E-001	-2.7040506E+002
3	0	1.628475772394086E+003	3.2246500E-001	-2.7039093E+002
3	0	1.628975772381455E+003	3.1250733E-001	-2.7035913E+002
3	0	1.629475772368824E+003	3.0592954E-001	-2.7038385E+002
3	0	1.629975772356192E+003	3.0045044E-001	-2.7035913E+002
3	0	1.630475772343561E+003	2.9613739E-001	-2.7035559E+002
3	0	1.630975772330930E+003	2.9277474E-001	-2.7036267E+002
3	0	1.631475772318299E+003	2.9010877E-001	-2.7035913E+002
3	0	1.631975772305668E+003	2.8795731E-001	-2.7039447E+002
3	0	1.632475772293037E+003	2.8616080E-001	-2.7036972E+002
3	0	1.632975772280406E+003	2.8462955E-001	-2.7038385E+002
3	0	1.633475772267775E+003	2.8330147E-001	-2.7038031E+002
3	0	1.633975772255144E+003	2.8212234E-001	-2.7039093E+002
3	0	1.634475772242513E+003	2.8104886E-001	-2.7039093E+002
3	0	1.634975772229882E+003	2.8007752E-001	-2.7039093E+002
3	0	1.635475772217251E+003	2.7921930E-001	-2.7039801E+002
3	0	1.635975772204620E+003	2.7842394E-001	-2.7038031E+002
3	0	1.636475772191989E+003	2.7767211E-001	-2.7036972E+002
3	0	1.636975772179358E+003	2.7695739E-001	-2.7038031E+002
3	0	1.637475772166727E+003	2.7626887E-001	-2.7036618E+002
3	0	1.637975772154095E+003	2.7560312E-001	-2.7036972E+002
3	0	1.638475772141464E+003	2.7493316E-001	-2.7034851E+002
3	0	1.638975772128833E+003	2.7430227E-001	-2.7039801E+002
3	0	1.639475772116202E+003	2.7371588E-001	-2.7037326E+002
3	0	1.639975772103571E+003	2.7314812E-001	-2.7037677E+002
3	0	1.640475772090940E+003	2.7258906E-001	-2.7036267E+002
3	0	1.640975772078309E+003	2.7204645E-001	-2.7036972E+002
3	0	1.641475772065678E+003	2.7149823E-001	-2.7035559E+002
3	0	1.641975772053047E+003	2.7094534E-001	-2.7036972E+002
3	0	1.642475772040416E+003	2.7037588E-001	-2.7037677E+002
3	0	1.642975772027785E+003	2.6982459E-001	-2.7036618E+002
3	0	1.643475772015154E+003	2.6932266E-001	-2.7038031E+002
3	0	1.643975772002523E+003	2.6882178E-001	-2.7035913E+002
3	0	1.644475771989892E+003	2.6832709E-001	-2.7036267E+002
3	0	1.644975771977261E+003	2.6783845E-001	-2.7036972E+002
3	0	1.645475771964630E+003	2.6735696E-001	-2.7038742E+002
3	0	1.645975771951998E+003	2.6686078E-001	-2.7036618E+002
3	0	1.646475771939367E+003	2.6634210E-001	-2.7038031E+002
3	0	1.646975771926736E+003	2.6583683E-001	-2.7040155E+002
3	0	1.647475771914105E+003	2.6537278E-001	-2.7041919E+002
3	0	1.647975771901474E+003	2.6492158E-001	-2.7035205E+002
3	0	1.648475771888843E+003	2.6447067E-001	-2.7037326E+002
3	0	1.648975771876212E+003	2.6401904E-001	-2.7038742E+002
3	0	1.649475771863581E+003	2.6357082E-001	-2.7040506E+002
3	0	1.649975771850950E+003	2.6310655E-001	-2.7038742E+002
3	0	1.650475771838319E+003	2.6262707E-001	-2.7037677E+002
3	0	1.650975771825688E+003	2.6216066E-001	-2.7037677E+002
3	0	1.651475771813057E+003	2.6173800E-001	-2.7038742E+002
3	0	1.651975771800426E+003	2.6132363E-001	-2.7038031E+002
3	0	1.652475771787795E+003	2.6090518E-001	-2.7038742E+002
3	0	1.652975771775164E+003	2.6049125E-001	-2.7038031E+002
3	0	1.653475771762533E+003	2.6006871E-001	-2.7038742E+002
3	0	1.653975771749901E+003	2.5963593E-001	-2.7039801E+002
3	0	1.654475771737270E+003	2.5919250E-001	-2.7035559E+002
3	0	1.654975771724639E+003	2.5876644E-001	-2.7036972E+002
3	0	1.655475771712008E+003	2.5837040E-001	-2.7037326E+002
3	0	1.655975771699377E+003	2.5798091E-001	-2.7036267E+002
3	0	1.656475771686746E+003	2.5759089E-001	-2.7037677E+002
3	0	1.656975771674115E+003	2.5719950E-001	-2.7037677E+002
3	0	1.657475771661484E+003	2.5681970E-001	-2.7040155E+002
3	0	1.657975771648853E+003	2.5642174E-001	-2.7035559E+002
3	0	1.658475771636222E+003	2.5600818E-001	-2.7037677E+002
3	0	1.658975771623591E+003	2.5561059E-001	-2.7037326E+002
3	0	1.659475771610960E+003	2.5525019E-001	-2.7039447E+002
3	0	1.659975771598329E+003	2.5489408E-001	-2.7037326E+002
3	0	1.660475771585698E+003	2.5454295E-001	-2.7039447E+002
3	0	1.660975771573067E+003	2.5418913E-001	-2.7034143E+002
3	0	1.661475771560436E+003	2.5382704E-001	-2.7037677E+002
3	0	1.661975771547804E+003	2.5346312E-001	-2.7037677E+002
3	0	1.662475771535173E+003	2.5307521E-001	-2.7040860E+002
3	0	1.662975771522542E+003	2.5269899E-001	-2.7039447E+002
3	0	1.663475771509911E+003	2.5236794E-001	-2.7036972E+002
3	0	1.663975771497280E+003	2.5203979E-001	-2.7038385E+002
3	0	1.664475771484649E+003	2.5170919E-001	-2.7035559E+002
3	0	1.664975771472018E+003	2.5137383E-001	-2.7036972E+002
3	0	1.665475771459387E+003	2.5104380E-001	-2.7038742E+002
3	0	1.665975771446756E+003	2.5070119E-001	-2.7037326E+002
3	0	1.666475771434125E+003	2.5033861E-001	-2.7038031E+002
3	0	1.666975771421494E+003	2.4999705E-001	-2.7039093E+002
3	0	1.667475771408863E+003	2.4969830E-001	-2.7039093E+002
3	0	1.667975771396232E+003	2.4940321E-001	-2.7039093E+002
3	0	1.668475771383601E+003	2.4910565E-001	-2.7036972E+002
3	0	1.668975771370970E+003	2.4880755E-001	-2.7037677E+002
3	0	1.669475771358339E+003	2.4850419E-001	-2.7036618E+002
3	0	1.669975771345707E+003	2.4819261E-001	-2.7038742E+002
3	0	1.670475771333076E+003	2.4786559E-001	-2.7039093E+002
3	0	1.670975771320445E+003	2.4754523E-001	-2.7037326E+002
3	0	1.671475771307814E+003	2.4726954E-001	-2.7038742E+002
3	0	1.671975771295183E+003	2.4699149E-001	-2.7036618E+002
3	0	1.672475771282552E+003	2.4671552E-001	-2.7038385E+002
3	0	1.672975771269921E+003	2.4643888E-001	-2.7039093E+002
3	0	1.673475771257290E+003	2.4615286E-001	-2.7038385E+002
3	0	1.673975771244659E+003	2.4586496E-001	-2.7037326E+002
3	0	1.674475771232028E+003	2.4556316E-001	-2.7038742E+002
3	0	1.674975771219397E+003	2.4527420E-001	-2.7039093E+002
3	0	1.675475771206766E+003	2.4502245E-001	-2.7034497E+002
3	0	1.675975771194135E+003	2.4477072E-001	-2.7036267E+002
3	0	1.676475771181504E+003	2.4451949E-001	-2.7036972E+002
3	0	1.676975771168873E+003	2.4426325E-001	-2.7039801E+002
3	0	1.677475771156242E+003	2.4400753E-001	-2.7038031E+002
3	0	1.677975771143610E+003	2.4373634E-001	-2.7036618E+002
3	0	1.678475771130979E+003	2.4344915E-001	-2.7036267E+002
3	0	1.678975771118348E+003	2.4318516E-001	-2.7037326E+002
3	0	1.679475771105717E+003	2.4295479E-001	-2.7039447E+002
3	0	1.679975771093086E+003	2.4273340E-001	-2.7036267E+002
3	0	1.680475771080455E+003	2.4249993E-001	-2.7037677E+002
3	0	1.680975771067824E+003	2.4226569E-001	-2.7038742E+002
3	0	1.681475771055193E+003	2.4203520E-001	-2.7038742E+002
3	0	1.681975771042562E+003	2.4179289E-001	-2.7036267E+002
3	0	1.682475771029931E+003	2.4152382E-001	-2.7036267E+002
3	0	1.682975771017300E+003	2.4127145E-001	-2.7041214E+002
3	0	1.683475771004669E+003	2.4105568E-001	-2.7038742E+002
3	0	1.683975770992038E+003	2.4084665E-001	-2.7038742E+002
3	0	1.684475770979407E+003	2.4063839E-001	-2.7038031E+002
3	0	1.684975770966776E+003	2.4042125E-001	-2.7039801E+002
3	0	1.685475770954145E+003	2.4020594E-001	-2.7038742E+002
3	0	1.685975770941513E+003	2.3997588E-001	-2.7035913E+002
3	0	1.686475770928882E+003	2.3973018E-001	-2.7036972E+002
3	0	1.686975770916251E+003	2.3949586E-001	-2.7038742E+002
3	0	1.687475770903620E+003	2.3930353E-001	-2.7037326E+002
3	0	1.687975770890989E+003	2.3912074E-001	-2.7035205E+002
3	0	1.688475770878358E+003	2.3893309E-001	-2.7036972E+002
3	0	1.688975770865727E+003	2.3873459E-001	-2.7037326E+002
3	0	1.689475770853096E+003	2.3853666E-001	-2.7037677E+002
3	0	1.689975770840465E+003	2.3833036E-001	-2.7035559E+002
3	0	1.690475770827834E+003	2.3809515E-001	-2.7039093E+002
3	0	1.690975770815203E+003	2.3788092E-001	-2.7038031E+002
3	0	1.691475770802572E+003	2.3771019E-001	-2.7039447E+002
3	0	1.691975770789941E+003	2.3753551E-001	-2.7036267E+002
3	0	1.692475770777310E+003	2.3735775E-001	-2.7039093E+002
3	0	1.692975770764679E+003	2.3717691E-001	-2.7038385E+002
3	0	1.693475770752048E+003	2.3700163E-001	-2.7037677E+002
3	0	1.693975770739416E+003	2.3680644E-001	-2.7037677E+002
3	0	1.694475770726785E+003	2.3659268E-001	-2.7037677E+002
3	0	1.694975770714154E+003	2.3638852E-001	-2.7037677E+002
3	0	1.695475770701523E+003	2.3623078E-001	-2.7037326E+002
3	0	1.695975770688892E+003	2.3607260E-001	-2.7038385E+002
3	0	1.696475770676261E+003	2.3590887E-001	-2.7039093E+002
3	0	1.696975770663630E+003	2.3574525E-001	-2.7038385E+002
3	0	1.697475770650999E+003	2.3558673E-001	-2.7036972E+002
3	0	1.697975770638368E+003	2.3541205E-001	-2.7036972E+002
3	0	1.698475770625737E+003	2.3521337E-001	-2.7039093E+002
3	0	1.698975770613106E+003	2.3501976E-001	-2.7036267E+002
3	0	1.699475770600475E+003	2.3487484E-001	-2.7038031E+002
3	0	1.699975770587844E+003	2.3473255E-001	-2.7036618E+002
3	0	1.700475770575213E+003	2.3458436E-001	-2.7037326E+002
3	0	1.700975770562582E+003	2.3443107E-001	-2.7036618E+002
3	0	1.701475770549951E+003	2.3427574E-001	-2.7036618E+002
3	0	1.701975770537319E+003	2.3409887E-001	-2.7038385E+002
3	0	1.702475770524688E+003	2.3390797E-001	-2.7041214E+002
3	0	1.702975770512057E+003	2.3372528E-001	-2.7036972E+002
3	0	1.703475770499426E+003	2.3357880E-001	-2.7036618E+002
3	0	1.703975770486795E+003	2.3343854E-001	-2.7036267E+002
3	0	1.704475770474164E+003	2.3329513E-001	-2.7036972E+002
3	0	1.704975770461533E+003	2.3315343E-001	-2.7035913E+002
3	0	1.705475770448902E+003	2.3300429E-001	-2.7036618E+002
3	0	1.705975770436271E+003	2.3284154E-001	-2.7035913E+002
3	0	1.706475770423640E+003	2.3266090E-001	-2.7038385E+002
3	0	1.706975770411009E+003	2.3249239E-001	-2.7036972E+002
3	0	1.707475770398378E+003	2.3236530E-001	-2.7039093E+002
3	0	1.707975770385747E+003	2.3223934E-001	-2.7036618E+002
3	0	1.708475770373116E+003	2.3211098E-001	-2.7037677E+002
3	0	1.708975770360485E+003	2.3197292E-001	-2.7039093E+002
3	0	1.709475770347854E+003	2.3184194E-001	-2.7036972E+002
3	0	1.709975770335222E+003	2.3169467E-001	-2.7039093E+002
3	0	1.710475770322591E+003	2.3152541E-001	-2.7038742E+002
3	0	1.710975770309960E+003	2.3137045E-001	-2.7038385E+002
3	0	1.711475770297329E+003	2.3125413E-001	-2.7038031E+002
3	0	1.711975770284698E+003	2.3114276E-001	-2.7038031E+002
3	0	1.712475770272067E+003	2.3102359E-001	-2.7037326E+002
3	0	1.712975770259436E+003	2.3090358E-001	-2.7038385E+002
3	0	1.713475770246805E+003	2.3077713E-001	-2.7039093E+002
3	0	1.713975770234174E+003	2.3063780E-001	-2.7035205E+002
3	0	1.714475770221543E+003	2.3048255E-001	-2.7038031E+002
3	0	1.714975770208912E+003	2.3033220E-001	-2.7036972E+002
3	0	1.715475770196281E+003	2.3022342E-001	-2.7037326E+002
3	0	1.715975770183650E+003	2.3012276E-001	-2.7038385E+002
3	0	1.716475770171019E+003	2.3000811E-001	-2.7040155E+002
3	0	1.716975770158388E+003	2.2989418E-001	-2.7036972E+002
3	0	1.717475770145757E+003	2.2977747E-001	-2.7039447E+002
3	0	1.717975770133125E+003	2.2964828E-001	-2.7039093E+002
3	0	1.718475770120494E+003	2.2949275E-001	-2.7036267E+002
3	0	1.718975770107863E+003	2.2935435E-001	-2.7037677E+002
3	0	1.719475770095232E+003	2.2925523E-001	-2.7038385E+002
3	0	1.719975770082601E+003	2.2915874E-001	-2.7038385E+002
3	0	1.720475770069970E+003	2.2905307E-001	-2.7039447E+002
3	0	1.720975770057339E+003	2.2894713E-001	-2.7039447E+002
3	0	1.721475770044708E+003	2.2883976E-001	-2.7039801E+002
3	0	1.721975770032077E+003	2.2871421E-001	-2.7039093E+002
3	0	1.722475770019446E+003	2.2856872E-001	-2.7036972E+002
3	0	1.722975770006815E+003	2.2843052E-001	-2.7038742E+002
3	0	1.723475769994184E+003	2.2833066E-001	-2.7038031E+002
3	0	1.723975769981553E+003	2.2823788E-001	-2.7038385E+002
3	0	1.724475769968922E+003	2.2813790E-001	-2.7039801E+002
3	0	1.724975769956291E+003	2.2803544E-001	-2.7038385E+002
3	0	1.725475769943660E+003	2.2793077E-001	-2.7035913E+002
3	0	1.725975769931028E+003	2.2780907E-001	-2.7037677E+002
3	0	1.726475769918397E+003	2.2766536E-001	-2.7036972E+002
3	0	1.726975769905766E+003	2.2754294E-001	-2.7038031E+002
3	0	1.727475769893135E+003	2.2746091E-001	-2.7037326E+002
3	0	1.727975769880504E+003	2.2737955E-001	-2.7036618E+002
3	0	1.728475769867873E+003	2.2729357E-001	-2.7038385E+002
3	0	1.728975769855242E+003	2.2719896E-001	-2.7036972E+002
3	0	1.729475769842611E+003	2.2710943E-001	-2.7037326E+002
3	0	1.729975769829980E+003	2.2700228E-001	-2.7037677E+002
3	0	1.730475769817349E+003	2.2687176E-001	-2.7036972E+002
3	0	1.730975769804718E+003	2.2675106E-001	-2.7037326E+002
3	0	1.731475769792087E+003	2.2667262E-001	-2.7038385E+002
3	0	1.731975769779456E+003	2.2659250E-001	-2.7035559E+002
3	0	1.732475769766825E+003	2.2651251E-001	-2.7038742E+002
3	0	1.732975769754194E+003	2.2642757E-001	-2.7040860E+002
3	0	1.733475769741563E+003	2.2633407E-001	-2.7038031E+002
3	0	1.733975769728931E+003	2.2623131E-001	-2.7037326E+002
3	0	1.734475769716300E+003	2.2610731E-001	-2.7036618E+002
3	0	1.734975769703669E+003	2.2598407E-001	-2.7037326E+002
3	0	1.735475769691038E+003	2.2591236E-001	-2.7036972E+002
3	0	1.735975769678407E+003	2.2584286E-001	-2.7036972E+002
3	0	1.736475769665776E+003	2.2576088E-001	-2.7039093E+002
3	0	1.736975769653145E+003	2.2568068E-001	-2.7038385E+002
3	0	1.737475769640514E+003	2.2560000E-001	-2.7038031E+002
3	0	1.737975769627883E+003	2.2550380E-001	-2.7036972E+002
3	0	1.738475769615252E+003	2.2538105E-001	-2.7039447E+002
3	0	1.738975769602621E+003	2.2527061E-001	-2.7035913E+002
3	0	1.739475769589990E+003	2.2520106E-001	-2.7038031E+002
3	0	1.739975769577359E+003	2.2513016E-001	-2.7037326E+002
3	0	1.740475769564728E+003	2.2505382E-001	-2.7037677E+002
3	0	1.740975769552097E+003	2.2498135E-001	-2.7037677E+002
3	0	1.741475769539466E+003	2.2490822E-001	-2.7039093E+002
3	0	1.741975769526834E+003	2.2481063E-001	-2.7038031E+002
3	0	1.742475769514203E+003	2.2469109E-001	-2.7039093E+002
3	0	1.742975769501572E+003	2.2457474E-001	-2.7038031E+002
3	0	1.743475769488941E+003	2.2450225E-001	-2.7035559E+002
3	0	1.743975769476310E+003	2.2443230E-001	-2.7038742E+002
3	0	1.744475769463679E+003	2.2435784E-001	-2.7040860E+002
3	0	1.744975769451048E+003	2.2427918E-001	-2.7035913E+002
3	0	1.745475769438417E+003	2.2420196E-001	-2.7038031E+002
3	0	1.745975769425786E+003	2.2410089E-001	-2.7037677E+002
3	0	1.746475769413155E+003	2.2397786E-001	-2.7038031E+002
3	0	1.746975769400524E+003	2.2386543E-001	-2.7037326E+002
3	0	1.747475769387893E+003	2.2379801E-001	-2.7040155E+002
3	0	1.747975769375262E+003	2.2373384E-001	-2.7038031E+002
3	0	1.748475769362631E+003	2.2366774E-001	-2.7037677E+002
3	0	1.748975769350000E+003	2.2359432E-001	-2.7039447E+002
3	0	1.749475769337369E+003	2.2352643E-001	-2.7035205E+002
3	0	1.749975769324737E+003	2.2343008E-001	-2.7041568E+002
3	0	1.750475769312106E+003	2.2331400E-001	-2.7037326E+002
3	0	1.750975769299475E+003	2.2321232E-001	-2.7037326E+002
3	0	1.751475769286844E+003	2.2315106E-001	-2.7036267E+002
3	0	1.751975769274213E+003	2.2309017E-001	-2.7036972E+002
3	0	1.752475769261582E+003	2.2302452E-001	-2.7038031E+002
3	0	1.752975769248951E+003	2.2296745E-001	-2.7037677E+002
3	0	1.753475769236320E+003	2.2289471E-001	-2.7037677E+002
3	0	1.753975769223689E+003	2.2280994E-001	-2.7038031E+002
3	0	1.754475769211058E+003	2.2269686E-001	-2.7037677E+002
3	0	1.754975769198427E+003	2.2260050E-001	-2.7038742E+002
3	0	1.755475769185796E+003	2.2254108E-001	-2.7038385E+002
3	0	1.755975769173165E+003	2.2248612E-001	-2.7038031E+002
3	0	1.756475769160534E+003	2.2242247E-001	-2.7038385E+002
3	0	1.756975769147903E+003	2.2235577E-001	-2.7038031E+002
3	0	1.757475769135272E+003	2.2228749E-001	-2.7036972E+002
3	0	1.757975769122640E+003	2.2220494E-001	-2.7038031E+002
3	0	1.758475769110009E+003	2.2209413E-001	-2.7038385E+002
3	0	1.758975769097378E+003	2.2199447E-001	-2.7036618E+002
3	0	1.759475769084747E+003	2.2194000E-001	-2.7037677E+002
3	0	1.759975769072116E+003	2.2189012E-001	-2.7038742E+002
3	0	1.760475769059485E+003	2.2182909E-001	-2.7036618E+002
3	0	1.760975769046854E+003	2.2177263E-001	-2.7036972E+002
3	0	1.761475769034223E+003	2.2171305E-001	-2.7037677E+002
3	0	1.761975769021592E+003	2.2162926E-001	-2.7038742E+002
3	0	1.762475769008961E+003	2.2152142E-001	-2.7042627E+002
3	0	1.762975768996330E+003	2.2142337E-001	-2.7038031E+002
3	0	1.763475768983699E+003	2.2136500E-001	-2.7036972E+002
3	0	1.763975768971068E+003	2.2131222E-001	-2.7037326E+002
3	0	1.764475768958437E+003	2.2125085E-001	-2.7038031E+002
3	0	1.764975768945806E+003	2.2118917E-001	-2.7039801E+002
3	0	1.765475768933175E+003	2.2112413E-001	-2.7037326E+002
3	0	1.765975768920543E+003	2.2104411E-001	-2.7038742E+002
3	0	1.766475768907912E+003	2.2093903E-001	-2.7036618E+002
3	0	1.766975768895281E+003	2.2084582E-001	-2.7037677E+002
3	0	1.767475768882650E+003	2.2079600E-001	-2.7037677E+002
3	0	1.767975768870019E+003	2.2074555E-001	-2.7038031E+002
3	0	1.768475768857388E+003	2.2068907E-001	-2.7037677E+002
3	0	1.768975768844757E+003	2.2063404E-001	-2.7037326E+002
3	0	1.769475768832126E+003	2.2057606E-001	-2.7038385E+002
3	0	1.769975768819495E+003	2.2049996E-001	-2.7035913E+002
3	0	1.770475768806864E+003	2.2039820E-001	-2.7037677E+002
3	0	1.770975768794233E+003	2.2030722E-001	-2.7038031E+002
3	0	1.771475768781602E+003	2.2026029E-001	-2.7038742E+002
3	0	1.771975768768971E+003	2.2021773E-001	-2.7035559E+002
3	0	1.772475768756340E+003	2.2017132E-001	-2.7038385E+002
3	0	1.772975768743709E+003	2.2011405E-001	-2.7036618E+002
3	0	1.773475768731078E+003	2.2004972E-001	-2.7037326E+002
3	0	1.773975768718446E+003	2.1996580E-001	-2.7038742E+002
3	0	1.774475768705815E+003	2.1985787E-001	-2.7037326E+002
3	0	1.774975768693184E+003	2.1976663E-001	-2.7037677E+002
3	0	1.775475768680553E+003	2.1970965E-001	-2.7037677E+002
3	0	1.775975768667922E+003	2.1966225E-001	-2.7035913E+002
3	0	1.776475768655291E+003	2.1960399E-001	-2.7037677E+002
3	0	1.776975768642660E+003	2.1954659E-001	-2.7040860E+002
3	0	1.777475768630029E+003	2.1949323E-001	-2.7037326E+002
3	0	1.777975768617398E+003	2.1941617E-001	-2.7038031E+002
3	0	1.778475768604767E+003	2.1931647E-001	-2.7039093E+002
3	0	1.778975768592136E+003	2.1922767E-001	-2.7037677E+002
3	0	1.779475768579505E+003	2.1917857E-001	-2.7040155E+002
3	0	1.779975768566874E+003	2.1913339E-001	-2.7035913E+002
3	0	1.780475768554243E+003	2.1908212E-001	-2.7037326E+002
3	0	1.780975768541612E+003	2.1902557E-001	-2.7036618E+002
3	0	1.781475768528981E+003	2.1896376E-001	-2.7035559E+002
3	0	1.781975768516349E+003	2.1888816E-001	-2.7040506E+002
3	0	1.782475768503718E+003	2.1879622E-001	-2.7037677E+002
3	0	1.782975768491087E+003	2.1870853E-001	-2.7035559E+002
3	0	1.783475768478456E+003	2.1865782E-001	-2.7036267E+002
3	0	1.783975768465825E+003	2.1861953E-001	-2.7039093E+002
3	0	1.784475768453194E+003	2.1856837E-001	-2.7036972E+002
3	0	1.784975768440563E+003	2.1850917E-001	-2.7037677E+002
3	0	1.785475768427932E+003	2.1844967E-001	-2.7040860E+002
3	0	1.785975768415301E+003	2.1837062E-001	-2.7038742E+002
3	0	1.786475768402670E+003	2.1827039E-001	-2.7039801E+002
3	0	1.786975768390039E+003	2.1818261E-001	-2.7037677E+002
3	0	1.787475768377408E+003	2.1813060E-001	-2.7038031E+002
3	0	1.787975768364777E+003	2.1808253E-001	-2.7038385E+002
3	0	1.788475768352146E+003	2.1803279E-001	-2.7036972E+002
3	0	1.788975768339515E+003	2.1798107E-001	-2.7038742E+002
3	0	1.789475768326884E+003	2.1792436E-001	-2.7037326E+002
3	0	1.789975768314252E+003	2.1785736E-001	-2.7036267E+002
3	0	1.790475768301621E+003	2.1776095E-001	-2.7038385E+002
3	0	1.790975768288990E+003	2.1768022E-001	-2.7040155E+002
3	0	1.791475768276359E+003	2.1764193E-001	-2.7038385E+002
3	0	1.791975768263728E+003	2.1760373E-001	-2.7040155E+002
3	0	1.792475768251097E+003	2.1755990E-001	-2.7039801E+002
3	0	1.792975768238466E+003	2.1751203E-001	-2.7036618E+002
3	0	1.793475768225835E+003	2.1745789E-001	-2.7036267E+002
3	0	1.793975768213204E+003	2.1739592E-001	-2.7038031E+002
3	0	1.794475768200573E+003	2.1730858E-001	-2.7036972E+002
3	0	1.794975768187942E+003	2.1723172E-001	-2.7038742E+002
3	0	1.795475768175311E+003	2.1719424E-001	-2.7038031E+002
3	0	1.795975768162680E+003	2.1716605E-001	-2.7038385E+002
3	0	1.796475768150049E+003	2.1713063E-001	-2.7036267E+002
3	0	1.796975768137418E+003	2.1708685E-001	-2.7035913E+002
3	0	1.797475768124787E+003	2.1704051E-001	-2.7039801E+002
3	0	1.797975768112155E+003	2.1697406E-001	-2.7035913E+002
3	0	1.798475768099524E+003	2.1688470E-001	-2.7039801E+002
3	0	1.798975768086893E+003	2.1680756E-001	-2.7038742E+002
3	0	1.799475768074262E+003	2.1677145E-001	-2.7038385E+002
3	0	1.799975768061631E+003	2.1673895E-001	-2.7037677E+002
3	0	1.800475768049000E+003	2.1669555E-001	-2.7037677E+002
3	0	1.800975768036369E+003	2.1665910E-001	-2.7037677E+002
3	0	1.801475768023738E+003	2.1661280E-001	-2.7037326E+002
3	0	1.801975768011107E+003	2.1655324E-001	-2.7038031E+002
3	0	1.802475767998476E+003	2.1646759E-001	-2.7035913E+002
3	0	1.802975767985845E+003	2.1638942E-001	-2.7037677E+002
3	0	1.803475767973214E+003	2.1635137E-001	-2.7036267E+002
3	0	1.803975767960583E+003	2.1631490E-001	-2.7036267E+002
3	0	1.804475767947952E+003	2.1626960E-001	-2.7038031E+002
3	0	1.804975767935321E+003	2.1621822E-001	-2.7037677E+002
3	0	1.805475767922690E+003	2.1617056E-001	-2.7038031E+002
3	0	1.805975767910058E+003	2.1610275E-001	-2.7039801E+002
3	0	1.806000367909437E+003	2.1605720E-001	-2.7035913E+002