EC-Lab ASCII FILE
Nb header lines : 55                          

Open Circuit Voltage

Run on channel : 1 (SN 81504)
User : 
CE vs. WE compliance from -10 V to 10 V
Electrode connection : standard
Potential control : Ewe
Ewe ctrl range : min = -2.50 V, max = 2.50 V
Safety Limits :
	Do not start on E overload
Acquisition started on : 05/08/2026 00:05:30.308
Loaded Setting File :  C:\PEM-WE_measurements\2026\372_IV_IV IrOx, 5 min Pt, 30 min C, etched cathode\new station\Loopeis new\1,46 V different time gaps open cell\Loopeis 1,46V_180s_3_PEIS from 6500Hz to 1000Hz.mps
Saved on :
	File : L_28_Loopeis 1,46V_180s_3_PEIS from 6500Hz to 1000Hz_20_OCV_C01.mpr
	Directory : C:\PEM-WE_measurements\2026\372_IV_IV IrOx, 5 min Pt, 30 min C, etched cathode\new station\Loopeis new\1,46 V different time gaps open cell\
	Host : 192.168.0.2
Device : SP-150e (SN .005491)
Address : 192.168.0.91
EC-LAB for windows v11.71 (software)
Internet server v28.00 (firmware)
Command interpretor v14.01 (firmware)
Electrode material : 
Initial state : 
Electrolyte : 
Comments : 
Current amplifier : SP-150eB-20A
Electrode surface area : 0.001 cm²
Characteristic mass : 0.001 g
Equivalent Weight : 0.000 g/eq.
Density : 0.000 g/cm3
Volume (V) : 0.001 cm³
Record Analogic IN 1
Text export
   Mode : Standard
   Time format : Elapsed
Cycle Definition : Charge/Discharge alternance
External device configuration :
   device type : Temperature Probe
   device name : Other
   Analog IN 1 : 
      unit : T/Â°C
      max : 100.000 at 2.000 V
      min : 0.000 at 1.460 V
tR (h:m:s)          0:03:0.0000         
dER/dt (mV/h)       1.0                 
record              <Ewe>               
dER (mV)            10.00               
dtR (s)             0.5000              
E range min (V)     -2.500              
E range max (V)     2.500               

mode	error	time/s	<Ewe/V>	Analog IN 1/V	
3	0	2.077036564377413E+003	9.4177026E-001	-2.7038031E+002
3	0	2.077536564364782E+003	1.1291270E+000	-2.7037326E+002
3	0	2.078036564352151E+003	7.5373375E-001	-2.7037326E+002
3	0	2.078536564339520E+003	3.9006826E-001	-2.7037326E+002
3	0	2.079036564326889E+003	3.2167625E-001	-2.7038031E+002
3	0	2.079536564314258E+003	3.1217280E-001	-2.7039801E+002
3	0	2.080036564301627E+003	3.0567017E-001	-2.7038742E+002
3	0	2.080536564288996E+003	3.0025530E-001	-2.7040155E+002
3	0	2.081036564276365E+003	2.9598904E-001	-2.7035205E+002
3	0	2.081536564263733E+003	2.9265663E-001	-2.7038031E+002
3	0	2.082036564251102E+003	2.8999710E-001	-2.7038742E+002
3	0	2.082536564238471E+003	2.8783512E-001	-2.7039801E+002
3	0	2.083036564225840E+003	2.8601515E-001	-2.7036267E+002
3	0	2.083536564213209E+003	2.8446576E-001	-2.7038385E+002
3	0	2.084036564200578E+003	2.8313771E-001	-2.7041214E+002
3	0	2.084536564187947E+003	2.8196883E-001	-2.7039093E+002
3	0	2.085036564175316E+003	2.8091818E-001	-2.7039801E+002
3	0	2.085536564162685E+003	2.7997252E-001	-2.7038385E+002
3	0	2.086036564150054E+003	2.7910239E-001	-2.7036972E+002
3	0	2.086536564137423E+003	2.7828649E-001	-2.7038385E+002
3	0	2.087036564124792E+003	2.7749681E-001	-2.7036972E+002
3	0	2.087536564112161E+003	2.7674618E-001	-2.7037677E+002
3	0	2.088036564099530E+003	2.7605930E-001	-2.7038742E+002
3	0	2.088536564086899E+003	2.7540883E-001	-2.7037326E+002
3	0	2.089036564074268E+003	2.7478307E-001	-2.7039093E+002
3	0	2.089536564061636E+003	2.7418157E-001	-2.7040860E+002
3	0	2.090036564049005E+003	2.7358595E-001	-2.7038742E+002
3	0	2.090536564036374E+003	2.7296716E-001	-2.7037677E+002
3	0	2.091036564023743E+003	2.7238169E-001	-2.7040506E+002
3	0	2.091536564011112E+003	2.7181488E-001	-2.7036618E+002
3	0	2.092036563998481E+003	2.7128327E-001	-2.7037326E+002
3	0	2.092536563985850E+003	2.7077609E-001	-2.7042273E+002
3	0	2.093036563973219E+003	2.7025846E-001	-2.7038385E+002
3	0	2.093536563960588E+003	2.6974556E-001	-2.7038385E+002
3	0	2.094036563947957E+003	2.6924440E-001	-2.7039093E+002
3	0	2.094536563935326E+003	2.6873127E-001	-2.7039447E+002
3	0	2.095036563922695E+003	2.6820761E-001	-2.7035913E+002
3	0	2.095536563910064E+003	2.6767144E-001	-2.7035913E+002
3	0	2.096036563897433E+003	2.6718444E-001	-2.7040860E+002
3	0	2.096536563884802E+003	2.6671427E-001	-2.7038385E+002
3	0	2.097036563872171E+003	2.6624045E-001	-2.7039093E+002
3	0	2.097536563859539E+003	2.6577342E-001	-2.7037677E+002
3	0	2.098036563846908E+003	2.6530969E-001	-2.7036267E+002
3	0	2.098536563834277E+003	2.6483750E-001	-2.7039801E+002
3	0	2.099036563821646E+003	2.6435480E-001	-2.7039093E+002
3	0	2.099536563809015E+003	2.6386452E-001	-2.7036972E+002
3	0	2.100036563796384E+003	2.6341784E-001	-2.7036267E+002
3	0	2.100536563783753E+003	2.6298425E-001	-2.7035913E+002
3	0	2.101036563771122E+003	2.6254925E-001	-2.7037326E+002
3	0	2.101536563758491E+003	2.6211914E-001	-2.7036618E+002
3	0	2.102036563745860E+003	2.6168692E-001	-2.7036267E+002
3	0	2.102536563733229E+003	2.6124322E-001	-2.7037677E+002
3	0	2.103036563720598E+003	2.6078728E-001	-2.7039801E+002
3	0	2.103536563707967E+003	2.6033255E-001	-2.7038031E+002
3	0	2.104036563695336E+003	2.5991780E-001	-2.7038385E+002
3	0	2.104536563682705E+003	2.5952372E-001	-2.7034497E+002
3	0	2.105036563670074E+003	2.5912365E-001	-2.7036972E+002
3	0	2.105536563657442E+003	2.5872254E-001	-2.7036618E+002
3	0	2.106036563644811E+003	2.5831941E-001	-2.7037677E+002
3	0	2.106536563632180E+003	2.5791788E-001	-2.7038742E+002
3	0	2.107036563619549E+003	2.5749189E-001	-2.7035913E+002
3	0	2.107536563606918E+003	2.5706694E-001	-2.7038742E+002
3	0	2.108036563594287E+003	2.5668871E-001	-2.7040506E+002
3	0	2.108536563581656E+003	2.5632170E-001	-2.7037677E+002
3	0	2.109036563569025E+003	2.5594804E-001	-2.7041214E+002
3	0	2.109536563556394E+003	2.5557846E-001	-2.7038742E+002
3	0	2.110036563543763E+003	2.5520554E-001	-2.7037677E+002
3	0	2.110536563531132E+003	2.5482911E-001	-2.7039801E+002
3	0	2.111036563518501E+003	2.5444308E-001	-2.7037677E+002
3	0	2.111536563505870E+003	2.5404823E-001	-2.7039447E+002
3	0	2.112036563493239E+003	2.5369829E-001	-2.7037326E+002
3	0	2.112536563480608E+003	2.5335729E-001	-2.7040506E+002
3	0	2.113036563467977E+003	2.5301746E-001	-2.7037677E+002
3	0	2.113536563455345E+003	2.5267202E-001	-2.7038742E+002
3	0	2.114036563442714E+003	2.5233132E-001	-2.7039447E+002
3	0	2.114536563430083E+003	2.5197840E-001	-2.7037326E+002
3	0	2.115036563417452E+003	2.5161713E-001	-2.7038031E+002
3	0	2.115536563404821E+003	2.5125375E-001	-2.7036972E+002
3	0	2.116036563392190E+003	2.5092793E-001	-2.7038385E+002
3	0	2.116536563379559E+003	2.5062186E-001	-2.7036972E+002
3	0	2.117036563366928E+003	2.5031078E-001	-2.7036267E+002
3	0	2.117536563354297E+003	2.4999842E-001	-2.7038742E+002
3	0	2.118036563341666E+003	2.4969530E-001	-2.7036972E+002
3	0	2.118536563329035E+003	2.4938279E-001	-2.7038031E+002
3	0	2.119036563316404E+003	2.4904694E-001	-2.7038742E+002
3	0	2.119536563303773E+003	2.4870850E-001	-2.7041919E+002
3	0	2.120036563291142E+003	2.4841081E-001	-2.7036267E+002
3	0	2.120536563278511E+003	2.4813358E-001	-2.7038031E+002
3	0	2.121036563265880E+003	2.4784903E-001	-2.7036618E+002
3	0	2.121536563253248E+003	2.4756505E-001	-2.7040506E+002
3	0	2.122036563240617E+003	2.4727987E-001	-2.7036618E+002
3	0	2.122536563227986E+003	2.4698047E-001	-2.7038385E+002
3	0	2.123036563215355E+003	2.4667051E-001	-2.7037677E+002
3	0	2.123536563202724E+003	2.4635926E-001	-2.7038031E+002
3	0	2.124036563190093E+003	2.4608256E-001	-2.7039447E+002
3	0	2.124536563177462E+003	2.4583127E-001	-2.7038031E+002
3	0	2.125036563164831E+003	2.4557099E-001	-2.7039093E+002
3	0	2.125536563152200E+003	2.4530870E-001	-2.7038031E+002
3	0	2.126036563139569E+003	2.4505389E-001	-2.7035559E+002
3	0	2.126536563126938E+003	2.4478175E-001	-2.7037677E+002
3	0	2.127036563114307E+003	2.4449022E-001	-2.7039801E+002
3	0	2.127536563101676E+003	2.4419947E-001	-2.7036618E+002
3	0	2.128036563089045E+003	2.4394760E-001	-2.7037677E+002
3	0	2.128536563076414E+003	2.4371427E-001	-2.7039093E+002
3	0	2.129036563063783E+003	2.4347034E-001	-2.7039801E+002
3	0	2.129536563051151E+003	2.4323824E-001	-2.7038742E+002
3	0	2.130036563038520E+003	2.4300143E-001	-2.7038031E+002
3	0	2.130536563025889E+003	2.4275236E-001	-2.7037677E+002
3	0	2.131036563013258E+003	2.4248280E-001	-2.7038385E+002
3	0	2.131536563000627E+003	2.4220501E-001	-2.7038031E+002
3	0	2.132036562987996E+003	2.4197783E-001	-2.7037326E+002
3	0	2.132536562975365E+003	2.4176805E-001	-2.7041568E+002
3	0	2.133036562962734E+003	2.4154754E-001	-2.7037677E+002
3	0	2.133536562950103E+003	2.4132596E-001	-2.7039447E+002
3	0	2.134036562937472E+003	2.4110441E-001	-2.7038742E+002
3	0	2.134536562924841E+003	2.4087359E-001	-2.7036618E+002
3	0	2.135036562912210E+003	2.4062864E-001	-2.7036267E+002
3	0	2.135536562899579E+003	2.4037030E-001	-2.7038031E+002
3	0	2.136036562886948E+003	2.4016583E-001	-2.7038385E+002
3	0	2.136536562874317E+003	2.3997270E-001	-2.7038742E+002
3	0	2.137036562861686E+003	2.3977530E-001	-2.7039447E+002
3	0	2.137536562849054E+003	2.3957528E-001	-2.7036972E+002
3	0	2.138036562836423E+003	2.3937424E-001	-2.7039447E+002
3	0	2.138536562823792E+003	2.3916061E-001	-2.7036618E+002
3	0	2.139036562811161E+003	2.3893043E-001	-2.7036972E+002
3	0	2.139536562798530E+003	2.3868588E-001	-2.7038742E+002
3	0	2.140036562785899E+003	2.3849994E-001	-2.7036972E+002
3	0	2.140536562773268E+003	2.3832293E-001	-2.7036618E+002
3	0	2.141036562760637E+003	2.3814566E-001	-2.7038742E+002
3	0	2.141536562748006E+003	2.3796126E-001	-2.7039093E+002
3	0	2.142036562735375E+003	2.3778409E-001	-2.7039093E+002
3	0	2.142536562722744E+003	2.3758744E-001	-2.7036618E+002
3	0	2.143036562710113E+003	2.3736812E-001	-2.7039447E+002
3	0	2.143536562697482E+003	2.3714601E-001	-2.7038742E+002
3	0	2.144036562684851E+003	2.3696913E-001	-2.7039447E+002
3	0	2.144536562672220E+003	2.3680438E-001	-2.7037326E+002
3	0	2.145036562659589E+003	2.3663941E-001	-2.7037677E+002
3	0	2.145536562646957E+003	2.3647518E-001	-2.7037677E+002
3	0	2.146036562634326E+003	2.3630042E-001	-2.7036267E+002
3	0	2.146536562621695E+003	2.3612183E-001	-2.7039447E+002
3	0	2.147036562609064E+003	2.3592103E-001	-2.7036972E+002
3	0	2.147536562596433E+003	2.3571883E-001	-2.7038742E+002
3	0	2.148036562583802E+003	2.3556015E-001	-2.7036972E+002
3	0	2.148536562571171E+003	2.3541361E-001	-2.7038742E+002
3	0	2.149036562558540E+003	2.3526058E-001	-2.7038031E+002
3	0	2.149536562545909E+003	2.3510665E-001	-2.7038031E+002
3	0	2.150036562533278E+003	2.3494989E-001	-2.7038031E+002
3	0	2.150536562520647E+003	2.3478265E-001	-2.7035913E+002
3	0	2.151036562508016E+003	2.3459339E-001	-2.7037326E+002
3	0	2.151536562495385E+003	2.3439181E-001	-2.7035913E+002
3	0	2.152036562482754E+003	2.3423907E-001	-2.7035559E+002
3	0	2.152536562470123E+003	2.3410273E-001	-2.7037677E+002
3	0	2.153036562457492E+003	2.3395920E-001	-2.7040155E+002
3	0	2.153536562444860E+003	2.3381090E-001	-2.7036972E+002
3	0	2.154036562432229E+003	2.3365806E-001	-2.7037677E+002
3	0	2.154536562419598E+003	2.3349698E-001	-2.7037326E+002
3	0	2.155036562406967E+003	2.3331822E-001	-2.7038031E+002
3	0	2.155536562394336E+003	2.3313352E-001	-2.7039093E+002
3	0	2.156036562381705E+003	2.3299539E-001	-2.7036618E+002
3	0	2.156536562369074E+003	2.3287380E-001	-2.7039801E+002
3	0	2.157036562356443E+003	2.3274259E-001	-2.7037677E+002
3	0	2.157536562343812E+003	2.3260653E-001	-2.7038742E+002
3	0	2.158036562331181E+003	2.3246761E-001	-2.7039801E+002
3	0	2.158536562318550E+003	2.3232277E-001	-2.7034497E+002
3	0	2.159036562305919E+003	2.3215707E-001	-2.7035913E+002
3	0	2.159536562293288E+003	2.3198161E-001	-2.7041919E+002
3	0	2.160036562280657E+003	2.3185426E-001	-2.7036618E+002
3	0	2.160536562268026E+003	2.3174225E-001	-2.7038385E+002
3	0	2.161036562255395E+003	2.3162442E-001	-2.7041214E+002
3	0	2.161536562242763E+003	2.3150489E-001	-2.7037326E+002
3	0	2.162036562230132E+003	2.3137994E-001	-2.7038742E+002
3	0	2.162536562217501E+003	2.3124063E-001	-2.7038385E+002
3	0	2.163036562204870E+003	2.3108204E-001	-2.7037677E+002
3	0	2.163536562192239E+003	2.3091453E-001	-2.7038031E+002
3	0	2.164036562179608E+003	2.3079245E-001	-2.7037326E+002
3	0	2.164536562166977E+003	2.3069054E-001	-2.7038385E+002
3	0	2.165036562154346E+003	2.3057953E-001	-2.7037677E+002
3	0	2.165536562141715E+003	2.3046499E-001	-2.7037326E+002
3	0	2.166036562129084E+003	2.3035336E-001	-2.7036618E+002
3	0	2.166536562116453E+003	2.3023228E-001	-2.7039093E+002
3	0	2.167036562103822E+003	2.3008600E-001	-2.7038385E+002
3	0	2.167536562091191E+003	2.2992890E-001	-2.7038385E+002
3	0	2.168036562078560E+003	2.2981778E-001	-2.7038031E+002
3	0	2.168536562065929E+003	2.2971849E-001	-2.7035559E+002
3	0	2.169036562053298E+003	2.2961394E-001	-2.7035913E+002
3	0	2.169536562040666E+003	2.2951210E-001	-2.7034497E+002
3	0	2.170036562028035E+003	2.2940142E-001	-2.7038031E+002
3	0	2.170536562015404E+003	2.2928034E-001	-2.7036618E+002
3	0	2.171036562002773E+003	2.2913492E-001	-2.7038385E+002
3	0	2.171536561990142E+003	2.2898075E-001	-2.7040155E+002
3	0	2.172036561977511E+003	2.2886969E-001	-2.7036972E+002
3	0	2.172536561964880E+003	2.2877267E-001	-2.7035913E+002
3	0	2.173036561952249E+003	2.2867692E-001	-2.7039093E+002
3	0	2.173536561939618E+003	2.2857538E-001	-2.7036618E+002
3	0	2.174036561926987E+003	2.2847033E-001	-2.7039447E+002
3	0	2.174536561914356E+003	2.2835043E-001	-2.7039093E+002
3	0	2.175036561901725E+003	2.2821322E-001	-2.7041214E+002
3	0	2.175536561889094E+003	2.2806305E-001	-2.7039801E+002
3	0	2.176036561876463E+003	2.2795987E-001	-2.7036618E+002
3	0	2.176536561863832E+003	2.2787505E-001	-2.7036618E+002
3	0	2.177036561851201E+003	2.2778162E-001	-2.7041568E+002
3	0	2.177536561838569E+003	2.2768360E-001	-2.7036267E+002
3	0	2.178036561825938E+003	2.2758716E-001	-2.7039447E+002
3	0	2.178536561813307E+003	2.2748543E-001	-2.7038031E+002
3	0	2.179036561800676E+003	2.2735475E-001	-2.7039447E+002
3	0	2.179536561788045E+003	2.2721620E-001	-2.7040860E+002
3	0	2.180036561775414E+003	2.2711961E-001	-2.7039447E+002
3	0	2.180536561762783E+003	2.2704047E-001	-2.7035205E+002
3	0	2.181036561750152E+003	2.2695784E-001	-2.7036972E+002
3	0	2.181536561737521E+003	2.2686893E-001	-2.7038385E+002
3	0	2.182036561724890E+003	2.2678402E-001	-2.7036267E+002
3	0	2.182536561712259E+003	2.2668295E-001	-2.7037326E+002
3	0	2.183036561699628E+003	2.2656058E-001	-2.7039447E+002
3	0	2.183536561686997E+003	2.2642474E-001	-2.7038742E+002
3	0	2.184036561674366E+003	2.2633709E-001	-2.7037677E+002
3	0	2.184536561661735E+003	2.2626805E-001	-2.7034851E+002
3	0	2.185036561649104E+003	2.2618866E-001	-2.7038385E+002
3	0	2.185536561636472E+003	2.2610316E-001	-2.7037677E+002
3	0	2.186036561623841E+003	2.2602694E-001	-2.7038385E+002
3	0	2.186536561611210E+003	2.2593363E-001	-2.7037677E+002
3	0	2.187036561598579E+003	2.2580773E-001	-2.7037326E+002
3	0	2.187536561585948E+003	2.2567947E-001	-2.7038385E+002
3	0	2.188036561573317E+003	2.2559386E-001	-2.7039801E+002
3	0	2.188536561560686E+003	2.2552790E-001	-2.7038742E+002
3	0	2.189036561548055E+003	2.2545250E-001	-2.7037677E+002
3	0	2.189536561535424E+003	2.2537413E-001	-2.7037677E+002
3	0	2.190036561522793E+003	2.2528993E-001	-2.7040506E+002
3	0	2.190536561510162E+003	2.2518140E-001	-2.7036267E+002
3	0	2.191036561497531E+003	2.2505319E-001	-2.7039093E+002
3	0	2.191536561484900E+003	2.2492394E-001	-2.7038031E+002
3	0	2.192036561472269E+003	2.2484091E-001	-2.7039801E+002
3	0	2.192536561459638E+003	2.2476199E-001	-2.7036618E+002
3	0	2.193036561447007E+003	2.2467281E-001	-2.7039093E+002
3	0	2.193536561434375E+003	2.2458856E-001	-2.7037326E+002
3	0	2.194036561421744E+003	2.2450072E-001	-2.7038031E+002
3	0	2.194536561409113E+003	2.2439803E-001	-2.7037677E+002
3	0	2.195036561396482E+003	2.2427817E-001	-2.7038031E+002
3	0	2.195536561383851E+003	2.2415143E-001	-2.7037677E+002
3	0	2.196036561371220E+003	2.2406536E-001	-2.7038742E+002
3	0	2.196536561358589E+003	2.2399640E-001	-2.7038031E+002
3	0	2.197036561345958E+003	2.2392073E-001	-2.7036972E+002
3	0	2.197536561333327E+003	2.2384161E-001	-2.7038742E+002
3	0	2.198036561320696E+003	2.2376476E-001	-2.7037326E+002
3	0	2.198536561308065E+003	2.2367795E-001	-2.7038031E+002
3	0	2.199036561295434E+003	2.2357123E-001	-2.7039093E+002
3	0	2.199536561282803E+003	2.2345302E-001	-2.7038031E+002
3	0	2.200036561270172E+003	2.2337706E-001	-2.7036618E+002
3	0	2.200536561257541E+003	2.2331339E-001	-2.7039801E+002
3	0	2.201036561244910E+003	2.2324979E-001	-2.7038031E+002
3	0	2.201536561232278E+003	2.2317924E-001	-2.7039801E+002
3	0	2.202036561219647E+003	2.2310546E-001	-2.7036972E+002
3	0	2.202536561207016E+003	2.2301972E-001	-2.7036972E+002
3	0	2.203036561194385E+003	2.2291310E-001	-2.7037677E+002
3	0	2.203536561181754E+003	2.2279543E-001	-2.7035559E+002
3	0	2.204036561169123E+003	2.2272542E-001	-2.7037677E+002
3	0	2.204536561156492E+003	2.2266932E-001	-2.7036972E+002
3	0	2.205036561143861E+003	2.2260524E-001	-2.7036972E+002
3	0	2.205536561131230E+003	2.2253726E-001	-2.7037677E+002
3	0	2.206036561118599E+003	2.2247308E-001	-2.7036972E+002
3	0	2.206536561105968E+003	2.2239330E-001	-2.7039801E+002
3	0	2.207036561093337E+003	2.2229376E-001	-2.7035559E+002
3	0	2.207536561080706E+003	2.2218089E-001	-2.7038031E+002
3	0	2.208036561068075E+003	2.2211446E-001	-2.7035913E+002
3	0	2.208536561055444E+003	2.2205999E-001	-2.7037326E+002
3	0	2.209036561042813E+003	2.2200440E-001	-2.7040155E+002
3	0	2.209536561030181E+003	2.2193900E-001	-2.7038031E+002
3	0	2.210036561017550E+003	2.2187938E-001	-2.7039093E+002
3	0	2.210536561004919E+003	2.2180282E-001	-2.7036972E+002
3	0	2.211036560992288E+003	2.2169849E-001	-2.7038031E+002
3	0	2.211536560979657E+003	2.2158736E-001	-2.7037326E+002
3	0	2.212036560967026E+003	2.2152093E-001	-2.7037326E+002
3	0	2.212536560954395E+003	2.2146766E-001	-2.7039093E+002
3	0	2.213036560941764E+003	2.2140628E-001	-2.7037677E+002
3	0	2.213536560929133E+003	2.2134058E-001	-2.7038385E+002
3	0	2.214036560916502E+003	2.2127739E-001	-2.7037326E+002
3	0	2.214536560903871E+003	2.2119987E-001	-2.7036972E+002
3	0	2.215036560891240E+003	2.2110094E-001	-2.7039447E+002
3	0	2.215536560878609E+003	2.2098954E-001	-2.7036972E+002
3	0	2.216036560865978E+003	2.2092508E-001	-2.7038031E+002
3	0	2.216536560853347E+003	2.2086863E-001	-2.7037326E+002
3	0	2.217036560840716E+003	2.2081771E-001	-2.7038742E+002
3	0	2.217536560828084E+003	2.2075757E-001	-2.7036618E+002
3	0	2.218036560815453E+003	2.2069205E-001	-2.7039447E+002
3	0	2.218536560802822E+003	2.2061977E-001	-2.7036972E+002
3	0	2.219036560790191E+003	2.2053044E-001	-2.7037326E+002
3	0	2.219536560777560E+003	2.2042543E-001	-2.7037677E+002
3	0	2.220036560764929E+003	2.2036898E-001	-2.7035913E+002
3	0	2.220536560752298E+003	2.2032592E-001	-2.7038031E+002
3	0	2.221036560739667E+003	2.2027472E-001	-2.7037326E+002
3	0	2.221536560727036E+003	2.2022235E-001	-2.7038031E+002
3	0	2.222036560714405E+003	2.2016619E-001	-2.7039447E+002
3	0	2.222536560701774E+003	2.2010158E-001	-2.7036972E+002
3	0	2.223036560689143E+003	2.2000602E-001	-2.7037677E+002
3	0	2.223536560676512E+003	2.1990529E-001	-2.7039801E+002
3	0	2.224036560663881E+003	2.1985121E-001	-2.7036618E+002
3	0	2.224536560651250E+003	2.1980689E-001	-2.7039093E+002
3	0	2.225036560638619E+003	2.1976393E-001	-2.7038385E+002
3	0	2.225536560625987E+003	2.1971175E-001	-2.7038385E+002
3	0	2.226036560613356E+003	2.1965866E-001	-2.7035913E+002
3	0	2.226536560600725E+003	2.1959782E-001	-2.7036267E+002
3	0	2.227036560588094E+003	2.1951330E-001	-2.7039801E+002
3	0	2.227536560575463E+003	2.1941647E-001	-2.7037326E+002
3	0	2.228036560562832E+003	2.1935780E-001	-2.7038742E+002
3	0	2.228536560550201E+003	2.1931581E-001	-2.7038031E+002
3	0	2.229036560537570E+003	2.1927233E-001	-2.7037677E+002
3	0	2.229536560524939E+003	2.1921887E-001	-2.7037677E+002
3	0	2.230036560512308E+003	2.1916583E-001	-2.7038742E+002
3	0	2.230536560499677E+003	2.1910213E-001	-2.7038385E+002
3	0	2.231036560487046E+003	2.1901390E-001	-2.7038385E+002
3	0	2.231536560474415E+003	2.1891603E-001	-2.7036618E+002
3	0	2.232036560461784E+003	2.1886238E-001	-2.7038742E+002
3	0	2.232536560449153E+003	2.1882342E-001	-2.7038742E+002
3	0	2.233036560436522E+003	2.1877098E-001	-2.7035913E+002
3	0	2.233536560423890E+003	2.1872053E-001	-2.7037326E+002
3	0	2.234036560411259E+003	2.1866524E-001	-2.7037326E+002
3	0	2.234536560398628E+003	2.1860534E-001	-2.7036618E+002
3	0	2.235036560385997E+003	2.1850897E-001	-2.7038385E+002
3	0	2.235536560373366E+003	2.1841066E-001	-2.7037677E+002
3	0	2.236036560360735E+003	2.1835248E-001	-2.7037677E+002
3	0	2.236536560348104E+003	2.1831203E-001	-2.7038742E+002
3	0	2.237036560335473E+003	2.1826598E-001	-2.7040155E+002
3	0	2.237536560322842E+003	2.1821830E-001	-2.7037677E+002
3	0	2.238036560310211E+003	2.1816751E-001	-2.7038742E+002
3	0	2.238536560297580E+003	2.1810827E-001	-2.7038385E+002
3	0	2.239036560284949E+003	2.1802211E-001	-2.7038385E+002
3	0	2.239536560272318E+003	2.1792497E-001	-2.7037326E+002
3	0	2.240036560259687E+003	2.1787824E-001	-2.7039093E+002
3	0	2.240536560247056E+003	2.1783985E-001	-2.7037677E+002
3	0	2.241036560234425E+003	2.1779908E-001	-2.7038742E+002
3	0	2.241536560221793E+003	2.1775448E-001	-2.7038385E+002
3	0	2.242036560209162E+003	2.1770619E-001	-2.7038742E+002
3	0	2.242536560196531E+003	2.1765614E-001	-2.7036618E+002
3	0	2.243036560183900E+003	2.1757340E-001	-2.7036618E+002
3	0	2.243536560171269E+003	2.1748193E-001	-2.7037326E+002
3	0	2.244036560158638E+003	2.1743707E-001	-2.7038742E+002
3	0	2.244536560146007E+003	2.1740572E-001	-2.7038385E+002
3	0	2.245036560133376E+003	2.1736681E-001	-2.7039447E+002
3	0	2.245536560120745E+003	2.1732965E-001	-2.7036972E+002
3	0	2.246036560108114E+003	2.1728911E-001	-2.7035913E+002
3	0	2.246536560095483E+003	2.1723618E-001	-2.7038031E+002
3	0	2.247036560082852E+003	2.1715812E-001	-2.7039447E+002
3	0	2.247536560070221E+003	2.1706869E-001	-2.7039447E+002
3	0	2.248036560057590E+003	2.1701694E-001	-2.7036267E+002
3	0	2.248536560044959E+003	2.1698914E-001	-2.7038385E+002
3	0	2.249036560032328E+003	2.1695182E-001	-2.7035913E+002
3	0	2.249536560019696E+003	2.1691012E-001	-2.7035559E+002
3	0	2.250036560007065E+003	2.1687235E-001	-2.7036267E+002
3	0	2.250536559994434E+003	2.1682538E-001	-2.7037326E+002
3	0	2.251036559981803E+003	2.1674259E-001	-2.7038742E+002
3	0	2.251536559969172E+003	2.1665284E-001	-2.7038385E+002
3	0	2.252036559956541E+003	2.1660931E-001	-2.7038742E+002
3	0	2.252536559943910E+003	2.1657330E-001	-2.7038031E+002
3	0	2.253036559931279E+003	2.1653022E-001	-2.7037677E+002
3	0	2.253536559918648E+003	2.1648854E-001	-2.7040860E+002
3	0	2.254036559906017E+003	2.1644200E-001	-2.7036972E+002
3	0	2.254536559893386E+003	2.1638165E-001	-2.7039447E+002
3	0	2.255036559880755E+003	2.1629958E-001	-2.7039801E+002
3	0	2.255536559868124E+003	2.1620448E-001	-2.7036267E+002
3	0	2.256036559855493E+003	2.1615829E-001	-2.7036972E+002
3	0	2.256536559842862E+003	2.1612328E-001	-2.7035913E+002
3	0	2.256562159842215E+003	2.1609885E-001	-2.7039447E+002