EC-Lab ASCII FILE
Nb header lines : 48                          

Open Circuit Voltage

Run on channel : 1 (SN 81504)
User : 
CE vs. WE compliance from -10 V to 10 V
Electrode connection : standard
Potential control : Ewe
Ewe ctrl range : min = -2.50 V, max = 2.50 V
Safety Limits :
	Do not start on E overload
Acquisition started on : 05/07/2026 20:50:15.926
Loaded Setting File :  C:\PEM-WE_measurements\2026\372_IV_IV IrOx, 5 min Pt, 30 min C, etched cathode\new station\Loopeis new\1,46 V different time gaps open cell\Loopeis 1,46V_120s_2_PEIS from 65kHz to 10kHz.mps
Saved on :
	File : L_22_Loopeis 1,46V_120s_2_PEIS from 65kHz to 10kHz_14_OCV_C01.mpr
	Directory : C:\PEM-WE_measurements\2026\372_IV_IV IrOx, 5 min Pt, 30 min C, etched cathode\new station\Loopeis new\1,46 V different time gaps open cell\
	Host : 192.168.0.2
Device : SP-150e (SN .005491)
Address : 192.168.0.91
EC-LAB for windows v11.71 (software)
Internet server v28.00 (firmware)
Command interpretor v14.01 (firmware)
Electrode material : 
Initial state : 
Electrolyte : 
Comments : 
Current amplifier : SP-150eB-20A
Electrode surface area : 0.001 cm²
Characteristic mass : 0.001 g
Equivalent Weight : 0.000 g/eq.
Density : 0.000 g/cm3
Volume (V) : 0.001 cm³
Record Analogic IN 1
Text export
   Mode : Standard
   Time format : Elapsed
Cycle Definition : Charge/Discharge alternance
tR (h:m:s)          0:02:0.0000         
dER/dt (mV/h)       1.0                 
record              <Ewe>               
dER (mV)            10.00               
dtR (s)             0.5000              
E range min (V)     -2.500              
E range max (V)     2.500               

mode	error	time/s	<Ewe/V>	Analog IN 1/V	
3	0	1.035515183663956E+003	1.2326024E+000	3.8648941E-006
3	0	1.036015183651325E+003	1.1943538E+000	-5.3391734E-005
3	0	1.036515183638694E+003	9.2684865E-001	3.8648941E-006
3	0	1.037015183626063E+003	4.6868327E-001	-5.3391734E-005
3	0	1.037515183613432E+003	3.4946752E-001	-1.1064836E-004
3	0	1.038015183600801E+003	3.3378956E-001	4.2035979E-005
3	0	1.038515183588170E+003	3.2565135E-001	-1.2973390E-004
3	0	1.039015183575539E+003	3.1910944E-001	-9.1562819E-005
3	0	1.039515183562908E+003	3.1411299E-001	-7.2477276E-005
3	0	1.040015183550277E+003	3.1030700E-001	-7.2477276E-005
3	0	1.040515183537646E+003	3.0733114E-001	-3.4306191E-005
3	0	1.041015183525014E+003	3.0493203E-001	-7.2477276E-005
3	0	1.041515183512383E+003	3.0296481E-001	3.8648941E-006
3	0	1.042015183499752E+003	3.0129400E-001	-1.8699054E-004
3	0	1.042515183487121E+003	2.9983452E-001	3.8648941E-006
3	0	1.043015183474490E+003	2.9854500E-001	3.8648941E-006
3	0	1.043515183461859E+003	2.9740950E-001	-9.1562819E-005
3	0	1.044015183449228E+003	2.9639640E-001	-1.1064836E-004
3	0	1.044515183436597E+003	2.9547152E-001	3.8648941E-006
3	0	1.045015183423966E+003	2.9460704E-001	-3.4306191E-005
3	0	1.045515183411335E+003	2.9379460E-001	-1.2973390E-004
3	0	1.046015183398704E+003	2.9302236E-001	3.8648941E-006
3	0	1.046515183386073E+003	2.9226330E-001	2.2950437E-005
3	0	1.047015183373442E+003	2.9151115E-001	3.8648941E-006
3	0	1.047515183360811E+003	2.9081282E-001	-2.0607607E-004
3	0	1.048015183348180E+003	2.9016119E-001	8.0207064E-005
3	0	1.048515183335549E+003	2.8952065E-001	-1.5220648E-005
3	0	1.049015183322917E+003	2.8890055E-001	-7.2477276E-005
3	0	1.049515183310286E+003	2.8829491E-001	-7.2477276E-005
3	0	1.050015183297655E+003	2.8769082E-001	-3.4306191E-005
3	0	1.050515183285024E+003	2.8708512E-001	-1.2973390E-004
3	0	1.051015183272393E+003	2.8647259E-001	-7.2477276E-005
3	0	1.051515183259762E+003	2.8589040E-001	-1.8699054E-004
3	0	1.052015183247131E+003	2.8534740E-001	1.1837815E-004
3	0	1.052515183234500E+003	2.8480256E-001	3.8648941E-006
3	0	1.053015183221869E+003	2.8426361E-001	-3.4306191E-005
3	0	1.053515183209238E+003	2.8373218E-001	3.8648941E-006
3	0	1.054015183196607E+003	2.8320438E-001	-3.4306191E-005
3	0	1.054515183183976E+003	2.8265351E-001	-3.4306191E-005
3	0	1.055015183171345E+003	2.8210193E-001	-5.3391734E-005
3	0	1.055515183158714E+003	2.8157616E-001	2.2950437E-005
3	0	1.056015183146083E+003	2.8107461E-001	6.1121522E-005
3	0	1.056515183133452E+003	2.8057718E-001	-1.2973390E-004
3	0	1.057015183120820E+003	2.8007692E-001	3.8648941E-006
3	0	1.057515183108189E+003	2.7958623E-001	-1.8699054E-004
3	0	1.058015183095558E+003	2.7910009E-001	-1.5220648E-005
3	0	1.058515183082927E+003	2.7859750E-001	-1.2973390E-004
3	0	1.059015183070296E+003	2.7807933E-001	-5.3391734E-005
3	0	1.059515183057665E+003	2.7759257E-001	-1.5220648E-005
3	0	1.060015183045034E+003	2.7713296E-001	-5.3391734E-005
3	0	1.060515183032403E+003	2.7667284E-001	-5.3391734E-005
3	0	1.061015183019772E+003	2.7621248E-001	-5.3391734E-005
3	0	1.061515183007141E+003	2.7576602E-001	-1.1064836E-004
3	0	1.062015182994510E+003	2.7530774E-001	-3.4306191E-005
3	0	1.062515182981879E+003	2.7483773E-001	2.2950437E-005
3	0	1.063015182969248E+003	2.7436730E-001	-7.2477276E-005
3	0	1.063515182956617E+003	2.7391943E-001	4.2035979E-005
3	0	1.064015182943986E+003	2.7349037E-001	-5.3391734E-005
3	0	1.064515182931355E+003	2.7306530E-001	-7.2477276E-005
3	0	1.065015182918723E+003	2.7263680E-001	-5.3391734E-005
3	0	1.065515182906092E+003	2.7222940E-001	3.8648941E-006
3	0	1.066015182893461E+003	2.7181098E-001	4.2035979E-005
3	0	1.066515182880830E+003	2.7136794E-001	-1.5220648E-005
3	0	1.067015182868199E+003	2.7091613E-001	3.8648941E-006
3	0	1.067515182855568E+003	2.7050006E-001	2.2950437E-005
3	0	1.068015182842937E+003	2.7010614E-001	-9.1562819E-005
3	0	1.068515182830306E+003	2.6972005E-001	-1.1064836E-004
3	0	1.069015182817675E+003	2.6933125E-001	-1.4881945E-004
3	0	1.069515182805044E+003	2.6895002E-001	3.8648941E-006
3	0	1.070015182792413E+003	2.6855665E-001	-7.2477276E-005
3	0	1.070515182779782E+003	2.6815560E-001	4.2035979E-005
3	0	1.071015182767151E+003	2.6774085E-001	3.8648941E-006
3	0	1.071515182754520E+003	2.6735672E-001	2.2950437E-005
3	0	1.072015182741889E+003	2.6700363E-001	-3.4306191E-005
3	0	1.072515182729258E+003	2.6664549E-001	2.2950437E-005
3	0	1.073015182716626E+003	2.6628351E-001	-5.3391734E-005
3	0	1.073515182703995E+003	2.6593319E-001	-9.1562819E-005
3	0	1.074015182691364E+003	2.6558238E-001	-1.4881945E-004
3	0	1.074515182678733E+003	2.6520136E-001	-3.4306191E-005
3	0	1.075015182666102E+003	2.6482177E-001	-1.5220648E-005
3	0	1.075515182653471E+003	2.6447889E-001	-1.2973390E-004
3	0	1.076015182640840E+003	2.6415026E-001	4.2035979E-005
3	0	1.076515182628209E+003	2.6382440E-001	-3.4306191E-005
3	0	1.077015182615578E+003	2.6349649E-001	-1.1064836E-004
3	0	1.077515182602947E+003	2.6317948E-001	2.2950437E-005
3	0	1.078015182590316E+003	2.6285344E-001	-1.2973390E-004
3	0	1.078515182577685E+003	2.6251096E-001	-7.2477276E-005
3	0	1.079015182565054E+003	2.6215422E-001	-3.4306191E-005
3	0	1.079515182552423E+003	2.6183599E-001	2.2950437E-005
3	0	1.080015182539792E+003	2.6153728E-001	-1.5220648E-005
3	0	1.080515182527161E+003	2.6124036E-001	-7.2477276E-005
3	0	1.081015182514529E+003	2.6094168E-001	-1.5220648E-005
3	0	1.081515182501898E+003	2.6065201E-001	4.2035979E-005
3	0	1.082015182489267E+003	2.6035008E-001	-7.2477276E-005
3	0	1.082515182476636E+003	2.6003450E-001	-7.2477276E-005
3	0	1.083015182464005E+003	2.5971249E-001	-9.1562819E-005
3	0	1.083515182451374E+003	2.5942060E-001	3.8648941E-006
3	0	1.084015182438743E+003	2.5915304E-001	-3.4306191E-005
3	0	1.084515182426112E+003	2.5888163E-001	-1.1064836E-004
3	0	1.085015182413481E+003	2.5860688E-001	-3.4306191E-005
3	0	1.085515182400850E+003	2.5833508E-001	-9.1562819E-005
3	0	1.086015182388219E+003	2.5805625E-001	6.1121522E-005
3	0	1.086515182375588E+003	2.5776315E-001	-7.2477276E-005
3	0	1.087015182362957E+003	2.5745451E-001	-5.3391734E-005
3	0	1.087515182350326E+003	2.5718370E-001	4.2035979E-005
3	0	1.088015182337695E+003	2.5693506E-001	6.1121522E-005
3	0	1.088515182325064E+003	2.5668564E-001	4.2035979E-005
3	0	1.089015182312432E+003	2.5643125E-001	-1.5220648E-005
3	0	1.089515182299801E+003	2.5618759E-001	-1.2973390E-004
3	0	1.090015182287170E+003	2.5593552E-001	-9.1562819E-005
3	0	1.090515182274539E+003	2.5566855E-001	-3.4306191E-005
3	0	1.091015182261908E+003	2.5538799E-001	4.2035979E-005
3	0	1.091515182249277E+003	2.5514364E-001	-1.2973390E-004
3	0	1.092015182236646E+003	2.5492117E-001	-3.4306191E-005
3	0	1.092515182224015E+003	2.5469229E-001	-1.1064836E-004
3	0	1.093015182211384E+003	2.5446731E-001	-7.2477276E-005
3	0	1.093515182198753E+003	2.5424889E-001	4.2035979E-005
3	0	1.094015182186122E+003	2.5402212E-001	-9.1562819E-005
3	0	1.094515182173491E+003	2.5377280E-001	-7.2477276E-005
3	0	1.095015182160860E+003	2.5351617E-001	4.2035979E-005
3	0	1.095515182148229E+003	2.5328830E-001	3.8648941E-006
3	0	1.096015182135598E+003	2.5308967E-001	-1.1064836E-004
3	0	1.096515182122967E+003	2.5288886E-001	-1.4881945E-004
3	0	1.097015182110335E+003	2.5268579E-001	9.9292607E-005
3	0	1.097515182097704E+003	2.5248432E-001	2.2950437E-005
3	0	1.098015182085073E+003	2.5227502E-001	-1.5220648E-005
3	0	1.098515182072442E+003	2.5204399E-001	-2.2516162E-004
3	0	1.099015182059811E+003	2.5180185E-001	-7.2477276E-005
3	0	1.099515182047180E+003	2.5160241E-001	6.1121522E-005
3	0	1.100015182034549E+003	2.5141373E-001	-5.3391734E-005
3	0	1.100515182021918E+003	2.5122681E-001	3.8648941E-006
3	0	1.101015182009287E+003	2.5103396E-001	3.8648941E-006
3	0	1.101515181996656E+003	2.5084844E-001	-7.2477276E-005
3	0	1.102015181984025E+003	2.5065339E-001	-1.6790499E-004
3	0	1.102515181971394E+003	2.5045019E-001	-5.3391734E-005
3	0	1.103015181958763E+003	2.5022584E-001	3.8648941E-006
3	0	1.103515181946132E+003	2.5003484E-001	-1.2973390E-004
3	0	1.104015181933501E+003	2.4986778E-001	-7.2477276E-005
3	0	1.104515181920870E+003	2.4970403E-001	-5.3391734E-005
3	0	1.105015181908238E+003	2.4952753E-001	8.0207064E-005
3	0	1.105515181895607E+003	2.4935599E-001	4.2035979E-005
3	0	1.106015181882976E+003	2.4917980E-001	6.1121522E-005
3	0	1.106515181870345E+003	2.4897687E-001	9.9292607E-005
3	0	1.107015181857714E+003	2.4876663E-001	4.2035979E-005
3	0	1.107515181845083E+003	2.4858925E-001	3.8648941E-006
3	0	1.108015181832452E+003	2.4843204E-001	-1.2973390E-004
3	0	1.108515181819821E+003	2.4827012E-001	-1.2973390E-004
3	0	1.109015181807190E+003	2.4811246E-001	-7.2477276E-005
3	0	1.109515181794559E+003	2.4795672E-001	-3.4306191E-005
3	0	1.110015181781928E+003	2.4778830E-001	-5.3391734E-005
3	0	1.110515181769297E+003	2.4760169E-001	-3.4306191E-005
3	0	1.111015181756666E+003	2.4740718E-001	-1.5220648E-005
3	0	1.111515181744035E+003	2.4723676E-001	-3.4306191E-005
3	0	1.112015181731404E+003	2.4709417E-001	-3.4306191E-005
3	0	1.112515181718773E+003	2.4694823E-001	-1.4881945E-004
3	0	1.113015181706141E+003	2.4680527E-001	-5.3391734E-005
3	0	1.113515181693510E+003	2.4666706E-001	-9.1562819E-005
3	0	1.114015181680879E+003	2.4651831E-001	3.8648941E-006
3	0	1.114515181668248E+003	2.4635094E-001	6.1121522E-005
3	0	1.115015181655617E+003	2.4616051E-001	-1.1064836E-004
3	0	1.115515181642986E+003	2.4600998E-001	-9.1562819E-005
3	0	1.116015181630355E+003	2.4588263E-001	-2.0607607E-004
3	0	1.116515181617724E+003	2.4575409E-001	-1.1064836E-004
3	0	1.117015181605093E+003	2.4562007E-001	2.2950437E-005
3	0	1.117515181592462E+003	2.4549080E-001	3.8648941E-006
3	0	1.118015181579831E+003	2.4534696E-001	-7.2477276E-005
3	0	1.118515181567200E+003	2.4517728E-001	-5.3391734E-005
3	0	1.119015181554569E+003	2.4499843E-001	3.8648941E-006
3	0	1.119515181541938E+003	2.4485277E-001	4.2035979E-005
3	0	1.120015181529307E+003	2.4472824E-001	1.5654923E-004
3	0	1.120515181516676E+003	2.4460036E-001	-5.3391734E-005
3	0	1.121015181504044E+003	2.4447688E-001	-9.1562819E-005
3	0	1.121515181491413E+003	2.4434811E-001	2.2950437E-005
3	0	1.122015181478782E+003	2.4421112E-001	2.2950437E-005
3	0	1.122515181466151E+003	2.4405444E-001	4.2035979E-005
3	0	1.123015181453520E+003	2.4388374E-001	-5.3391734E-005
3	0	1.123515181440889E+003	2.4375512E-001	-9.1562819E-005
3	0	1.124015181428258E+003	2.4363746E-001	6.1121522E-005
3	0	1.124515181415627E+003	2.4352074E-001	-3.4306191E-005
3	0	1.125015181402996E+003	2.4340282E-001	1.5654923E-004
3	0	1.125515181390365E+003	2.4328297E-001	-7.2477276E-005
3	0	1.126015181377734E+003	2.4315540E-001	8.0207064E-005
3	0	1.126515181365103E+003	2.4301203E-001	3.8648941E-006
3	0	1.127015181352472E+003	2.4284789E-001	-5.3391734E-005
3	0	1.127515181339841E+003	2.4271917E-001	-5.3391734E-005
3	0	1.128015181327210E+003	2.4260531E-001	-5.3391734E-005
3	0	1.128515181314579E+003	2.4249358E-001	-3.4306191E-005
3	0	1.129015181301947E+003	2.4237865E-001	3.8648941E-006
3	0	1.129515181289316E+003	2.4226473E-001	-1.4881945E-004
3	0	1.130015181276685E+003	2.4214774E-001	3.8648941E-006
3	0	1.130515181264054E+003	2.4201088E-001	-1.2973390E-004
3	0	1.131015181251423E+003	2.4186452E-001	4.2035979E-005
3	0	1.131515181238792E+003	2.4174745E-001	9.9292607E-005
3	0	1.132015181226161E+003	2.4164674E-001	9.9292607E-005
3	0	1.132515181213530E+003	2.4155584E-001	-7.2477276E-005
3	0	1.133015181200899E+003	2.4145816E-001	4.2035979E-005
3	0	1.133515181188268E+003	2.4135619E-001	-9.1562819E-005
3	0	1.134015181175637E+003	2.4124484E-001	3.8648941E-006
3	0	1.134515181163006E+003	2.4111459E-001	-1.1064836E-004
3	0	1.135015181150375E+003	2.4096845E-001	8.0207064E-005
3	0	1.135515181137744E+003	2.4086425E-001	-1.2973390E-004
3	0	1.136015181125113E+003	2.4077602E-001	-7.2477276E-005
3	0	1.136515181112482E+003	2.4068065E-001	-7.2477276E-005
3	0	1.137015181099850E+003	2.4058792E-001	-3.4306191E-005
3	0	1.137515181087219E+003	2.4049698E-001	-3.4306191E-005
3	0	1.138015181074588E+003	2.4039988E-001	-9.1562819E-005
3	0	1.138515181061957E+003	2.4027635E-001	-7.2477276E-005
3	0	1.139015181049326E+003	2.4014407E-001	-5.3391734E-005
3	0	1.139515181036695E+003	2.4004181E-001	-7.2477276E-005
3	0	1.140015181024064E+003	2.3995420E-001	-3.4306191E-005
3	0	1.140515181011433E+003	2.3986994E-001	-1.1064836E-004
3	0	1.141015180998802E+003	2.3977999E-001	3.8648941E-006
3	0	1.141515180986171E+003	2.3968995E-001	-1.2973390E-004
3	0	1.142015180973540E+003	2.3959605E-001	-1.5220648E-005
3	0	1.142515180960909E+003	2.3948254E-001	-3.4306191E-005
3	0	1.143015180948278E+003	2.3934893E-001	-1.2973390E-004
3	0	1.143515180935647E+003	2.3924635E-001	-5.3391734E-005
3	0	1.144015180923016E+003	2.3916847E-001	-3.4306191E-005
3	0	1.144515180910385E+003	2.3908436E-001	-9.1562819E-005
3	0	1.145015180897753E+003	2.3900405E-001	-1.5220648E-005
3	0	1.145515180885122E+003	2.3891801E-001	-7.2477276E-005
3	0	1.146015180872491E+003	2.3882876E-001	2.2950437E-005
3	0	1.146515180859860E+003	2.3871157E-001	-2.0607607E-004
3	0	1.147015180847229E+003	2.3858388E-001	-7.2477276E-005
3	0	1.147515180834598E+003	2.3848934E-001	-7.2477276E-005
3	0	1.148015180821967E+003	2.3841165E-001	-9.1562819E-005
3	0	1.148515180809336E+003	2.3832567E-001	-7.2477276E-005
3	0	1.149015180796705E+003	2.3824635E-001	-2.4424717E-004
3	0	1.149515180784074E+003	2.3816715E-001	-5.3391734E-005
3	0	1.150015180771443E+003	2.3807877E-001	-9.1562819E-005
3	0	1.150515180758812E+003	2.3796241E-001	-5.3391734E-005
3	0	1.151015180746181E+003	2.3784518E-001	-1.2973390E-004
3	0	1.151515180733550E+003	2.3775727E-001	-7.2477276E-005
3	0	1.152015180720919E+003	2.3768693E-001	-1.2973390E-004
3	0	1.152515180708288E+003	2.3760709E-001	-2.0607607E-004
3	0	1.153015180695656E+003	2.3752658E-001	8.0207064E-005
3	0	1.153515180683025E+003	2.3745023E-001	-3.4306191E-005
3	0	1.154015180670394E+003	2.3736444E-001	-1.1064836E-004
3	0	1.154515180657763E+003	2.3726434E-001	8.0207064E-005
3	0	1.155015180645132E+003	2.3714815E-001	-7.2477276E-005
3	0	1.155015580645122E+003	2.3710570E-001	-1.6790499E-004