EC-Lab ASCII FILE
Nb header lines : 55                          

Open Circuit Voltage

Run on channel : 1 (SN 81504)
User : 
CE vs. WE compliance from -10 V to 10 V
Electrode connection : standard
Potential control : Ewe
Ewe ctrl range : min = -2.50 V, max = 2.50 V
Safety Limits :
	Do not start on E overload
Acquisition started on : 05/10/2026 00:12:25.049
Loaded Setting File :  C:\PEM-WE_measurements\2026\372_IV_IV IrOx, 5 min Pt, 30 min C, etched cathode\new station\Loopeis new\1,46 V different time gaps closed cell\Loopeis 1,46V_30s_5_PEIS from 65Hz to 10Hz.mps
Saved on :
	File : L_05_Loopeis 1,46V_30s_5_PEIS from 65Hz to 10Hz_10_OCV_C01.mpr
	Directory : C:\PEM-WE_measurements\2026\372_IV_IV IrOx, 5 min Pt, 30 min C, etched cathode\new station\Loopeis new\1,46 V different time gaps closed cell\
	Host : 192.168.0.2
Device : SP-150e (SN .005491)
Address : 192.168.0.91
EC-LAB for windows v11.71 (software)
Internet server v28.00 (firmware)
Command interpretor v14.01 (firmware)
Electrode material : 
Initial state : 
Electrolyte : 
Comments : 
Current amplifier : SP-150eB-20A
Electrode surface area : 0.001 cm²
Characteristic mass : 0.001 g
Equivalent Weight : 0.000 g/eq.
Density : 0.000 g/cm3
Volume (V) : 0.001 cm³
Record Analogic IN 1
Text export
   Mode : Standard
   Time format : Elapsed
Cycle Definition : Charge/Discharge alternance
External device configuration :
   device type : Temperature Probe
   device name : Other
   Analog IN 1 : 
      unit : T/Â°C
      max : 100.000 at 2.000 V
      min : 0.000 at 1.460 V
tR (h:m:s)          0:00:30.0000        
dER/dt (mV/h)       1.0                 
record              <Ewe>               
dER (mV)            10.00               
dtR (s)             0.5000              
E range min (V)     -2.500              
E range max (V)     2.500               

mode	error	time/s	<Ewe/V>	Analog IN 1/V	
3	0	3.460183978446730E+002	1.4202362E+000	-2.7037677E+002
3	0	3.465183978320420E+002	1.4122463E+000	-2.7036972E+002
3	0	3.470183978194109E+002	1.4068471E+000	-2.7036618E+002
3	0	3.475183978067798E+002	1.4029305E+000	-2.7038031E+002
3	0	3.480183977941488E+002	1.3998263E+000	-2.7038385E+002
3	0	3.485183977815177E+002	1.3972669E+000	-2.7039093E+002
3	0	3.490183977688866E+002	1.3950740E+000	-2.7035205E+002
3	0	3.495183977562556E+002	1.3931085E+000	-2.7036618E+002
3	0	3.500183977436245E+002	1.3912762E+000	-2.7037326E+002
3	0	3.505183977309935E+002	1.3896066E+000	-2.7038742E+002
3	0	3.510183977183624E+002	1.3881440E+000	-2.7036972E+002
3	0	3.515183977057313E+002	1.3868043E+000	-2.7038385E+002
3	0	3.520183976931003E+002	1.3855709E+000	-2.7034851E+002
3	0	3.525183976804692E+002	1.3844284E+000	-2.7037677E+002
3	0	3.530183976678381E+002	1.3833573E+000	-2.7037326E+002
3	0	3.535183976552071E+002	1.3823144E+000	-2.7039093E+002
3	0	3.540183976425760E+002	1.3812560E+000	-2.7038742E+002
3	0	3.545183976299450E+002	1.3802384E+000	-2.7036618E+002
3	0	3.550183976173139E+002	1.3793381E+000	-2.7037326E+002
3	0	3.555183976046828E+002	1.3784763E+000	-2.7036972E+002
3	0	3.560183975920518E+002	1.3776600E+000	-2.7041214E+002
3	0	3.565183975794207E+002	1.3768775E+000	-2.7035913E+002
3	0	3.570183975667896E+002	1.3761314E+000	-2.7039093E+002
3	0	3.575183975541586E+002	1.3753735E+000	-2.7037677E+002
3	0	3.580183975415275E+002	1.3745867E+000	-2.7038031E+002
3	0	3.585183975288965E+002	1.3738179E+000	-2.7038031E+002
3	0	3.590183975162654E+002	1.3731450E+000	-2.7037326E+002
3	0	3.595183975036343E+002	1.3724794E+000	-2.7035205E+002
3	0	3.600183974910033E+002	1.3718364E+000	-2.7039447E+002
3	0	3.605183974783722E+002	1.3712174E+000	-2.7036618E+002
3	0	3.610183974657411E+002	1.3706138E+000	-2.7037677E+002
3	0	3.615183974531101E+002	1.3699869E+000	-2.7039447E+002
3	0	3.620183974404790E+002	1.3693113E+000	-2.7038385E+002
3	0	3.625183974278480E+002	1.3686420E+000	-2.7037326E+002
3	0	3.630183974152169E+002	1.3680643E+000	-2.7039093E+002
3	0	3.635183974025858E+002	1.3674802E+000	-2.7039093E+002
3	0	3.640183973899548E+002	1.3669109E+000	-2.7038385E+002
3	0	3.645183973773237E+002	1.3663398E+000	-2.7036618E+002
3	0	3.650183973646926E+002	1.3657964E+000	-2.7035559E+002
3	0	3.655183973520616E+002	1.3652120E+000	-2.7040860E+002
3	0	3.660183973394305E+002	1.3645838E+000	-2.7036267E+002
3	0	3.665183973267995E+002	1.3639570E+000	-2.7038742E+002
3	0	3.670183973141684E+002	1.3634112E+000	-2.7036618E+002
3	0	3.675183973015373E+002	1.3628514E+000	-2.7036267E+002
3	0	3.680183972889063E+002	1.3622955E+000	-2.7038031E+002
3	0	3.685183972762752E+002	1.3617539E+000	-2.7039093E+002
3	0	3.690183972636441E+002	1.3612063E+000	-2.7039447E+002
3	0	3.695183972510131E+002	1.3606288E+000	-2.7039093E+002
3	0	3.700183972383820E+002	1.3599869E+000	-2.7038031E+002
3	0	3.705183972257510E+002	1.3593566E+000	-2.7036618E+002
3	0	3.710183972131199E+002	1.3587829E+000	-2.7037326E+002
3	0	3.715183972004888E+002	1.3582090E+000	-2.7039801E+002
3	0	3.720183971878578E+002	1.3576413E+000	-2.7036972E+002
3	0	3.725183971752267E+002	1.3570895E+000	-2.7037326E+002
3	0	3.730183971625956E+002	1.3565381E+000	-2.7037677E+002
3	0	3.735183971499646E+002	1.3559427E+000	-2.7036267E+002
3	0	3.740183971373335E+002	1.3552938E+000	-2.7039801E+002
3	0	3.745183971247025E+002	1.3546556E+000	-2.7038385E+002
3	0	3.750183971120714E+002	1.3540894E+000	-2.7038385E+002
3	0	3.755183970994403E+002	1.3535154E+000	-2.7037677E+002
3	0	3.755187970994302E+002	1.3531640E+000	-2.7040155E+002