EC-Lab ASCII FILE
Nb header lines : 55                          

Open Circuit Voltage

Run on channel : 1 (SN 81504)
User : 
CE vs. WE compliance from -10 V to 10 V
Electrode connection : standard
Potential control : Ewe
Ewe ctrl range : min = -2.50 V, max = 2.50 V
Safety Limits :
	Do not start on E overload
Acquisition started on : 05/10/2026 03:03:02.549
Loaded Setting File :  C:\PEM-WE_measurements\2026\372_IV_IV IrOx, 5 min Pt, 30 min C, etched cathode\new station\Loopeis new\1,46 V different time gaps closed cell\Loopeis 1,46V_60s_5_PEIS from 65Hz to 10Hz.mps
Saved on :
	File : L_15_Loopeis 1,46V_60s_5_PEIS from 65Hz to 10Hz_02_OCV_C01.mpr
	Directory : C:\PEM-WE_measurements\2026\372_IV_IV IrOx, 5 min Pt, 30 min C, etched cathode\new station\Loopeis new\1,46 V different time gaps closed cell\
	Host : 192.168.0.2
Device : SP-150e (SN .005491)
Address : 192.168.0.91
EC-LAB for windows v11.71 (software)
Internet server v28.00 (firmware)
Command interpretor v14.01 (firmware)
Electrode material : 
Initial state : 
Electrolyte : 
Comments : 
Current amplifier : SP-150eB-20A
Electrode surface area : 0.001 cm²
Characteristic mass : 0.001 g
Equivalent Weight : 0.000 g/eq.
Density : 0.000 g/cm3
Volume (V) : 0.001 cm³
Record Analogic IN 1
Text export
   Mode : Standard
   Time format : Elapsed
Cycle Definition : Charge/Discharge alternance
External device configuration :
   device type : Temperature Probe
   device name : Other
   Analog IN 1 : 
      unit : T/Â°C
      max : 100.000 at 2.000 V
      min : 0.000 at 1.460 V
tR (h:m:s)          0:01:0.0000         
dER/dt (mV/h)       1.0                 
record              <Ewe>               
dER (mV)            10.00               
dtR (s)             0.5000              
E range min (V)     -2.500              
E range max (V)     2.500               

mode	error	time/s	<Ewe/V>	Analog IN 1/V	
3	0	4.549979885057837E+001	1.4145383E+000	-2.7036972E+002
3	0	4.599979883794731E+001	1.4051096E+000	-2.7039093E+002
3	0	4.649979882531625E+001	1.3988705E+000	-2.7040506E+002
3	0	4.699979881268519E+001	1.3942499E+000	-2.7038031E+002
3	0	4.749979880005412E+001	1.3904411E+000	-2.7036618E+002
3	0	4.799979878742306E+001	1.3871136E+000	-2.7038031E+002
3	0	4.849979877479200E+001	1.3842524E+000	-2.7035559E+002
3	0	4.899979876216094E+001	1.3817416E+000	-2.7037677E+002
3	0	4.949979874952987E+001	1.3794606E+000	-2.7035913E+002
3	0	4.999979873689881E+001	1.3773714E+000	-2.7038742E+002
3	0	5.049979872426775E+001	1.3754526E+000	-2.7036267E+002
3	0	5.099979871163669E+001	1.3736414E+000	-2.7039447E+002
3	0	5.149979869900562E+001	1.3718662E+000	-2.7038031E+002
3	0	5.199979868637456E+001	1.3701293E+000	-2.7039093E+002
3	0	5.249979867374350E+001	1.3685561E+000	-2.7038385E+002
3	0	5.299979866111244E+001	1.3671243E+000	-2.7036972E+002
3	0	5.349979864848137E+001	1.3657684E+000	-2.7037326E+002
3	0	5.399979863585031E+001	1.3644959E+000	-2.7037326E+002
3	0	5.449979862321925E+001	1.3632843E+000	-2.7038031E+002
3	0	5.499979861058819E+001	1.3621132E+000	-2.7038742E+002
3	0	5.549979859795712E+001	1.3609362E+000	-2.7035913E+002
3	0	5.599979858532606E+001	1.3597667E+000	-2.7039447E+002
3	0	5.649979857269500E+001	1.3587288E+000	-2.7035913E+002
3	0	5.699979856006394E+001	1.3577907E+000	-2.7038385E+002
3	0	5.749979854743287E+001	1.3568934E+000	-2.7038031E+002
3	0	5.799979853480181E+001	1.3560420E+000	-2.7036267E+002
3	0	5.849979852217075E+001	1.3552502E+000	-2.7037677E+002
3	0	5.899979850953969E+001	1.3544720E+000	-2.7038385E+002
3	0	5.949979849690862E+001	1.3536730E+000	-2.7036972E+002
3	0	5.999979848427756E+001	1.3528596E+000	-2.7036972E+002
3	0	6.049979847164650E+001	1.3521825E+000	-2.7041214E+002
3	0	6.099979845901544E+001	1.3516177E+000	-2.7040506E+002
3	0	6.149979844638438E+001	1.3510954E+000	-2.7037326E+002
3	0	6.199979843375331E+001	1.3506244E+000	-2.7037677E+002
3	0	6.249979842112225E+001	1.3501989E+000	-2.7038031E+002
3	0	6.299979840849119E+001	1.3497869E+000	-2.7038742E+002
3	0	6.349979839586013E+001	1.3493184E+000	-2.7036267E+002
3	0	6.399979838322906E+001	1.3488181E+000	-2.7038385E+002
3	0	6.449979837059800E+001	1.3484387E+000	-2.7038031E+002
3	0	6.499979835796694E+001	1.3481270E+000	-2.7035559E+002
3	0	6.549979834533588E+001	1.3478270E+000	-2.7039093E+002
3	0	6.599979833270481E+001	1.3475432E+000	-2.7038385E+002
3	0	6.649979832007375E+001	1.3472751E+000	-2.7038385E+002
3	0	6.699979830744269E+001	1.3470001E+000	-2.7038742E+002
3	0	6.749979829481163E+001	1.3466498E+000	-2.7036972E+002
3	0	6.799979828218056E+001	1.3462508E+000	-2.7035913E+002
3	0	6.849979826954950E+001	1.3459450E+000	-2.7035913E+002
3	0	6.899979825691844E+001	1.3456969E+000	-2.7036972E+002
3	0	6.949979824428738E+001	1.3454416E+000	-2.7038742E+002
3	0	6.999979823165631E+001	1.3451811E+000	-2.7039447E+002
3	0	7.049979821902525E+001	1.3449229E+000	-2.7036267E+002
3	0	7.099979820639419E+001	1.3446339E+000	-2.7038742E+002
3	0	7.149979819376313E+001	1.3442822E+000	-2.7039093E+002
3	0	7.199979818113206E+001	1.3438771E+000	-2.7040155E+002
3	0	7.249979816850100E+001	1.3435502E+000	-2.7039447E+002
3	0	7.299979815586994E+001	1.3432819E+000	-2.7037326E+002
3	0	7.349979814323888E+001	1.3430096E+000	-2.7034497E+002
3	0	7.399979813060781E+001	1.3427248E+000	-2.7039093E+002
3	0	7.449979811797675E+001	1.3424460E+000	-2.7037326E+002
3	0	7.499979810534569E+001	1.3421444E+000	-2.7039447E+002
3	0	7.549979809271463E+001	1.3417648E+000	-2.7037326E+002
3	0	7.599979808008356E+001	1.3413408E+000	-2.7037326E+002
3	0	7.649979806745250E+001	1.3409960E+000	-2.7038385E+002
3	0	7.699979805482144E+001	1.3407066E+000	-2.7038742E+002
3	0	7.749979804219038E+001	1.3404056E+000	-2.7037677E+002
3	0	7.799979802955932E+001	1.3401078E+000	-2.7037677E+002
3	0	7.849979801692825E+001	1.3398123E+000	-2.7037326E+002
3	0	7.899979800429719E+001	1.3395158E+000	-2.7038742E+002
3	0	7.949979799166613E+001	1.3391426E+000	-2.7039093E+002
3	0	7.999979797903507E+001	1.3387187E+000	-2.7039093E+002
3	0	8.049979796640400E+001	1.3384066E+000	-2.7038742E+002
3	0	8.099979795377294E+001	1.3381587E+000	-2.7039801E+002
3	0	8.149979794114188E+001	1.3379165E+000	-2.7036618E+002
3	0	8.199979792851082E+001	1.3376863E+000	-2.7037326E+002
3	0	8.249979791587975E+001	1.3374681E+000	-2.7039447E+002
3	0	8.299979790324869E+001	1.3372421E+000	-2.7037677E+002
3	0	8.349979789061763E+001	1.3369638E+000	-2.7038742E+002
3	0	8.399979787798657E+001	1.3366383E+000	-2.7035913E+002
3	0	8.449979786535550E+001	1.3364066E+000	-2.7039801E+002
3	0	8.499979785272444E+001	1.3362235E+000	-2.7037326E+002
3	0	8.549979784009338E+001	1.3360453E+000	-2.7038385E+002
3	0	8.599979782746232E+001	1.3358643E+000	-2.7036618E+002
3	0	8.649979781483125E+001	1.3356889E+000	-2.7037326E+002
3	0	8.699979780220019E+001	1.3354913E+000	-2.7037677E+002
3	0	8.749979778956913E+001	1.3352113E+000	-2.7038031E+002
3	0	8.799979777693807E+001	1.3348690E+000	-2.7038031E+002
3	0	8.849979776430700E+001	1.3346199E+000	-2.7038385E+002
3	0	8.899979775167594E+001	1.3344152E+000	-2.7039447E+002
3	0	8.949979773904488E+001	1.3342046E+000	-2.7039447E+002
3	0	8.999979772641382E+001	1.3339863E+000	-2.7037677E+002
3	0	9.049979771378275E+001	1.3337682E+000	-2.7037677E+002
3	0	9.099979770115169E+001	1.3335222E+000	-2.7037326E+002
3	0	9.149979768852063E+001	1.3332050E+000	-2.7035205E+002
3	0	9.199979767588957E+001	1.3328319E+000	-2.7039447E+002
3	0	9.249979766325851E+001	1.3325398E+000	-2.7037677E+002
3	0	9.299979765062744E+001	1.3322884E+000	-2.7039093E+002
3	0	9.349979763799638E+001	1.3320283E+000	-2.7036618E+002
3	0	9.399979762536532E+001	1.3317678E+000	-2.7038031E+002
3	0	9.449979761273426E+001	1.3314992E+000	-2.7036972E+002
3	0	9.499979760010319E+001	1.3312079E+000	-2.7038742E+002
3	0	9.549979758747213E+001	1.3308403E+000	-2.7038742E+002
3	0	9.599979757484107E+001	1.3304404E+000	-2.7040155E+002
3	0	9.649979756221001E+001	1.3300941E+000	-2.7036267E+002
3	0	9.699979754957894E+001	1.3298069E+000	-2.7039093E+002
3	0	9.749979753694788E+001	1.3295180E+000	-2.7038031E+002
3	0	9.799979752431682E+001	1.3292408E+000	-2.7035913E+002
3	0	9.849979751168576E+001	1.3289567E+000	-2.7041568E+002
3	0	9.899979749905469E+001	1.3286350E+000	-2.7036972E+002
3	0	9.949979748642363E+001	1.3282558E+000	-2.7039447E+002
3	0	9.999979747379257E+001	1.3278333E+000	-2.7036972E+002
3	0	1.004997974611615E+002	1.3275164E+000	-2.7036972E+002
3	0	1.009997974485304E+002	1.3272611E+000	-2.7036972E+002
3	0	1.014997974358994E+002	1.3270208E+000	-2.7036618E+002
3	0	1.019997974232683E+002	1.3267970E+000	-2.7039093E+002
3	0	1.024997974106373E+002	1.3265977E+000	-2.7037326E+002
3	0	1.029997973980062E+002	1.3263866E+000	-2.7035913E+002
3	0	1.034997973853751E+002	1.3261261E+000	-2.7038742E+002
3	0	1.039997973727441E+002	1.3258071E+000	-2.7038742E+002
3	0	1.044997973601130E+002	1.3255986E+000	-2.7038385E+002
3	0	1.049997973474819E+002	1.3254339E+000	-2.7037677E+002
3	0	1.050001973474718E+002	1.3253587E+000	-2.7039093E+002