EC-Lab ASCII FILE
Nb header lines : 55                          

Open Circuit Voltage

Run on channel : 1 (SN 81504)
User : 
CE vs. WE compliance from -10 V to 10 V
Electrode connection : standard
Potential control : Ewe
Ewe ctrl range : min = -2.50 V, max = 2.50 V
Safety Limits :
	Do not start on E overload
Acquisition started on : 05/10/2026 04:38:51.126
Loaded Setting File :  C:\PEM-WE_measurements\2026\372_IV_IV IrOx, 5 min Pt, 30 min C, etched cathode\new station\Loopeis new\1,46 V different time gaps closed cell\Loopeis 1,46V_90s_4_PEIS from 650Hz to 100Hz.mps
Saved on :
	File : L_19_Loopeis 1,46V_90s_4_PEIS from 650Hz to 100Hz_10_OCV_C01.mpr
	Directory : C:\PEM-WE_measurements\2026\372_IV_IV IrOx, 5 min Pt, 30 min C, etched cathode\new station\Loopeis new\1,46 V different time gaps closed cell\
	Host : 192.168.0.2
Device : SP-150e (SN .005491)
Address : 192.168.0.91
EC-LAB for windows v11.71 (software)
Internet server v28.00 (firmware)
Command interpretor v14.01 (firmware)
Electrode material : 
Initial state : 
Electrolyte : 
Comments : 
Current amplifier : SP-150eB-20A
Electrode surface area : 0.001 cm²
Characteristic mass : 0.001 g
Equivalent Weight : 0.000 g/eq.
Density : 0.000 g/cm3
Volume (V) : 0.001 cm³
Record Analogic IN 1
Text export
   Mode : Standard
   Time format : Elapsed
Cycle Definition : Charge/Discharge alternance
External device configuration :
   device type : Temperature Probe
   device name : Other
   Analog IN 1 : 
      unit : T/Â°C
      max : 100.000 at 2.000 V
      min : 0.000 at 1.460 V
tR (h:m:s)          0:01:30.0000        
dER/dt (mV/h)       1.0                 
record              <Ewe>               
dER (mV)            10.00               
dtR (s)             0.5000              
E range min (V)     -2.500              
E range max (V)     2.500               

mode	error	time/s	<Ewe/V>	Analog IN 1/V	
3	0	5.851813917420077E+002	1.2860638E+000	-2.7040860E+002
3	0	5.856813917293766E+002	1.2927721E+000	-2.7038742E+002
3	0	5.861813917167456E+002	1.2933984E+000	-2.7038742E+002
3	0	5.866813917041145E+002	1.2925243E+000	-2.7036267E+002
3	0	5.871813916914834E+002	1.2905716E+000	-2.7038385E+002
3	0	5.876813916788524E+002	1.2871541E+000	-2.7035559E+002
3	0	5.881813916662213E+002	1.2813940E+000	-2.7034497E+002
3	0	5.886813916535903E+002	1.2716343E+000	-2.7036618E+002
3	0	5.891813916409592E+002	1.2558942E+000	-2.7041214E+002
3	0	5.896813916283281E+002	1.2315588E+000	-2.7036972E+002
3	0	5.901813916156971E+002	1.1933417E+000	-2.7037326E+002
3	0	5.906813916030660E+002	1.1280746E+000	-2.7037326E+002
3	0	5.911813915904349E+002	9.9614948E-001	-2.7038742E+002
3	0	5.916813915778039E+002	7.4382937E-001	-2.7038742E+002
3	0	5.921813915651728E+002	6.0379773E-001	-2.7036267E+002
3	0	5.926813915525418E+002	5.6481588E-001	-2.7040506E+002
3	0	5.931813915399107E+002	5.5068618E-001	-2.7038031E+002
3	0	5.936813915272796E+002	5.4573238E-001	-2.7040155E+002
3	0	5.941813915146486E+002	5.4445738E-001	-2.7037677E+002
3	0	5.946813915020175E+002	5.4590285E-001	-2.7037677E+002
3	0	5.951813914893864E+002	5.4979008E-001	-2.7034851E+002
3	0	5.956813914767554E+002	5.5402493E-001	-2.7037326E+002
3	0	5.961813914641243E+002	5.5819476E-001	-2.7037677E+002
3	0	5.966813914514933E+002	5.6241119E-001	-2.7038742E+002
3	0	5.971813914388622E+002	5.6659776E-001	-2.7040506E+002
3	0	5.976813914262311E+002	5.7026649E-001	-2.7037677E+002
3	0	5.981813914136001E+002	5.7322878E-001	-2.7039093E+002
3	0	5.986813914009690E+002	5.7678723E-001	-2.7035913E+002
3	0	5.991813913883379E+002	5.8151692E-001	-2.7038742E+002
3	0	5.996813913757069E+002	5.8590281E-001	-2.7038742E+002
3	0	6.001813913630758E+002	5.8951747E-001	-2.7038742E+002
3	0	6.006813913504448E+002	5.9266520E-001	-2.7039801E+002
3	0	6.011813913378137E+002	5.9529358E-001	-2.7038742E+002
3	0	6.016813913251826E+002	5.9699535E-001	-2.7041214E+002
3	0	6.021813913125516E+002	5.9800774E-001	-2.7039801E+002
3	0	6.026813912999205E+002	5.9955472E-001	-2.7040860E+002
3	0	6.031813912872894E+002	6.0216093E-001	-2.7037326E+002
3	0	6.036813912746584E+002	6.0434675E-001	-2.7036618E+002
3	0	6.041813912620273E+002	6.0597867E-001	-2.7036618E+002
3	0	6.046813912493963E+002	6.0714221E-001	-2.7037677E+002
3	0	6.051813912367652E+002	6.0815549E-001	-2.7037326E+002
3	0	6.056813912241341E+002	6.0828137E-001	-2.7037677E+002
3	0	6.061813912115031E+002	6.0765564E-001	-2.7035559E+002
3	0	6.066813911988720E+002	6.0775179E-001	-2.7039801E+002
3	0	6.071813911862409E+002	6.0914814E-001	-2.7036267E+002
3	0	6.076813911736099E+002	6.1032581E-001	-2.7038742E+002
3	0	6.081813911609788E+002	6.1087912E-001	-2.7036267E+002
3	0	6.086813911483478E+002	6.1133367E-001	-2.7038742E+002
3	0	6.091813911357167E+002	6.1176741E-001	-2.7035913E+002
3	0	6.096813911230856E+002	6.1193407E-001	-2.7039093E+002
3	0	6.101813911104546E+002	6.1199212E-001	-2.7037326E+002
3	0	6.106813910978235E+002	6.1305022E-001	-2.7039093E+002
3	0	6.111813910851924E+002	6.1587489E-001	-2.7037326E+002
3	0	6.116813910725614E+002	6.1901718E-001	-2.7038385E+002
3	0	6.121813910599303E+002	6.2194240E-001	-2.7040860E+002
3	0	6.126813910472993E+002	6.2466037E-001	-2.7040860E+002
3	0	6.131813910346682E+002	6.2721056E-001	-2.7038385E+002
3	0	6.136813910220371E+002	6.2916768E-001	-2.7039093E+002
3	0	6.141813910094061E+002	6.3053179E-001	-2.7036267E+002
3	0	6.146813909967750E+002	6.3265616E-001	-2.7039447E+002
3	0	6.151813909841439E+002	6.3594085E-001	-2.7035559E+002
3	0	6.156813909715129E+002	6.3890922E-001	-2.7037326E+002
3	0	6.161813909588818E+002	6.4119661E-001	-2.7035559E+002
3	0	6.166813909462508E+002	6.4305359E-001	-2.7037677E+002
3	0	6.171813909336197E+002	6.4446485E-001	-2.7035913E+002
3	0	6.176813909209886E+002	6.4497322E-001	-2.7037677E+002
3	0	6.181813909083576E+002	6.4468628E-001	-2.7036618E+002
3	0	6.186813908957265E+002	6.4494145E-001	-2.7037326E+002
3	0	6.191813908830954E+002	6.4653790E-001	-2.7038742E+002
3	0	6.196813908704644E+002	6.4775193E-001	-2.7039093E+002
3	0	6.201813908578333E+002	6.4815104E-001	-2.7036618E+002
3	0	6.206813908452023E+002	6.4780158E-001	-2.7039801E+002
3	0	6.211813908325712E+002	6.4698476E-001	-2.7036972E+002
3	0	6.216813908199401E+002	6.4555997E-001	-2.7038385E+002
3	0	6.221813908073091E+002	6.4332962E-001	-2.7038742E+002
3	0	6.226813907946780E+002	6.4164424E-001	-2.7038031E+002
3	0	6.231813907820469E+002	6.4134532E-001	-2.7038385E+002
3	0	6.236813907694159E+002	6.4081979E-001	-2.7038031E+002
3	0	6.241813907567848E+002	6.3951993E-001	-2.7038031E+002
3	0	6.246813907441538E+002	6.3774294E-001	-2.7036972E+002
3	0	6.251813907315227E+002	6.3550299E-001	-2.7036267E+002
3	0	6.256813907188916E+002	6.3257378E-001	-2.7040506E+002
3	0	6.261813907062606E+002	6.2908518E-001	-2.7038742E+002
3	0	6.266813906936295E+002	6.2624013E-001	-2.7039093E+002
3	0	6.271813906809984E+002	6.2482631E-001	-2.7036618E+002
3	0	6.276813906683674E+002	6.2350094E-001	-2.7035559E+002
3	0	6.281813906557363E+002	6.2179351E-001	-2.7040155E+002
3	0	6.286813906431053E+002	6.1982661E-001	-2.7036618E+002
3	0	6.291813906304742E+002	6.1779714E-001	-2.7037677E+002
3	0	6.296813906178431E+002	6.1574578E-001	-2.7037326E+002
3	0	6.301813906052121E+002	6.1371905E-001	-2.7036972E+002
3	0	6.306813905925810E+002	6.1287898E-001	-2.7038031E+002
3	0	6.311813905799499E+002	6.1428678E-001	-2.7039447E+002
3	0	6.316813905673189E+002	6.1647445E-001	-2.7036267E+002
3	0	6.321813905546878E+002	6.1874074E-001	-2.7037677E+002
3	0	6.326813905420568E+002	6.2101251E-001	-2.7036267E+002
3	0	6.331813905294257E+002	6.2321556E-001	-2.7037326E+002
3	0	6.336813905167946E+002	6.2491393E-001	-2.7038742E+002
3	0	6.341813905041636E+002	6.2592810E-001	-2.7036618E+002
3	0	6.346813904915325E+002	6.2735432E-001	-2.7038742E+002
3	0	6.351813904789014E+002	6.3014513E-001	-2.7036972E+002
3	0	6.356813904662704E+002	6.3285124E-001	-2.7037326E+002
3	0	6.361813904536393E+002	6.3482785E-001	-2.7038385E+002
3	0	6.366813904410083E+002	6.3613677E-001	-2.7036972E+002
3	0	6.371813904283772E+002	6.3678718E-001	-2.7038031E+002
3	0	6.376813904157461E+002	6.3633513E-001	-2.7038031E+002
3	0	6.381813904031151E+002	6.3491744E-001	-2.7039093E+002
3	0	6.386813903904840E+002	6.3397938E-001	-2.7038742E+002
3	0	6.391813903778529E+002	6.3425177E-001	-2.7034851E+002
3	0	6.396813903652219E+002	6.3428169E-001	-2.7036267E+002
3	0	6.401813903525908E+002	6.3347656E-001	-2.7039447E+002
3	0	6.406813903399598E+002	6.3215011E-001	-2.7035913E+002
3	0	6.411813903273287E+002	6.3020962E-001	-2.7038385E+002
3	0	6.416813903146976E+002	6.2732100E-001	-2.7037326E+002
3	0	6.421813903020666E+002	6.2350589E-001	-2.7039801E+002
3	0	6.426813902894355E+002	6.2012112E-001	-2.7038385E+002
3	0	6.431813902768045E+002	6.1811316E-001	-2.7038385E+002
3	0	6.436813902641734E+002	6.1611134E-001	-2.7040506E+002
3	0	6.441813902515423E+002	6.1354500E-001	-2.7038031E+002
3	0	6.446813902389113E+002	6.1056399E-001	-2.7035205E+002
3	0	6.451813902262802E+002	6.0726917E-001	-2.7036618E+002
3	0	6.456813902136491E+002	6.0326010E-001	-2.7039093E+002
3	0	6.461813902010181E+002	5.9860909E-001	-2.7036267E+002
3	0	6.466813901883870E+002	5.9448463E-001	-2.7039093E+002
3	0	6.471813901757560E+002	5.9180957E-001	-2.7038031E+002
3	0	6.476813901631249E+002	5.8923566E-001	-2.7037326E+002
3	0	6.481813901504938E+002	5.8625841E-001	-2.7034851E+002
3	0	6.486813901378628E+002	5.8313894E-001	-2.7037326E+002
3	0	6.491813901252317E+002	5.8022398E-001	-2.7041214E+002
3	0	6.496813901126006E+002	5.7698870E-001	-2.7037326E+002
3	0	6.501813900999696E+002	5.7358581E-001	-2.7038031E+002
3	0	6.506813900873385E+002	5.7165623E-001	-2.7039093E+002
3	0	6.511813900747075E+002	5.7183349E-001	-2.7038385E+002
3	0	6.516813900620764E+002	5.7273114E-001	-2.7038031E+002
3	0	6.521813900494453E+002	5.7394511E-001	-2.7040155E+002
3	0	6.526813900368143E+002	5.7550144E-001	-2.7036618E+002
3	0	6.531813900241832E+002	5.7729930E-001	-2.7036618E+002
3	0	6.536813900115521E+002	5.7878757E-001	-2.7036972E+002
3	0	6.541813899989211E+002	5.7961190E-001	-2.7039093E+002
3	0	6.546813899862900E+002	5.8102554E-001	-2.7034851E+002
3	0	6.551813899736590E+002	5.8376932E-001	-2.7040155E+002
3	0	6.556813899610279E+002	5.8631074E-001	-2.7037677E+002
3	0	6.561813899483968E+002	5.8809561E-001	-2.7040506E+002
3	0	6.566813899357658E+002	5.8942574E-001	-2.7038742E+002
3	0	6.571813899231347E+002	5.9030968E-001	-2.7037677E+002
3	0	6.576813899105036E+002	5.9023511E-001	-2.7037326E+002
3	0	6.581813898978726E+002	5.8926964E-001	-2.7038742E+002
3	0	6.586813898852415E+002	5.8847898E-001	-2.7037326E+002
3	0	6.591813898726105E+002	5.8876485E-001	-2.7038742E+002
3	0	6.596813898599794E+002	5.8876485E-001	-2.7038031E+002
3	0	6.601813898473483E+002	5.8799207E-001	-2.7036267E+002
3	0	6.606813898347173E+002	5.8673078E-001	-2.7039447E+002
3	0	6.611813898220862E+002	5.8490467E-001	-2.7038742E+002
3	0	6.616813898094551E+002	5.8216327E-001	-2.7034851E+002
3	0	6.621813897968241E+002	5.7844734E-001	-2.7039447E+002
3	0	6.626813897841930E+002	5.7526201E-001	-2.7038385E+002
3	0	6.631813897715620E+002	5.7329613E-001	-2.7037677E+002
3	0	6.636813897589309E+002	5.7119316E-001	-2.7036972E+002
3	0	6.641813897462998E+002	5.6852239E-001	-2.7039093E+002
3	0	6.646813897336688E+002	5.6543195E-001	-2.7037326E+002
3	0	6.651813897210377E+002	5.6226784E-001	-2.7035913E+002
3	0	6.656813897084066E+002	5.5808741E-001	-2.7036972E+002
3	0	6.661813896957756E+002	5.5306995E-001	-2.7036267E+002
3	0	6.666813896831445E+002	5.4881668E-001	-2.7038031E+002
3	0	6.671813896705135E+002	5.4592919E-001	-2.7038031E+002
3	0	6.676813896578824E+002	5.4287481E-001	-2.7038385E+002
3	0	6.681813896452513E+002	5.3934813E-001	-2.7037326E+002
3	0	6.686813896326203E+002	5.3558105E-001	-2.7037677E+002
3	0	6.691813896199892E+002	5.3175855E-001	-2.7037326E+002
3	0	6.696813896073581E+002	5.2789187E-001	-2.7036267E+002
3	0	6.701813895947271E+002	5.2387363E-001	-2.7037677E+002
3	0	6.706813895820960E+002	5.2090770E-001	-2.7036267E+002
3	0	6.711813895694650E+002	5.1974207E-001	-2.7038742E+002
3	0	6.716813895568339E+002	5.1917297E-001	-2.7036618E+002
3	0	6.721813895442028E+002	5.1882935E-001	-2.7036972E+002
3	0	6.726813895315718E+002	5.1880223E-001	-2.7037677E+002
3	0	6.731813895189407E+002	5.1895428E-001	-2.7040155E+002
3	0	6.736813895063096E+002	5.1875705E-001	-2.7037677E+002
3	0	6.741813894936786E+002	5.1812142E-001	-2.7036618E+002
3	0	6.746813894810475E+002	5.1814818E-001	-2.7038385E+002
3	0	6.746817894810374E+002	5.1871318E-001	-2.7037326E+002