EC-Lab ASCII FILE
Nb header lines : 55                          

Open Circuit Voltage

Run on channel : 1 (SN 81504)
User : 
CE vs. WE compliance from -10 V to 10 V
Electrode connection : standard
Potential control : Ewe
Ewe ctrl range : min = -2.50 V, max = 2.50 V
Safety Limits :
	Do not start on E overload
Acquisition started on : 05/09/2026 23:59:42.806
Loaded Setting File :  C:\PEM-WE_measurements\2026\372_IV_IV IrOx, 5 min Pt, 30 min C, etched cathode\new station\Loopeis new\1,46 V different time gaps closed cell\Loopeis 1,46V_30s_4_PEIS from 650Hz to 100Hz.mps
Saved on :
	File : L_04_Loopeis 1,46V_30s_4_PEIS from 650Hz to 100Hz_14_OCV_C01.mpr
	Directory : C:\PEM-WE_measurements\2026\372_IV_IV IrOx, 5 min Pt, 30 min C, etched cathode\new station\Loopeis new\1,46 V different time gaps closed cell\
	Host : 192.168.0.2
Device : SP-150e (SN .005491)
Address : 192.168.0.91
EC-LAB for windows v11.71 (software)
Internet server v28.00 (firmware)
Command interpretor v14.01 (firmware)
Electrode material : 
Initial state : 
Electrolyte : 
Comments : 
Current amplifier : SP-150eB-20A
Electrode surface area : 0.001 cm²
Characteristic mass : 0.001 g
Equivalent Weight : 0.000 g/eq.
Density : 0.000 g/cm3
Volume (V) : 0.001 cm³
Record Analogic IN 1
Text export
   Mode : Standard
   Time format : Elapsed
Cycle Definition : Charge/Discharge alternance
External device configuration :
   device type : Temperature Probe
   device name : Other
   Analog IN 1 : 
      unit : T/Â°C
      max : 100.000 at 2.000 V
      min : 0.000 at 1.460 V
tR (h:m:s)          0:00:30.0000        
dER/dt (mV/h)       1.0                 
record              <Ewe>               
dER (mV)            10.00               
dtR (s)             0.5000              
E range min (V)     -2.500              
E range max (V)     2.500               

mode	error	time/s	<Ewe/V>	Analog IN 1/V	
3	0	4.987511974592053E+002	1.4204417E+000	-2.7038031E+002
3	0	4.992511974465742E+002	1.4126525E+000	-2.7040506E+002
3	0	4.997511974339432E+002	1.4072698E+000	-2.7039093E+002
3	0	5.002511974213121E+002	1.4032326E+000	-2.7038031E+002
3	0	5.007511974086810E+002	1.4000031E+000	-2.7039093E+002
3	0	5.012511973960500E+002	1.3973976E+000	-2.7038385E+002
3	0	5.017511973834189E+002	1.3951813E+000	-2.7036972E+002
3	0	5.022511973707879E+002	1.3932465E+000	-2.7039093E+002
3	0	5.027511973581568E+002	1.3915325E+000	-2.7036267E+002
3	0	5.032511973455257E+002	1.3899928E+000	-2.7037326E+002
3	0	5.037511973328947E+002	1.3885523E+000	-2.7039447E+002
3	0	5.042511973202636E+002	1.3871403E+000	-2.7038385E+002
3	0	5.047511973076325E+002	1.3858365E+000	-2.7035559E+002
3	0	5.052511972950015E+002	1.3846974E+000	-2.7038031E+002
3	0	5.057511972823704E+002	1.3836375E+000	-2.7036267E+002
3	0	5.062511972697394E+002	1.3826325E+000	-2.7038031E+002
3	0	5.067511972571083E+002	1.3816880E+000	-2.7039093E+002
3	0	5.072511972444772E+002	1.3807788E+000	-2.7036267E+002
3	0	5.077511972318462E+002	1.3798708E+000	-2.7038742E+002
3	0	5.082511972192151E+002	1.3789299E+000	-2.7036267E+002
3	0	5.087511972065840E+002	1.3780279E+000	-2.7035913E+002
3	0	5.092511971939530E+002	1.3772169E+000	-2.7038031E+002
3	0	5.097511971813219E+002	1.3764343E+000	-2.7035913E+002
3	0	5.102511971686909E+002	1.3756801E+000	-2.7034143E+002
3	0	5.107511971560598E+002	1.3749579E+000	-2.7036972E+002
3	0	5.112511971434287E+002	1.3742630E+000	-2.7037677E+002
3	0	5.117511971307977E+002	1.3735420E+000	-2.7037677E+002
3	0	5.122511971181666E+002	1.3727769E+000	-2.7039093E+002
3	0	5.127511971055355E+002	1.3720566E+000	-2.7037326E+002
3	0	5.132511970929045E+002	1.3714025E+000	-2.7039093E+002
3	0	5.137511970802734E+002	1.3707776E+000	-2.7036618E+002
3	0	5.142511970676424E+002	1.3701639E+000	-2.7038031E+002
3	0	5.147511970550113E+002	1.3695680E+000	-2.7036972E+002
3	0	5.152511970423802E+002	1.3689694E+000	-2.7038742E+002
3	0	5.157511970297492E+002	1.3683630E+000	-2.7038385E+002
3	0	5.162511970171181E+002	1.3676869E+000	-2.7035913E+002
3	0	5.167511970044870E+002	1.3670399E+000	-2.7037677E+002
3	0	5.172511969918560E+002	1.3664616E+000	-2.7037326E+002
3	0	5.177511969792249E+002	1.3658972E+000	-2.7037326E+002
3	0	5.182511969665939E+002	1.3653350E+000	-2.7036618E+002
3	0	5.187511969539628E+002	1.3647885E+000	-2.7037326E+002
3	0	5.192511969413317E+002	1.3642398E+000	-2.7038385E+002
3	0	5.197511969287007E+002	1.3636504E+000	-2.7039447E+002
3	0	5.202511969160696E+002	1.3630093E+000	-2.7036972E+002
3	0	5.207511969034385E+002	1.3623838E+000	-2.7037677E+002
3	0	5.212511968908075E+002	1.3618231E+000	-2.7036618E+002
3	0	5.217511968781764E+002	1.3612564E+000	-2.7038385E+002
3	0	5.222511968655454E+002	1.3607115E+000	-2.7036972E+002
3	0	5.227511968529143E+002	1.3601710E+000	-2.7038385E+002
3	0	5.232511968402832E+002	1.3596300E+000	-2.7036267E+002
3	0	5.237511968276522E+002	1.3590410E+000	-2.7038742E+002
3	0	5.242511968150211E+002	1.3584082E+000	-2.7035205E+002
3	0	5.247511968023900E+002	1.3577976E+000	-2.7036972E+002
3	0	5.252511967897590E+002	1.3572474E+000	-2.7036618E+002
3	0	5.257511967771279E+002	1.3566855E+000	-2.7037677E+002
3	0	5.262511967644969E+002	1.3561285E+000	-2.7037326E+002
3	0	5.267511967518658E+002	1.3555787E+000	-2.7038385E+002
3	0	5.272511967392347E+002	1.3550296E+000	-2.7038031E+002
3	0	5.277511967266037E+002	1.3544245E+000	-2.7039447E+002
3	0	5.282511967139726E+002	1.3537641E+000	-2.7037326E+002
3	0	5.282515967139625E+002	1.3534406E+000	-2.7036972E+002