EC-Lab ASCII FILE
Nb header lines : 55                          

Open Circuit Voltage

Run on channel : 1 (SN 81504)
User : 
CE vs. WE compliance from -10 V to 10 V
Electrode connection : standard
Potential control : Ewe
Ewe ctrl range : min = -2.50 V, max = 2.50 V
Safety Limits :
	Do not start on E overload
Acquisition started on : 05/08/2026 00:05:30.308
Loaded Setting File :  C:\PEM-WE_measurements\2026\372_IV_IV IrOx, 5 min Pt, 30 min C, etched cathode\new station\Loopeis new\1,46 V different time gaps open cell\Loopeis 1,46V_180s_3_PEIS from 6500Hz to 1000Hz.mps
Saved on :
	File : L_28_Loopeis 1,46V_180s_3_PEIS from 6500Hz to 1000Hz_02_OCV_C01.mpr
	Directory : C:\PEM-WE_measurements\2026\372_IV_IV IrOx, 5 min Pt, 30 min C, etched cathode\new station\Loopeis new\1,46 V different time gaps open cell\
	Host : 192.168.0.2
Device : SP-150e (SN .005491)
Address : 192.168.0.91
EC-LAB for windows v11.71 (software)
Internet server v28.00 (firmware)
Command interpretor v14.01 (firmware)
Electrode material : 
Initial state : 
Electrolyte : 
Comments : 
Current amplifier : SP-150eB-20A
Electrode surface area : 0.001 cm²
Characteristic mass : 0.001 g
Equivalent Weight : 0.000 g/eq.
Density : 0.000 g/cm3
Volume (V) : 0.001 cm³
Record Analogic IN 1
Text export
   Mode : Standard
   Time format : Elapsed
Cycle Definition : Charge/Discharge alternance
External device configuration :
   device type : Temperature Probe
   device name : Other
   Analog IN 1 : 
      unit : T/Â°C
      max : 100.000 at 2.000 V
      min : 0.000 at 1.460 V
tR (h:m:s)          0:03:0.0000         
dER/dt (mV/h)       1.0                 
record              <Ewe>               
dER (mV)            10.00               
dtR (s)             0.5000              
E range min (V)     -2.500              
E range max (V)     2.500               

mode	error	time/s	<Ewe/V>	Analog IN 1/V	
3	0	4.549979885057837E+001	1.2194198E+000	-2.7036618E+002
3	0	4.599979883794731E+001	1.1688221E+000	-2.7037326E+002
3	0	4.649979882531625E+001	7.9534954E-001	-2.7037326E+002
3	0	4.699979881268519E+001	4.1720632E-001	-2.7036267E+002
3	0	4.749979880005412E+001	3.4418473E-001	-2.7037677E+002
3	0	4.799979878742306E+001	3.3257988E-001	-2.7036267E+002
3	0	4.849979877479200E+001	3.2499766E-001	-2.7039447E+002
3	0	4.899979876216094E+001	3.1902307E-001	-2.7040860E+002
3	0	4.949979874952987E+001	3.1445253E-001	-2.7036972E+002
3	0	4.999979873689881E+001	3.1092116E-001	-2.7037677E+002
3	0	5.049979872426775E+001	3.0811906E-001	-2.7039447E+002
3	0	5.099979871163669E+001	3.0582175E-001	-2.7035913E+002
3	0	5.149979869900562E+001	3.0388877E-001	-2.7038031E+002
3	0	5.199979868637456E+001	3.0226573E-001	-2.7038031E+002
3	0	5.249979867374350E+001	3.0085534E-001	-2.7038031E+002
3	0	5.299979866111244E+001	2.9963869E-001	-2.7036618E+002
3	0	5.349979864848137E+001	2.9854468E-001	-2.7036972E+002
3	0	5.399979863585031E+001	2.9754603E-001	-2.7039801E+002
3	0	5.449979862321925E+001	2.9661480E-001	-2.7037326E+002
3	0	5.499979861058819E+001	2.9574457E-001	-2.7038385E+002
3	0	5.549979859795712E+001	2.9491481E-001	-2.7038742E+002
3	0	5.599979858532606E+001	2.9410124E-001	-2.7037326E+002
3	0	5.649979857269500E+001	2.9332811E-001	-2.7038031E+002
3	0	5.699979856006394E+001	2.9262280E-001	-2.7036972E+002
3	0	5.749979854743287E+001	2.9194948E-001	-2.7039093E+002
3	0	5.799979853480181E+001	2.9129609E-001	-2.7038742E+002
3	0	5.849979852217075E+001	2.9065773E-001	-2.7036972E+002
3	0	5.899979850953969E+001	2.9003268E-001	-2.7037326E+002
3	0	5.949979849690862E+001	2.8940573E-001	-2.7038742E+002
3	0	5.999979848427756E+001	2.8877845E-001	-2.7037326E+002
3	0	6.049979847164650E+001	2.8815538E-001	-2.7036618E+002
3	0	6.099979845901544E+001	2.8757557E-001	-2.7035559E+002
3	0	6.149979844638438E+001	2.8701717E-001	-2.7037677E+002
3	0	6.199979843375331E+001	2.8645784E-001	-2.7038385E+002
3	0	6.249979842112225E+001	2.8590724E-001	-2.7041214E+002
3	0	6.299979840849119E+001	2.8537202E-001	-2.7039093E+002
3	0	6.349979839586013E+001	2.8482294E-001	-2.7039801E+002
3	0	6.399979838322906E+001	2.8426480E-001	-2.7036618E+002
3	0	6.449979837059800E+001	2.8370196E-001	-2.7036972E+002
3	0	6.499979835796694E+001	2.8319579E-001	-2.7034851E+002
3	0	6.549979834533588E+001	2.8270075E-001	-2.7036972E+002
3	0	6.599979833270481E+001	2.8221214E-001	-2.7036972E+002
3	0	6.649979832007375E+001	2.8171545E-001	-2.7038742E+002
3	0	6.699979830744269E+001	2.8122869E-001	-2.7039093E+002
3	0	6.749979829481163E+001	2.8073803E-001	-2.7039093E+002
3	0	6.799979828218056E+001	2.8022653E-001	-2.7039801E+002
3	0	6.849979826954950E+001	2.7971935E-001	-2.7037326E+002
3	0	6.899979825691844E+001	2.7925983E-001	-2.7036618E+002
3	0	6.949979824428738E+001	2.7880713E-001	-2.7038031E+002
3	0	6.999979823165631E+001	2.7835280E-001	-2.7038742E+002
3	0	7.049979821902525E+001	2.7789843E-001	-2.7038385E+002
3	0	7.099979820639419E+001	2.7744856E-001	-2.7036972E+002
3	0	7.149979819376313E+001	2.7698901E-001	-2.7039093E+002
3	0	7.199979818113206E+001	2.7651694E-001	-2.7039801E+002
3	0	7.249979816850100E+001	2.7604786E-001	-2.7037326E+002
3	0	7.299979815586994E+001	2.7562645E-001	-2.7039447E+002
3	0	7.349979814323888E+001	2.7520686E-001	-2.7038742E+002
3	0	7.399979813060781E+001	2.7479258E-001	-2.7036972E+002
3	0	7.449979811797675E+001	2.7438661E-001	-2.7038031E+002
3	0	7.499979810534569E+001	2.7396950E-001	-2.7037326E+002
3	0	7.549979809271463E+001	2.7354744E-001	-2.7037326E+002
3	0	7.599979808008356E+001	2.7310902E-001	-2.7036267E+002
3	0	7.649979806745250E+001	2.7267179E-001	-2.7038031E+002
3	0	7.699979805482144E+001	2.7228838E-001	-2.7040860E+002
3	0	7.749979804219038E+001	2.7190194E-001	-2.7035913E+002
3	0	7.799979802955932E+001	2.7151152E-001	-2.7037677E+002
3	0	7.849979801692825E+001	2.7113056E-001	-2.7038031E+002
3	0	7.899979800429719E+001	2.7075461E-001	-2.7036972E+002
3	0	7.949979799166613E+001	2.7036101E-001	-2.7038742E+002
3	0	7.999979797903507E+001	2.6994890E-001	-2.7036618E+002
3	0	8.049979796640400E+001	2.6954654E-001	-2.7036267E+002
3	0	8.099979795377294E+001	2.6918897E-001	-2.7036972E+002
3	0	8.149979794114188E+001	2.6883659E-001	-2.7038385E+002
3	0	8.199979792851082E+001	2.6847547E-001	-2.7039447E+002
3	0	8.249979791587975E+001	2.6812145E-001	-2.7036972E+002
3	0	8.299979790324869E+001	2.6777086E-001	-2.7037677E+002
3	0	8.349979789061763E+001	2.6741338E-001	-2.7038385E+002
3	0	8.399979787798657E+001	2.6703706E-001	-2.7038742E+002
3	0	8.449979786535550E+001	2.6666051E-001	-2.7036972E+002
3	0	8.499979785272444E+001	2.6632860E-001	-2.7038031E+002
3	0	8.549979784009338E+001	2.6601282E-001	-2.7036972E+002
3	0	8.599979782746232E+001	2.6569125E-001	-2.7036972E+002
3	0	8.649979781483125E+001	2.6536989E-001	-2.7037326E+002
3	0	8.699979780220019E+001	2.6505002E-001	-2.7036267E+002
3	0	8.749979778956913E+001	2.6472065E-001	-2.7038031E+002
3	0	8.799979777693807E+001	2.6437339E-001	-2.7039093E+002
3	0	8.849979776430700E+001	2.6403010E-001	-2.7036972E+002
3	0	8.899979775167594E+001	2.6373520E-001	-2.7038385E+002
3	0	8.949979773904488E+001	2.6344267E-001	-2.7038031E+002
3	0	8.999979772641382E+001	2.6315317E-001	-2.7037677E+002
3	0	9.049979771378275E+001	2.6285553E-001	-2.7038742E+002
3	0	9.099979770115169E+001	2.6255891E-001	-2.7037326E+002
3	0	9.149979768852063E+001	2.6225820E-001	-2.7037677E+002
3	0	9.199979767588957E+001	2.6193291E-001	-2.7039447E+002
3	0	9.249979766325851E+001	2.6161247E-001	-2.7036618E+002
3	0	9.299979765062744E+001	2.6134151E-001	-2.7035913E+002
3	0	9.349979763799638E+001	2.6107377E-001	-2.7038031E+002
3	0	9.399979762536532E+001	2.6080328E-001	-2.7039093E+002
3	0	9.449979761273426E+001	2.6053283E-001	-2.7036972E+002
3	0	9.499979760010319E+001	2.6025856E-001	-2.7038031E+002
3	0	9.549979758747213E+001	2.5997493E-001	-2.7039093E+002
3	0	9.599979757484107E+001	2.5967649E-001	-2.7037677E+002
3	0	9.649979756221001E+001	2.5938550E-001	-2.7038031E+002
3	0	9.699979754957894E+001	2.5913370E-001	-2.7038031E+002
3	0	9.749979753694788E+001	2.5889239E-001	-2.7040506E+002
3	0	9.799979752431682E+001	2.5864831E-001	-2.7038385E+002
3	0	9.849979751168576E+001	2.5839433E-001	-2.7039093E+002
3	0	9.899979749905469E+001	2.5815031E-001	-2.7037326E+002
3	0	9.949979748642363E+001	2.5789148E-001	-2.7038385E+002
3	0	9.999979747379257E+001	2.5760707E-001	-2.7034851E+002
3	0	1.004997974611615E+002	2.5732815E-001	-2.7038742E+002
3	0	1.009997974485304E+002	2.5709274E-001	-2.7038742E+002
3	0	1.014997974358994E+002	2.5686830E-001	-2.7035913E+002
3	0	1.019997974232683E+002	2.5663868E-001	-2.7039093E+002
3	0	1.024997974106373E+002	2.5640690E-001	-2.7034143E+002
3	0	1.029997973980062E+002	2.5618356E-001	-2.7035913E+002
3	0	1.034997973853751E+002	2.5594181E-001	-2.7040506E+002
3	0	1.039997973727441E+002	2.5567988E-001	-2.7038385E+002
3	0	1.044997973601130E+002	2.5542340E-001	-2.7038742E+002
3	0	1.049997973474819E+002	2.5521040E-001	-2.7038742E+002
3	0	1.054997973348509E+002	2.5500700E-001	-2.7039093E+002
3	0	1.059997973222198E+002	2.5480130E-001	-2.7036618E+002
3	0	1.064997973095888E+002	2.5459135E-001	-2.7039093E+002
3	0	1.069997972969577E+002	2.5437975E-001	-2.7038385E+002
3	0	1.074997972843266E+002	2.5416568E-001	-2.7037326E+002
3	0	1.079997972716956E+002	2.5392026E-001	-2.7039093E+002
3	0	1.084997972590645E+002	2.5368860E-001	-2.7038742E+002
3	0	1.089997972464334E+002	2.5349775E-001	-2.7036972E+002
3	0	1.094997972338024E+002	2.5331241E-001	-2.7040155E+002
3	0	1.099997972211713E+002	2.5312367E-001	-2.7036267E+002
3	0	1.104997972085403E+002	2.5293842E-001	-2.7038385E+002
3	0	1.109997971959092E+002	2.5274366E-001	-2.7037677E+002
3	0	1.114997971832781E+002	2.5254369E-001	-2.7037326E+002
3	0	1.119997971706471E+002	2.5232056E-001	-2.7038385E+002
3	0	1.124997971580160E+002	2.5209299E-001	-2.7038385E+002
3	0	1.129997971453849E+002	2.5191754E-001	-2.7037677E+002
3	0	1.134997971327539E+002	2.5174457E-001	-2.7038031E+002
3	0	1.139997971201228E+002	2.5156909E-001	-2.7039093E+002
3	0	1.144997971074918E+002	2.5139326E-001	-2.7040155E+002
3	0	1.149997970948607E+002	2.5121897E-001	-2.7036618E+002
3	0	1.154997970822296E+002	2.5103146E-001	-2.7039093E+002
3	0	1.159997970695986E+002	2.5082007E-001	-2.7040506E+002
3	0	1.164997970569675E+002	2.5060925E-001	-2.7038031E+002
3	0	1.169997970443364E+002	2.5044870E-001	-2.7038742E+002
3	0	1.174997970317054E+002	2.5029433E-001	-2.7039093E+002
3	0	1.179997970190743E+002	2.5013548E-001	-2.7039093E+002
3	0	1.184997970064433E+002	2.4997620E-001	-2.7038031E+002
3	0	1.189997969938122E+002	2.4981309E-001	-2.7036972E+002
3	0	1.194997969811811E+002	2.4963082E-001	-2.7038385E+002
3	0	1.199997969685501E+002	2.4943919E-001	-2.7039093E+002
3	0	1.204997969559190E+002	2.4924928E-001	-2.7040860E+002
3	0	1.209997969432879E+002	2.4909249E-001	-2.7036618E+002
3	0	1.214997969306569E+002	2.4894696E-001	-2.7038385E+002
3	0	1.219997969180258E+002	2.4879687E-001	-2.7038742E+002
3	0	1.224997969053948E+002	2.4865361E-001	-2.7038385E+002
3	0	1.229997968927637E+002	2.4850443E-001	-2.7036618E+002
3	0	1.234997968801326E+002	2.4833539E-001	-2.7038742E+002
3	0	1.239997968675016E+002	2.4814908E-001	-2.7039447E+002
3	0	1.244997968548705E+002	2.4796495E-001	-2.7038031E+002
3	0	1.249997968422394E+002	2.4783224E-001	-2.7039093E+002
3	0	1.254997968296084E+002	2.4770123E-001	-2.7037326E+002
3	0	1.259997968169773E+002	2.4756546E-001	-2.7035205E+002
3	0	1.264997968043463E+002	2.4742669E-001	-2.7039801E+002
3	0	1.269997967917152E+002	2.4728529E-001	-2.7036972E+002
3	0	1.274997967790841E+002	2.4713163E-001	-2.7039447E+002
3	0	1.279997967664531E+002	2.4695216E-001	-2.7038031E+002
3	0	1.284997967538220E+002	2.4677928E-001	-2.7035913E+002
3	0	1.289997967411909E+002	2.4665383E-001	-2.7035559E+002
3	0	1.294997967285599E+002	2.4653617E-001	-2.7036618E+002
3	0	1.299997967159288E+002	2.4641219E-001	-2.7038742E+002
3	0	1.304997967032978E+002	2.4628828E-001	-2.7037326E+002
3	0	1.309997966906667E+002	2.4615063E-001	-2.7035913E+002
3	0	1.314997966780356E+002	2.4600892E-001	-2.7037677E+002
3	0	1.319997966654046E+002	2.4584869E-001	-2.7034851E+002
3	0	1.324997966527735E+002	2.4568292E-001	-2.7036267E+002
3	0	1.329997966401424E+002	2.4556614E-001	-2.7036267E+002
3	0	1.334997966275114E+002	2.4545226E-001	-2.7038031E+002
3	0	1.339997966148803E+002	2.4533975E-001	-2.7038031E+002
3	0	1.344997966022493E+002	2.4522100E-001	-2.7038742E+002
3	0	1.349997965896182E+002	2.4509966E-001	-2.7036972E+002
3	0	1.354997965769871E+002	2.4496730E-001	-2.7039093E+002
3	0	1.359997965643561E+002	2.4480152E-001	-2.7035559E+002
3	0	1.364997965517250E+002	2.4463886E-001	-2.7037677E+002
3	0	1.369997965390940E+002	2.4452725E-001	-2.7039447E+002
3	0	1.374997965264629E+002	2.4442950E-001	-2.7039093E+002
3	0	1.379997965138318E+002	2.4432582E-001	-2.7039447E+002
3	0	1.384997965012008E+002	2.4421515E-001	-2.7036972E+002
3	0	1.389997964885697E+002	2.4410263E-001	-2.7036972E+002
3	0	1.394997964759386E+002	2.4397612E-001	-2.7036972E+002
3	0	1.399997964633076E+002	2.4382059E-001	-2.7038031E+002
3	0	1.404997964506765E+002	2.4366871E-001	-2.7039447E+002
3	0	1.409997964380455E+002	2.4356048E-001	-2.7036972E+002
3	0	1.414997964254144E+002	2.4345770E-001	-2.7037677E+002
3	0	1.419997964127833E+002	2.4335423E-001	-2.7038385E+002
3	0	1.424997964001523E+002	2.4325010E-001	-2.7039447E+002
3	0	1.429997963875212E+002	2.4314037E-001	-2.7038031E+002
3	0	1.434997963748901E+002	2.4301173E-001	-2.7040155E+002
3	0	1.439997963622591E+002	2.4286346E-001	-2.7035913E+002
3	0	1.444997963496280E+002	2.4271229E-001	-2.7036267E+002
3	0	1.449997963369970E+002	2.4261370E-001	-2.7036972E+002
3	0	1.454997963243659E+002	2.4252310E-001	-2.7035205E+002
3	0	1.459997963117348E+002	2.4242359E-001	-2.7037326E+002
3	0	1.464997962991038E+002	2.4232538E-001	-2.7036618E+002
3	0	1.469997962864727E+002	2.4222164E-001	-2.7036267E+002
3	0	1.474997962738416E+002	2.4211150E-001	-2.7036972E+002
3	0	1.479997962612106E+002	2.4196832E-001	-2.7039801E+002
3	0	1.484997962485795E+002	2.4182931E-001	-2.7037326E+002
3	0	1.489997962359485E+002	2.4173699E-001	-2.7035913E+002
3	0	1.494997962233174E+002	2.4165384E-001	-2.7039801E+002
3	0	1.499997962106863E+002	2.4156107E-001	-2.7038031E+002
3	0	1.504997961980553E+002	2.4147123E-001	-2.7037677E+002
3	0	1.509997961854242E+002	2.4138156E-001	-2.7038385E+002
3	0	1.514997961727931E+002	2.4127457E-001	-2.7038385E+002
3	0	1.519997961601621E+002	2.4114269E-001	-2.7038031E+002
3	0	1.524997961475310E+002	2.4100770E-001	-2.7038031E+002
3	0	1.529997961349000E+002	2.4092597E-001	-2.7038031E+002
3	0	1.534997961222689E+002	2.4084820E-001	-2.7038031E+002
3	0	1.539997961096378E+002	2.4076295E-001	-2.7039093E+002
3	0	1.544997960970068E+002	2.4067862E-001	-2.7036618E+002
3	0	1.549997960843757E+002	2.4058509E-001	-2.7035913E+002
3	0	1.554997960717446E+002	2.4047853E-001	-2.7039447E+002
3	0	1.559997960591136E+002	2.4035299E-001	-2.7038385E+002
3	0	1.564997960464825E+002	2.4023171E-001	-2.7039447E+002
3	0	1.569997960338515E+002	2.4015114E-001	-2.7038385E+002
3	0	1.574997960212204E+002	2.4008070E-001	-2.7038031E+002
3	0	1.579997960085893E+002	2.4000108E-001	-2.7038031E+002
3	0	1.584997959959583E+002	2.3991890E-001	-2.7036267E+002
3	0	1.589997959833272E+002	2.3983502E-001	-2.7038031E+002
3	0	1.594997959706961E+002	2.3973829E-001	-2.7037326E+002
3	0	1.599997959580651E+002	2.3961061E-001	-2.7041214E+002
3	0	1.604997959454340E+002	2.3948382E-001	-2.7038031E+002
3	0	1.609997959328030E+002	2.3940082E-001	-2.7039093E+002
3	0	1.614997959201719E+002	2.3932599E-001	-2.7036972E+002
3	0	1.619997959075408E+002	2.3924388E-001	-2.7038742E+002
3	0	1.624997958949098E+002	2.3915902E-001	-2.7037326E+002
3	0	1.629997958822787E+002	2.3908204E-001	-2.7036267E+002
3	0	1.634997958696476E+002	2.3899147E-001	-2.7038385E+002
3	0	1.639997958570166E+002	2.3886903E-001	-2.7036972E+002
3	0	1.644997958443855E+002	2.3873900E-001	-2.7038742E+002
3	0	1.649997958317545E+002	2.3866309E-001	-2.7038385E+002
3	0	1.654997958191234E+002	2.3859367E-001	-2.7036972E+002
3	0	1.659997958064923E+002	2.3851922E-001	-2.7036618E+002
3	0	1.664997957938613E+002	2.3844384E-001	-2.7038031E+002
3	0	1.669997957812302E+002	2.3836587E-001	-2.7039447E+002
3	0	1.674997957685991E+002	2.3828055E-001	-2.7038031E+002
3	0	1.679997957559681E+002	2.3816893E-001	-2.7039093E+002
3	0	1.684997957433370E+002	2.3805162E-001	-2.7036972E+002
3	0	1.689997957307060E+002	2.3798233E-001	-2.7039447E+002
3	0	1.694997957180749E+002	2.3791866E-001	-2.7038385E+002
3	0	1.699997957054438E+002	2.3785192E-001	-2.7037677E+002
3	0	1.704997956928128E+002	2.3778369E-001	-2.7037326E+002
3	0	1.709997956801817E+002	2.3771375E-001	-2.7037677E+002
3	0	1.714997956675506E+002	2.3762716E-001	-2.7037677E+002
3	0	1.719997956549196E+002	2.3751554E-001	-2.7038031E+002
3	0	1.724997956422885E+002	2.3739786E-001	-2.7038742E+002
3	0	1.729997956296575E+002	2.3732658E-001	-2.7037677E+002
3	0	1.734997956170264E+002	2.3726508E-001	-2.7038742E+002
3	0	1.739997956043953E+002	2.3719686E-001	-2.7039801E+002
3	0	1.744997955917643E+002	2.3712918E-001	-2.7037326E+002
3	0	1.749997955791332E+002	2.3706068E-001	-2.7039093E+002
3	0	1.754997955665021E+002	2.3697184E-001	-2.7038385E+002
3	0	1.759997955538711E+002	2.3686305E-001	-2.7036267E+002
3	0	1.764997955412400E+002	2.3675241E-001	-2.7038031E+002
3	0	1.769997955286090E+002	2.3668809E-001	-2.7038031E+002
3	0	1.774997955159779E+002	2.3663314E-001	-2.7040506E+002
3	0	1.779997955033468E+002	2.3657328E-001	-2.7036972E+002
3	0	1.784997954907158E+002	2.3650463E-001	-2.7039447E+002
3	0	1.789997954780847E+002	2.3643462E-001	-2.7038742E+002
3	0	1.794997954654536E+002	2.3634848E-001	-2.7038031E+002
3	0	1.799997954528226E+002	2.3623228E-001	-2.7040860E+002
3	0	1.804997954401915E+002	2.3612113E-001	-2.7037326E+002
3	0	1.809997954275605E+002	2.3605311E-001	-2.7038031E+002
3	0	1.814997954149294E+002	2.3599218E-001	-2.7037677E+002
3	0	1.819997954022983E+002	2.3591925E-001	-2.7038385E+002
3	0	1.824997953896673E+002	2.3584984E-001	-2.7038742E+002
3	0	1.829997953770362E+002	2.3577499E-001	-2.7038031E+002
3	0	1.834997953644051E+002	2.3569420E-001	-2.7036267E+002
3	0	1.839997953517741E+002	2.3559149E-001	-2.7035559E+002
3	0	1.844997953391430E+002	2.3548082E-001	-2.7036972E+002
3	0	1.849997953265120E+002	2.3542199E-001	-2.7038031E+002
3	0	1.854997953138809E+002	2.3537035E-001	-2.7038031E+002
3	0	1.859997953012498E+002	2.3530909E-001	-2.7036972E+002
3	0	1.864997952886188E+002	2.3524557E-001	-2.7038385E+002
3	0	1.869997952759877E+002	2.3518565E-001	-2.7038385E+002
3	0	1.874997952633566E+002	2.3510481E-001	-2.7036267E+002
3	0	1.879997952507256E+002	2.3500083E-001	-2.7035913E+002
3	0	1.884997952380945E+002	2.3489302E-001	-2.7033438E+002
3	0	1.889997952254635E+002	2.3484276E-001	-2.7038385E+002
3	0	1.894997952128324E+002	2.3478985E-001	-2.7038742E+002
3	0	1.899997952002013E+002	2.3473537E-001	-2.7041214E+002
3	0	1.904997951875703E+002	2.3467591E-001	-2.7039801E+002
3	0	1.909997951749392E+002	2.3461668E-001	-2.7036618E+002
3	0	1.914997951623081E+002	2.3454103E-001	-2.7037326E+002
3	0	1.919997951496771E+002	2.3444781E-001	-2.7040155E+002
3	0	1.924997951370460E+002	2.3435047E-001	-2.7036618E+002
3	0	1.929997951244150E+002	2.3429205E-001	-2.7039093E+002
3	0	1.934997951117839E+002	2.3424786E-001	-2.7039093E+002
3	0	1.939997950991528E+002	2.3420306E-001	-2.7036972E+002
3	0	1.944997950865218E+002	2.3414698E-001	-2.7039093E+002
3	0	1.949997950738907E+002	2.3409508E-001	-2.7038385E+002
3	0	1.954997950612596E+002	2.3402008E-001	-2.7036267E+002
3	0	1.959997950486286E+002	2.3392567E-001	-2.7037326E+002
3	0	1.964997950359975E+002	2.3382379E-001	-2.7037326E+002
3	0	1.969997950233665E+002	2.3377602E-001	-2.7040860E+002
3	0	1.974997950107354E+002	2.3372911E-001	-2.7039093E+002
3	0	1.979997949981043E+002	2.3368168E-001	-2.7039447E+002
3	0	1.984997949854733E+002	2.3362789E-001	-2.7036618E+002
3	0	1.989997949728422E+002	2.3356685E-001	-2.7037326E+002
3	0	1.994997949602111E+002	2.3350348E-001	-2.7040506E+002
3	0	1.999997949475801E+002	2.3340985E-001	-2.7038385E+002
3	0	2.004997949349490E+002	2.3330997E-001	-2.7038742E+002
3	0	2.009997949223180E+002	2.3326074E-001	-2.7038385E+002
3	0	2.014997949096869E+002	2.3321366E-001	-2.7037326E+002
3	0	2.019997948970558E+002	2.3316364E-001	-2.7038031E+002
3	0	2.024997948844248E+002	2.3310311E-001	-2.7036618E+002
3	0	2.029997948717937E+002	2.3304735E-001	-2.7037326E+002
3	0	2.034997948591626E+002	2.3297419E-001	-2.7037677E+002
3	0	2.039997948465316E+002	2.3287332E-001	-2.7038031E+002
3	0	2.044997948339005E+002	2.3277701E-001	-2.7036267E+002
3	0	2.049997948212695E+002	2.3272225E-001	-2.7041214E+002
3	0	2.054997948086384E+002	2.3268294E-001	-2.7040155E+002
3	0	2.059997947960073E+002	2.3263480E-001	-2.7039447E+002
3	0	2.064997947833763E+002	2.3259066E-001	-2.7037326E+002
3	0	2.069997947707452E+002	2.3253432E-001	-2.7038031E+002
3	0	2.074997947581141E+002	2.3246817E-001	-2.7038742E+002
3	0	2.079997947454831E+002	2.3237787E-001	-2.7036267E+002
3	0	2.084997947328520E+002	2.3228693E-001	-2.7036972E+002
3	0	2.089997947202210E+002	2.3223776E-001	-2.7035913E+002
3	0	2.094997947075899E+002	2.3220092E-001	-2.7037677E+002
3	0	2.099997946949588E+002	2.3215519E-001	-2.7039093E+002
3	0	2.104997946823278E+002	2.3210543E-001	-2.7038385E+002
3	0	2.109997946696967E+002	2.3206151E-001	-2.7038385E+002
3	0	2.114997946570657E+002	2.3200370E-001	-2.7038742E+002
3	0	2.119997946444346E+002	2.3191358E-001	-2.7037326E+002
3	0	2.124997946318035E+002	2.3182899E-001	-2.7038031E+002
3	0	2.129997946191725E+002	2.3178861E-001	-2.7038742E+002
3	0	2.134997946065414E+002	2.3175001E-001	-2.7038385E+002
3	0	2.139997945939103E+002	2.3170982E-001	-2.7038031E+002
3	0	2.144997945812793E+002	2.3166503E-001	-2.7039093E+002
3	0	2.149997945686482E+002	2.3161563E-001	-2.7038385E+002
3	0	2.154997945560172E+002	2.3155892E-001	-2.7039447E+002
3	0	2.159997945433861E+002	2.3146810E-001	-2.7036267E+002
3	0	2.164997945307550E+002	2.3138353E-001	-2.7039801E+002
3	0	2.169997945181240E+002	2.3134002E-001	-2.7036618E+002
3	0	2.174997945054929E+002	2.3131344E-001	-2.7039093E+002
3	0	2.179997944928618E+002	2.3127218E-001	-2.7035559E+002
3	0	2.184997944802308E+002	2.3123232E-001	-2.7039801E+002
3	0	2.189997944675997E+002	2.3118915E-001	-2.7038385E+002
3	0	2.194997944549687E+002	2.3113106E-001	-2.7037326E+002
3	0	2.199997944423376E+002	2.3104699E-001	-2.7038385E+002
3	0	2.204997944297065E+002	2.3095793E-001	-2.7036972E+002
3	0	2.209997944170755E+002	2.3090953E-001	-2.7036618E+002
3	0	2.214997944044444E+002	2.3086981E-001	-2.7039801E+002
3	0	2.219997943918133E+002	2.3082052E-001	-2.7036972E+002
3	0	2.224997943791823E+002	2.3077449E-001	-2.7038031E+002
3	0	2.229997943665512E+002	2.3072602E-001	-2.7038742E+002
3	0	2.234997943539202E+002	2.3066403E-001	-2.7035559E+002
3	0	2.239997943412891E+002	2.3057596E-001	-2.7039801E+002
3	0	2.244997943286580E+002	2.3048517E-001	-2.7036618E+002
3	0	2.249997943160270E+002	2.3044211E-001	-2.7038385E+002
3	0	2.250001943160169E+002	2.3042634E-001	-2.7041919E+002