EC-Lab ASCII FILE
Nb header lines : 48                          

Open Circuit Voltage

Run on channel : 1 (SN 81504)
User : 
CE vs. WE compliance from -10 V to 10 V
Electrode connection : standard
Potential control : Ewe
Ewe ctrl range : min = -2.50 V, max = 2.50 V
Safety Limits :
	Do not start on E overload
Acquisition started on : 05/09/2026 23:34:18.990
Loaded Setting File :  C:\PEM-WE_measurements\2026\372_IV_IV IrOx, 5 min Pt, 30 min C, etched cathode\new station\Loopeis new\1,46 V different time gaps closed cell\Loopeis 1,46V_30s_2_PEIS from 65kHz to 10kHz.mps
Saved on :
	File : L_02_Loopeis 1,46V_30s_2_PEIS from 65kHz to 10kHz_16_OCV_C01.mpr
	Directory : C:\PEM-WE_measurements\2026\372_IV_IV IrOx, 5 min Pt, 30 min C, etched cathode\new station\Loopeis new\1,46 V different time gaps closed cell\
	Host : 192.168.0.2
Device : SP-150e (SN .005491)
Address : 192.168.0.91
EC-LAB for windows v11.71 (software)
Internet server v28.00 (firmware)
Command interpretor v14.01 (firmware)
Electrode material : 
Initial state : 
Electrolyte : 
Comments : 
Current amplifier : SP-150eB-20A
Electrode surface area : 0.001 cm²
Characteristic mass : 0.001 g
Equivalent Weight : 0.000 g/eq.
Density : 0.000 g/cm3
Volume (V) : 0.001 cm³
Record Analogic IN 1
Text export
   Mode : Standard
   Time format : Elapsed
Cycle Definition : Charge/Discharge alternance
tR (h:m:s)          0:00:30.0000        
dER/dt (mV/h)       1.0                 
record              <Ewe>               
dER (mV)            10.00               
dtR (s)             0.5000              
E range min (V)     -2.500              
E range max (V)     2.500               

mode	error	time/s	<Ewe/V>	Analog IN 1/V	
3	0	5.732513988173741E+002	1.2198735E+000	-9.1562819E-005
3	0	5.737513988047431E+002	1.2462138E+000	2.2950437E-005
3	0	5.742513987921120E+002	1.2510719E+000	-9.1562819E-005
3	0	5.747513987794810E+002	1.2540780E+000	-2.0607607E-004
3	0	5.752513987668499E+002	1.2562264E+000	-9.1562819E-005
3	0	5.757513987542188E+002	1.2578312E+000	-1.2973390E-004
3	0	5.762513987415878E+002	1.2590762E+000	3.8648941E-006
3	0	5.767513987289567E+002	1.2601433E+000	4.2035979E-005
3	0	5.772513987163256E+002	1.2610565E+000	2.2950437E-005
3	0	5.777513987036946E+002	1.2618357E+000	4.2035979E-005
3	0	5.782513986910635E+002	1.2624996E+000	-5.3391734E-005
3	0	5.787513986784325E+002	1.2630718E+000	-9.1562819E-005
3	0	5.792513986658014E+002	1.2635453E+000	6.1121522E-005
3	0	5.797513986531703E+002	1.2638990E+000	-1.5220648E-005
3	0	5.802513986405393E+002	1.2641596E+000	-5.3391734E-005
3	0	5.807513986279082E+002	1.2644198E+000	-3.4306191E-005
3	0	5.812513986152771E+002	1.2646527E+000	2.2950437E-005
3	0	5.817513986026461E+002	1.2648531E+000	-7.2477276E-005
3	0	5.822513985900150E+002	1.2650143E+000	-7.2477276E-005
3	0	5.827513985773840E+002	1.2651458E+000	-1.5220648E-005
3	0	5.832513985647529E+002	1.2652268E+000	-1.5220648E-005
3	0	5.837513985521218E+002	1.2652173E+000	-1.5220648E-005
3	0	5.842513985394908E+002	1.2651533E+000	-1.8699054E-004
3	0	5.847513985268597E+002	1.2651172E+000	3.8648941E-006
3	0	5.852513985142286E+002	1.2650825E+000	-5.3391734E-005
3	0	5.857513985015976E+002	1.2650400E+000	-9.1562819E-005
3	0	5.862513984889665E+002	1.2649757E+000	-1.5220648E-005
3	0	5.867513984763355E+002	1.2649004E+000	-7.2477276E-005
3	0	5.872513984637044E+002	1.2647870E+000	-1.2973390E-004
3	0	5.877513984510733E+002	1.2646036E+000	3.8648941E-006
3	0	5.882513984384423E+002	1.2643653E+000	1.3746369E-004
3	0	5.887513984258112E+002	1.2641701E+000	-5.3391734E-005
3	0	5.892513984131801E+002	1.2639832E+000	-1.2973390E-004
3	0	5.897513984005491E+002	1.2637923E+000	-5.3391734E-005
3	0	5.902513983879180E+002	1.2635832E+000	6.1121522E-005
3	0	5.907513983752870E+002	1.2633544E+000	-3.4306191E-005
3	0	5.912513983626559E+002	1.2631091E+000	-5.3391734E-005
3	0	5.917513983500248E+002	1.2627923E+000	-7.2477276E-005
3	0	5.922513983373938E+002	1.2624242E+000	-5.3391734E-005
3	0	5.927513983247627E+002	1.2621009E+000	-5.3391734E-005
3	0	5.932513983121316E+002	1.2618002E+000	-1.4881945E-004
3	0	5.937513982995006E+002	1.2614928E+000	4.2035979E-005
3	0	5.942513982868695E+002	1.2611750E+000	2.2950437E-005
3	0	5.947513982742385E+002	1.2608525E+000	-3.4306191E-005
3	0	5.952513982616074E+002	1.2605021E+000	-1.2973390E-004
3	0	5.957513982489763E+002	1.2600811E+000	6.1121522E-005
3	0	5.962513982363453E+002	1.2596112E+000	8.0207064E-005
3	0	5.967513982237142E+002	1.2591945E+000	2.2950437E-005
3	0	5.972513982110831E+002	1.2587928E+000	3.8648941E-006
3	0	5.977513981984521E+002	1.2583916E+000	-9.1562819E-005
3	0	5.982513981858210E+002	1.2579782E+000	3.8648941E-006
3	0	5.987513981731900E+002	1.2575607E+000	2.2950437E-005
3	0	5.992513981605589E+002	1.2571260E+000	6.1121522E-005
3	0	5.997513981479278E+002	1.2566315E+000	-1.8699054E-004
3	0	6.002513981352968E+002	1.2560835E+000	-1.4881945E-004
3	0	6.007513981226657E+002	1.2555876E+000	9.9292607E-005
3	0	6.012513981100346E+002	1.2551025E+000	-3.4306191E-005
3	0	6.017513980974036E+002	1.2546190E+000	3.8648941E-006
3	0	6.022513980847725E+002	1.2541286E+000	-1.2973390E-004
3	0	6.027513980721415E+002	1.2536237E+000	-7.2477276E-005
3	0	6.027853980712825E+002	1.2533482E+000	-7.2477276E-005