EC-Lab ASCII FILE
Nb header lines : 47                          

Open Circuit Voltage

Run on channel : 1 (SN 81504)
User : 
CE vs. WE compliance from -10 V to 10 V
Electrode connection : standard
Potential control : Ewe
Ewe ctrl range : min = -10.00 V, max = 10.00 V
Safety Limits :
	Do not start on E overload
Acquisition started on : 05/19/2026 13:53:01.722
Loaded Setting File :  C:\PEM-WE_measurements\2026\372_IV_IV IrOx, 5 min Pt, 30 min C, etched cathode\new station\Loopeis new\1,46 V different time gaps open cell new\normal_PEIS_1,46V_180s.mps
Saved on :
	File : 1,46 V open cel peis normal 180 s kbio set2_07_OCV_C01.mpr
	Directory : C:\PEM-WE_measurements\2026\372_IV_IV IrOx, 5 min Pt, 30 min C, etched cathode\new station\Loopeis new\
	Host : 192.168.0.2
Device : SP-150e (SN .005491)
Address : 192.168.0.91
EC-LAB for windows v11.71 (software)
Internet server v28.00 (firmware)
Command interpretor v14.01 (firmware)
Electrode material : 
Initial state : 
Electrolyte : 
Comments : 
Current amplifier : SP-150eB-20A
Electrode surface area : 0.000 cm²
Characteristic mass : 0.001 g
Equivalent Weight : 0.000 g/eq.
Density : 0.000 g/cm3
Volume (V) : 0.001 cm³
Text export
   Mode : Standard
   Time format : Elapsed
Cycle Definition : Charge/Discharge alternance
tR (h:m:s)          0:03:0.0000         
dER/dt (mV/h)       1.0                 
record              <Ewe>               
dER (mV)            0.00                
dtR (s)             0.5000              
E range min (V)     -10.000             
E range max (V)     10.000              

mode	error	time/s	<Ewe/V>	
3	0	1.653074563861956E+003	1.2491788E+000
3	0	1.653574563849324E+003	1.2382334E+000
3	0	1.654074563836693E+003	1.1330345E+000
3	0	1.654574563824062E+003	7.4565637E-001
3	0	1.655074563811431E+003	4.2466605E-001
3	0	1.655574563798800E+003	3.6392808E-001
3	0	1.656074563786169E+003	3.5221234E-001
3	0	1.656574563773538E+003	3.4360668E-001
3	0	1.657074563760907E+003	3.3675346E-001
3	0	1.657574563748276E+003	3.3148453E-001
3	0	1.658074563735645E+003	3.2739362E-001
3	0	1.658574563723014E+003	3.2416874E-001
3	0	1.659074563710383E+003	3.2154030E-001
3	0	1.659574563697752E+003	3.1934372E-001
3	0	1.660074563685121E+003	3.1747490E-001
3	0	1.660574563672490E+003	3.1583554E-001
3	0	1.661074563659859E+003	3.1436282E-001
3	0	1.661574563647227E+003	3.1302184E-001
3	0	1.662074563634596E+003	3.1180474E-001
3	0	1.662574563621965E+003	3.1072396E-001
3	0	1.663074563609334E+003	3.0971110E-001
3	0	1.663574563596703E+003	3.0876037E-001
3	0	1.664074563584072E+003	3.0786058E-001
3	0	1.664574563571441E+003	3.0699378E-001
3	0	1.665074563558810E+003	3.0614647E-001
3	0	1.665574563546179E+003	3.0530563E-001
3	0	1.666074563533548E+003	3.0449724E-001
3	0	1.666574563520917E+003	3.0375662E-001
3	0	1.667074563508286E+003	3.0303422E-001
3	0	1.667574563495655E+003	3.0232731E-001
3	0	1.668074563483024E+003	3.0162936E-001
3	0	1.668574563470393E+003	3.0094513E-001
3	0	1.669074563457762E+003	3.0025196E-001
3	0	1.669574563445130E+003	2.9955083E-001
3	0	1.670074563432499E+003	2.9886654E-001
3	0	1.670574563419868E+003	2.9823688E-001
3	0	1.671074563407237E+003	2.9761550E-001
3	0	1.671574563394606E+003	2.9699919E-001
3	0	1.672074563381975E+003	2.9639119E-001
3	0	1.672574563369344E+003	2.9579058E-001
3	0	1.673074563356713E+003	2.9518202E-001
3	0	1.673574563344082E+003	2.9454651E-001
3	0	1.674074563331451E+003	2.9393780E-001
3	0	1.674574563318820E+003	2.9337144E-001
3	0	1.675074563306189E+003	2.9281789E-001
3	0	1.675574563293558E+003	2.9225424E-001
3	0	1.676074563280927E+003	2.9170424E-001
3	0	1.676574563268296E+003	2.9115546E-001
3	0	1.677074563255665E+003	2.9059663E-001
3	0	1.677574563243033E+003	2.9001671E-001
3	0	1.678074563230402E+003	2.8945416E-001
3	0	1.678574563217771E+003	2.8894013E-001
3	0	1.679074563205140E+003	2.8843540E-001
3	0	1.679574563192509E+003	2.8792781E-001
3	0	1.680074563179878E+003	2.8741765E-001
3	0	1.680574563167247E+003	2.8691348E-001
3	0	1.681074563154616E+003	2.8639114E-001
3	0	1.681574563141985E+003	2.8586635E-001
3	0	1.682074563129354E+003	2.8534958E-001
3	0	1.682574563116723E+003	2.8487447E-001
3	0	1.683074563104092E+003	2.8441077E-001
3	0	1.683574563091461E+003	2.8394669E-001
3	0	1.684074563078830E+003	2.8348029E-001
3	0	1.684574563066199E+003	2.8301239E-001
3	0	1.685074563053568E+003	2.8253004E-001
3	0	1.685574563040936E+003	2.8203720E-001
3	0	1.686074563028305E+003	2.8155419E-001
3	0	1.686574563015674E+003	2.8111485E-001
3	0	1.687074563003043E+003	2.8067887E-001
3	0	1.687574562990412E+003	2.8024203E-001
3	0	1.688074562977781E+003	2.7980489E-001
3	0	1.688574562965150E+003	2.7937984E-001
3	0	1.689074562952519E+003	2.7894115E-001
3	0	1.689574562939888E+003	2.7847776E-001
3	0	1.690074562927257E+003	2.7803013E-001
3	0	1.690574562914626E+003	2.7762601E-001
3	0	1.691074562901995E+003	2.7722913E-001
3	0	1.691574562889364E+003	2.7682483E-001
3	0	1.692074562876733E+003	2.7642569E-001
3	0	1.692574562864102E+003	2.7602965E-001
3	0	1.693074562851471E+003	2.7562296E-001
3	0	1.693574562838839E+003	2.7519369E-001
3	0	1.694074562826208E+003	2.7478787E-001
3	0	1.694574562813577E+003	2.7443433E-001
3	0	1.695074562800946E+003	2.7406922E-001
3	0	1.695574562788315E+003	2.7371109E-001
3	0	1.696074562775684E+003	2.7334851E-001
3	0	1.696574562763053E+003	2.7299228E-001
3	0	1.697074562750422E+003	2.7261713E-001
3	0	1.697574562737791E+003	2.7222982E-001
3	0	1.698074562725160E+003	2.7185720E-001
3	0	1.698574562712529E+003	2.7151814E-001
3	0	1.699074562699898E+003	2.7118602E-001
3	0	1.699574562687267E+003	2.7086022E-001
3	0	1.700074562674636E+003	2.7052805E-001
3	0	1.700574562662005E+003	2.7019867E-001
3	0	1.701074562649374E+003	2.6985374E-001
3	0	1.701574562636742E+003	2.6949906E-001
3	0	1.702074562624111E+003	2.6915178E-001
3	0	1.702574562611480E+003	2.6885340E-001
3	0	1.703074562598849E+003	2.6855046E-001
3	0	1.703574562586218E+003	2.6825082E-001
3	0	1.704074562573587E+003	2.6795056E-001
3	0	1.704574562560956E+003	2.6764989E-001
3	0	1.705074562548325E+003	2.6733243E-001
3	0	1.705574562535694E+003	2.6699731E-001
3	0	1.706074562523063E+003	2.6667547E-001
3	0	1.706574562510432E+003	2.6639235E-001
3	0	1.707074562497801E+003	2.6612025E-001
3	0	1.707574562485170E+003	2.6584786E-001
3	0	1.708074562472539E+003	2.6556998E-001
3	0	1.708574562459908E+003	2.6529115E-001
3	0	1.709074562447277E+003	2.6499474E-001
3	0	1.709574562434645E+003	2.6467788E-001
3	0	1.710074562422014E+003	2.6438576E-001
3	0	1.710574562409383E+003	2.6412496E-001
3	0	1.711074562396752E+003	2.6387587E-001
3	0	1.711574562384121E+003	2.6362172E-001
3	0	1.712074562371490E+003	2.6336652E-001
3	0	1.712574562358859E+003	2.6311535E-001
3	0	1.713074562346228E+003	2.6284549E-001
3	0	1.713574562333597E+003	2.6254979E-001
3	0	1.714074562320966E+003	2.6227444E-001
3	0	1.714574562308335E+003	2.6204157E-001
3	0	1.715074562295704E+003	2.6181573E-001
3	0	1.715574562283073E+003	2.6158351E-001
3	0	1.716074562270442E+003	2.6135054E-001
3	0	1.716574562257811E+003	2.6112494E-001
3	0	1.717074562245180E+003	2.6087493E-001
3	0	1.717574562232548E+003	2.6061076E-001
3	0	1.718074562219917E+003	2.6035258E-001
3	0	1.718574562207286E+003	2.6013881E-001
3	0	1.719074562194655E+003	2.5993606E-001
3	0	1.719574562182024E+003	2.5972965E-001
3	0	1.720074562169393E+003	2.5952461E-001
3	0	1.720574562156762E+003	2.5931787E-001
3	0	1.721074562144131E+003	2.5909150E-001
3	0	1.721574562131500E+003	2.5884274E-001
3	0	1.722074562118869E+003	2.5860986E-001
3	0	1.722574562106238E+003	2.5841334E-001
3	0	1.723074562093607E+003	2.5822183E-001
3	0	1.723574562080976E+003	2.5802809E-001
3	0	1.724074562068345E+003	2.5783974E-001
3	0	1.724574562055714E+003	2.5764570E-001
3	0	1.725074562043083E+003	2.5743604E-001
3	0	1.725574562030451E+003	2.5720298E-001
3	0	1.726074562017820E+003	2.5697953E-001
3	0	1.726574562005189E+003	2.5680670E-001
3	0	1.727074561992558E+003	2.5663537E-001
3	0	1.727574561979927E+003	2.5645474E-001
3	0	1.728074561967296E+003	2.5627348E-001
3	0	1.728574561954665E+003	2.5608942E-001
3	0	1.729074561942034E+003	2.5589287E-001
3	0	1.729574561929403E+003	2.5567046E-001
3	0	1.730074561916772E+003	2.5546369E-001
3	0	1.730574561904141E+003	2.5529295E-001
3	0	1.731074561891510E+003	2.5513470E-001
3	0	1.731574561878879E+003	2.5496462E-001
3	0	1.732074561866248E+003	2.5479922E-001
3	0	1.732574561853617E+003	2.5462848E-001
3	0	1.733074561840986E+003	2.5443959E-001
3	0	1.733574561828354E+003	2.5423083E-001
3	0	1.734074561815723E+003	2.5403526E-001
3	0	1.734574561803092E+003	2.5388286E-001
3	0	1.735074561790461E+003	2.5373214E-001
3	0	1.735574561777830E+003	2.5358185E-001
3	0	1.736074561765199E+003	2.5342950E-001
3	0	1.736574561752568E+003	2.5327274E-001
3	0	1.737074561739937E+003	2.5310469E-001
3	0	1.737574561727306E+003	2.5291488E-001
3	0	1.738074561714675E+003	2.5273445E-001
3	0	1.738574561702044E+003	2.5259656E-001
3	0	1.739074561689413E+003	2.5246179E-001
3	0	1.739574561676782E+003	2.5232255E-001
3	0	1.740074561664151E+003	2.5218377E-001
3	0	1.740574561651520E+003	2.5204304E-001
3	0	1.741074561638889E+003	2.5188440E-001
3	0	1.741574561626257E+003	2.5170675E-001
3	0	1.742074561613626E+003	2.5153825E-001
3	0	1.742574561600995E+003	2.5141332E-001
3	0	1.743074561588364E+003	2.5129122E-001
3	0	1.743574561575733E+003	2.5116512E-001
3	0	1.744074561563102E+003	2.5103369E-001
3	0	1.744574561550471E+003	2.5090805E-001
3	0	1.745074561537840E+003	2.5075519E-001
3	0	1.745574561525209E+003	2.5058857E-001
3	0	1.746074561512578E+003	2.5043046E-001
3	0	1.746574561499947E+003	2.5031424E-001
3	0	1.747074561487316E+003	2.5019670E-001
3	0	1.747574561474685E+003	2.5007355E-001
3	0	1.748074561462054E+003	2.4995726E-001
3	0	1.748574561449423E+003	2.4983630E-001
3	0	1.749074561436792E+003	2.4969849E-001
3	0	1.749574561424160E+003	2.4953526E-001
3	0	1.750074561411529E+003	2.4937850E-001
3	0	1.750574561398898E+003	2.4927127E-001
3	0	1.751074561386267E+003	2.4916126E-001
3	0	1.751574561373636E+003	2.4904338E-001
3	0	1.752074561361005E+003	2.4892767E-001
3	0	1.752574561348374E+003	2.4880093E-001
3	0	1.753074561335743E+003	2.4866685E-001
3	0	1.753574561323112E+003	2.4850641E-001
3	0	1.754074561310481E+003	2.4836430E-001
3	0	1.754574561297850E+003	2.4825843E-001
3	0	1.755074561285219E+003	2.4816166E-001
3	0	1.755574561272588E+003	2.4805753E-001
3	0	1.756074561259957E+003	2.4795577E-001
3	0	1.756574561247326E+003	2.4785089E-001
3	0	1.757074561234695E+003	2.4772404E-001
3	0	1.757574561222063E+003	2.4757057E-001
3	0	1.758074561209432E+003	2.4743666E-001
3	0	1.758574561196801E+003	2.4733892E-001
3	0	1.759074561184170E+003	2.4725324E-001
3	0	1.759574561171539E+003	2.4715306E-001
3	0	1.760074561158908E+003	2.4705726E-001
3	0	1.760574561146277E+003	2.4696319E-001
3	0	1.761074561133646E+003	2.4684574E-001
3	0	1.761574561121015E+003	2.4670772E-001
3	0	1.762074561108384E+003	2.4657929E-001
3	0	1.762574561095753E+003	2.4649225E-001
3	0	1.763074561083122E+003	2.4641271E-001
3	0	1.763574561070491E+003	2.4632174E-001
3	0	1.764074561057860E+003	2.4622995E-001
3	0	1.764574561045229E+003	2.4613638E-001
3	0	1.765074561032598E+003	2.4602601E-001
3	0	1.765574561019967E+003	2.4589285E-001
3	0	1.766074561007335E+003	2.4577069E-001
3	0	1.766574560994704E+003	2.4569084E-001
3	0	1.767074560982073E+003	2.4561995E-001
3	0	1.767574560969442E+003	2.4553780E-001
3	0	1.768074560956811E+003	2.4545543E-001
3	0	1.768574560944180E+003	2.4537042E-001
3	0	1.769074560931549E+003	2.4526007E-001
3	0	1.769574560918918E+003	2.4512532E-001
3	0	1.770074560906287E+003	2.4499933E-001
3	0	1.770574560893656E+003	2.4491554E-001
3	0	1.771074560881025E+003	2.4483597E-001
3	0	1.771574560868394E+003	2.4474989E-001
3	0	1.772074560855763E+003	2.4466005E-001
3	0	1.772574560843132E+003	2.4457523E-001
3	0	1.773074560830501E+003	2.4446847E-001
3	0	1.773574560817870E+003	2.4434203E-001
3	0	1.774074560805238E+003	2.4421972E-001
3	0	1.774574560792607E+003	2.4414489E-001
3	0	1.775074560779976E+003	2.4406612E-001
3	0	1.775574560767345E+003	2.4398825E-001
3	0	1.776074560754714E+003	2.4390982E-001
3	0	1.776574560742083E+003	2.4382858E-001
3	0	1.777074560729452E+003	2.4372870E-001
3	0	1.777574560716821E+003	2.4360254E-001
3	0	1.778074560704190E+003	2.4349025E-001
3	0	1.778574560691559E+003	2.4342127E-001
3	0	1.779074560678928E+003	2.4335460E-001
3	0	1.779574560666297E+003	2.4328358E-001
3	0	1.780074560653666E+003	2.4321195E-001
3	0	1.780574560641035E+003	2.4314213E-001
3	0	1.781074560628404E+003	2.4305147E-001
3	0	1.781574560615773E+003	2.4293073E-001
3	0	1.782074560603141E+003	2.4282289E-001
3	0	1.782574560590510E+003	2.4275897E-001
3	0	1.783074560577879E+003	2.4269764E-001
3	0	1.783574560565248E+003	2.4262647E-001
3	0	1.784074560552617E+003	2.4255893E-001
3	0	1.784574560539986E+003	2.4249466E-001
3	0	1.785074560527355E+003	2.4240567E-001
3	0	1.785574560514724E+003	2.4228837E-001
3	0	1.786074560502093E+003	2.4218166E-001
3	0	1.786574560489462E+003	2.4211980E-001
3	0	1.787074560476831E+003	2.4206309E-001
3	0	1.787574560464200E+003	2.4200155E-001
3	0	1.788074560451569E+003	2.4193414E-001
3	0	1.788574560438938E+003	2.4186797E-001
3	0	1.789074560426307E+003	2.4177921E-001
3	0	1.789574560413676E+003	2.4166383E-001
3	0	1.790074560401044E+003	2.4155544E-001
3	0	1.790574560388413E+003	2.4148899E-001
3	0	1.791074560375782E+003	2.4142841E-001
3	0	1.791574560363151E+003	2.4136260E-001
3	0	1.792074560350520E+003	2.4129310E-001
3	0	1.792574560337889E+003	2.4121195E-001
3	0	1.793074560325258E+003	2.4111991E-001
3	0	1.793574560312627E+003	2.4099779E-001
3	0	1.794074560299996E+003	2.4088927E-001
3	0	1.794574560287365E+003	2.4083011E-001
3	0	1.795074560274734E+003	2.4076834E-001
3	0	1.795574560262103E+003	2.4070680E-001
3	0	1.796074560249472E+003	2.4064042E-001
3	0	1.796574560236841E+003	2.4057516E-001
3	0	1.797074560224210E+003	2.4048932E-001
3	0	1.797574560211579E+003	2.4037896E-001
3	0	1.798074560198947E+003	2.4028166E-001
3	0	1.798574560186316E+003	2.4022655E-001
3	0	1.799074560173685E+003	2.4017438E-001
3	0	1.799574560161054E+003	2.4011688E-001
3	0	1.800074560148423E+003	2.4006012E-001
3	0	1.800574560135792E+003	2.3999889E-001
3	0	1.801074560123161E+003	2.3992001E-001
3	0	1.801574560110530E+003	2.3981391E-001
3	0	1.802074560097899E+003	2.3972069E-001
3	0	1.802574560085268E+003	2.3966932E-001
3	0	1.803074560072637E+003	2.3962237E-001
3	0	1.803574560060006E+003	2.3957008E-001
3	0	1.804074560047375E+003	2.3951514E-001
3	0	1.804574560034744E+003	2.3945580E-001
3	0	1.805074560022113E+003	2.3937823E-001
3	0	1.805574560009482E+003	2.3927553E-001
3	0	1.806074559996850E+003	2.3919034E-001
3	0	1.806574559984219E+003	2.3914027E-001
3	0	1.807074559971588E+003	2.3909296E-001
3	0	1.807574559958957E+003	2.3904093E-001
3	0	1.808074559946326E+003	2.3899232E-001
3	0	1.808574559933695E+003	2.3893392E-001
3	0	1.809074559921064E+003	2.3886195E-001
3	0	1.809574559908433E+003	2.3876068E-001
3	0	1.810074559895802E+003	2.3866056E-001
3	0	1.810574559883171E+003	2.3860779E-001
3	0	1.811074559870540E+003	2.3855355E-001
3	0	1.811574559857909E+003	2.3849857E-001
3	0	1.812074559845278E+003	2.3843279E-001
3	0	1.812574559832647E+003	2.3836984E-001
3	0	1.813074559820016E+003	2.3829266E-001
3	0	1.813574559807385E+003	2.3819129E-001
3	0	1.814074559794753E+003	2.3809832E-001
3	0	1.814574559782122E+003	2.3804435E-001
3	0	1.815074559769491E+003	2.3799779E-001
3	0	1.815574559756860E+003	2.3794882E-001
3	0	1.816074559744229E+003	2.3789625E-001
3	0	1.816574559731598E+003	2.3784363E-001
3	0	1.817074559718967E+003	2.3777330E-001
3	0	1.817574559706336E+003	2.3767781E-001
3	0	1.818074559693705E+003	2.3759200E-001
3	0	1.818574559681074E+003	2.3754942E-001
3	0	1.819074559668443E+003	2.3750612E-001
3	0	1.819574559655812E+003	2.3745851E-001
3	0	1.820074559643181E+003	2.3740907E-001
3	0	1.820574559630550E+003	2.3735951E-001
3	0	1.821074559617919E+003	2.3728688E-001
3	0	1.821574559605288E+003	2.3719381E-001
3	0	1.822074559592656E+003	2.3711054E-001
3	0	1.822574559580025E+003	2.3707162E-001
3	0	1.823074559567394E+003	2.3702985E-001
3	0	1.823574559554763E+003	2.3698844E-001
3	0	1.824074559542132E+003	2.3694560E-001
3	0	1.824574559529501E+003	2.3689218E-001
3	0	1.825074559516870E+003	2.3682447E-001
3	0	1.825574559504239E+003	2.3673521E-001
3	0	1.826074559491608E+003	2.3665731E-001
3	0	1.826574559478977E+003	2.3661718E-001
3	0	1.827074559466346E+003	2.3657967E-001
3	0	1.827574559453715E+003	2.3654200E-001
3	0	1.828074559441084E+003	2.3649943E-001
3	0	1.828574559428453E+003	2.3645324E-001
3	0	1.829074559415822E+003	2.3638946E-001
3	0	1.829574559403191E+003	2.3629457E-001
3	0	1.830074559390559E+003	2.3620775E-001
3	0	1.830574559377928E+003	2.3616444E-001
3	0	1.831074559365297E+003	2.3611993E-001
3	0	1.831574559352666E+003	2.3607023E-001
3	0	1.832074559340035E+003	2.3601677E-001
3	0	1.832574559327404E+003	2.3596275E-001
3	0	1.832624559326141E+003	2.3593746E-001
3	0	1.878125158176699E+003	1.2456660E+000
3	0	1.878625158164068E+003	1.2330036E+000
3	0	1.879125158151437E+003	1.1098609E+000
3	0	1.879625158138806E+003	6.7719841E-001
3	0	1.880125158126175E+003	4.0783417E-001
3	0	1.880625158113544E+003	3.6239526E-001
3	0	1.881125158100913E+003	3.5157797E-001
3	0	1.881625158088282E+003	3.4322530E-001
3	0	1.882125158075651E+003	3.3664015E-001
3	0	1.882625158063020E+003	3.3159503E-001
3	0	1.883125158050389E+003	3.2766619E-001
3	0	1.883625158037758E+003	3.2452095E-001
3	0	1.884125158025126E+003	3.2194620E-001
3	0	1.884625158012495E+003	3.1978691E-001
3	0	1.885125157999864E+003	3.1792909E-001
3	0	1.885625157987233E+003	3.1628060E-001
3	0	1.886125157974602E+003	3.1482777E-001
3	0	1.886625157961971E+003	3.1355414E-001
3	0	1.887125157949340E+003	3.1238064E-001
3	0	1.887625157936709E+003	3.1128722E-001
3	0	1.888125157924078E+003	3.1027579E-001
3	0	1.888625157911447E+003	3.0931860E-001
3	0	1.889125157898816E+003	3.0840304E-001
3	0	1.889625157886185E+003	3.0750829E-001
3	0	1.890125157873554E+003	3.0665535E-001
3	0	1.890625157860923E+003	3.0586225E-001
3	0	1.891125157848292E+003	3.0508643E-001
3	0	1.891625157835661E+003	3.0433258E-001
3	0	1.892125157823029E+003	3.0360094E-001
3	0	1.892625157810398E+003	3.0288520E-001
3	0	1.893125157797767E+003	3.0216795E-001
3	0	1.893625157785136E+003	3.0145326E-001
3	0	1.894125157772505E+003	3.0075550E-001
3	0	1.894625157759874E+003	3.0010954E-001
3	0	1.895125157747243E+003	2.9946169E-001
3	0	1.895625157734612E+003	2.9883119E-001
3	0	1.896125157721981E+003	2.9820612E-001
3	0	1.896625157709350E+003	2.9759121E-001
3	0	1.897125157696719E+003	2.9696879E-001
3	0	1.897625157684088E+003	2.9633346E-001
3	0	1.898125157671457E+003	2.9572380E-001
3	0	1.898625157658826E+003	2.9514909E-001
3	0	1.899125157646195E+003	2.9457140E-001
3	0	1.899625157633564E+003	2.9400632E-001
3	0	1.900125157620932E+003	2.9343498E-001
3	0	1.900625157608301E+003	2.9284513E-001
3	0	1.901125157595670E+003	2.9228452E-001
3	0	1.901625157583039E+003	2.9172707E-001
3	0	1.902125157570408E+003	2.9117987E-001
3	0	1.902625157557777E+003	2.9066449E-001
3	0	1.903125157545146E+003	2.9014552E-001
3	0	1.903625157532515E+003	2.8962153E-001
3	0	1.904125157519884E+003	2.8910813E-001
3	0	1.904625157507253E+003	2.8859940E-001
3	0	1.905125157494622E+003	2.8807262E-001
3	0	1.905625157481991E+003	2.8752589E-001
3	0	1.906125157469360E+003	2.8701156E-001
3	0	1.906625157456729E+003	2.8653219E-001
3	0	1.907125157444098E+003	2.8604645E-001
3	0	1.907625157431467E+003	2.8556946E-001
3	0	1.908125157418835E+003	2.8508845E-001
3	0	1.908625157406204E+003	2.8460982E-001
3	0	1.909125157393573E+003	2.8411716E-001
3	0	1.909625157380942E+003	2.8361076E-001
3	0	1.910125157368311E+003	2.8312886E-001
3	0	1.910625157355680E+003	2.8267947E-001
3	0	1.911125157343049E+003	2.8224590E-001
3	0	1.911625157330418E+003	2.8179798E-001
3	0	1.912125157317787E+003	2.8135085E-001
3	0	1.912625157305156E+003	2.8090453E-001
3	0	1.913125157292525E+003	2.8045174E-001
3	0	1.913625157279894E+003	2.7997997E-001
3	0	1.914125157267263E+003	2.7954468E-001
3	0	1.914625157254632E+003	2.7915010E-001
3	0	1.915125157242001E+003	2.7874869E-001
3	0	1.915625157229370E+003	2.7833712E-001
3	0	1.916125157216738E+003	2.7793840E-001
3	0	1.916625157204107E+003	2.7753806E-001
3	0	1.917125157191476E+003	2.7712399E-001
3	0	1.917625157178845E+003	2.7669084E-001
3	0	1.918125157166214E+003	2.7628160E-001
3	0	1.918625157153583E+003	2.7591845E-001
3	0	1.919125157140952E+003	2.7554882E-001
3	0	1.919625157128321E+003	2.7517891E-001
3	0	1.920125157115690E+003	2.7481088E-001
3	0	1.920625157103059E+003	2.7444664E-001
3	0	1.921125157090428E+003	2.7406797E-001
3	0	1.921625157077797E+003	2.7367306E-001
3	0	1.922125157065166E+003	2.7329642E-001
3	0	1.922625157052535E+003	2.7295810E-001
3	0	1.923125157039904E+003	2.7261832E-001
3	0	1.923625157027273E+003	2.7228558E-001
3	0	1.924125157014641E+003	2.7195483E-001
3	0	1.924625157002010E+003	2.7161759E-001
3	0	1.925125156989379E+003	2.7125761E-001
3	0	1.925625156976748E+003	2.7089030E-001
3	0	1.926125156964117E+003	2.7054626E-001
3	0	1.926625156951486E+003	2.7023828E-001
3	0	1.927125156938855E+003	2.6993147E-001
3	0	1.927625156926224E+003	2.6962239E-001
3	0	1.928125156913593E+003	2.6932329E-001
3	0	1.928625156900962E+003	2.6901954E-001
3	0	1.929125156888331E+003	2.6869145E-001
3	0	1.929625156875700E+003	2.6835001E-001
3	0	1.930125156863069E+003	2.6802701E-001
3	0	1.930625156850438E+003	2.6774251E-001
3	0	1.931125156837807E+003	2.6745877E-001
3	0	1.931625156825176E+003	2.6716784E-001
3	0	1.932125156812544E+003	2.6688313E-001
3	0	1.932625156799913E+003	2.6659232E-001
3	0	1.933125156787282E+003	2.6628247E-001
3	0	1.933625156774651E+003	2.6596415E-001
3	0	1.934125156762020E+003	2.6567063E-001
3	0	1.934625156749389E+003	2.6541424E-001
3	0	1.935125156736758E+003	2.6515719E-001
3	0	1.935625156724127E+003	2.6490021E-001
3	0	1.936125156711496E+003	2.6464456E-001
3	0	1.936625156698865E+003	2.6438856E-001
3	0	1.937125156686234E+003	2.6410893E-001
3	0	1.937625156673603E+003	2.6381367E-001
3	0	1.938125156660972E+003	2.6354781E-001
3	0	1.938625156648341E+003	2.6331729E-001
3	0	1.939125156635710E+003	2.6308861E-001
3	0	1.939625156623079E+003	2.6284879E-001
3	0	1.940125156610447E+003	2.6261607E-001
3	0	1.940625156597816E+003	2.6238149E-001
3	0	1.941125156585185E+003	2.6212963E-001
3	0	1.941625156572554E+003	2.6185781E-001
3	0	1.942125156559923E+003	2.6160920E-001
3	0	1.942625156547292E+003	2.6139951E-001
3	0	1.943125156534661E+003	2.6119116E-001
3	0	1.943625156522030E+003	2.6097828E-001
3	0	1.944125156509399E+003	2.6076281E-001
3	0	1.944625156496768E+003	2.6054600E-001
3	0	1.945125156484137E+003	2.6030907E-001
3	0	1.945625156471506E+003	2.6005581E-001
3	0	1.946125156458875E+003	2.5982341E-001
3	0	1.946625156446244E+003	2.5963607E-001
3	0	1.947125156433613E+003	2.5944889E-001
3	0	1.947625156420982E+003	2.5925538E-001
3	0	1.948125156408350E+003	2.5905827E-001
3	0	1.948625156395719E+003	2.5885516E-001
3	0	1.949125156383088E+003	2.5863603E-001
3	0	1.949625156370457E+003	2.5839704E-001
3	0	1.950125156357826E+003	2.5818002E-001
3	0	1.950625156345195E+003	2.5799960E-001
3	0	1.951125156332564E+003	2.5781694E-001
3	0	1.951625156319933E+003	2.5762835E-001
3	0	1.952125156307302E+003	2.5743899E-001
3	0	1.952625156294671E+003	2.5724947E-001
3	0	1.953125156282040E+003	2.5704107E-001
3	0	1.953625156269409E+003	2.5681204E-001
3	0	1.954125156256778E+003	2.5660616E-001
3	0	1.954625156244147E+003	2.5643805E-001
3	0	1.955125156231516E+003	2.5627077E-001
3	0	1.955625156218885E+003	2.5610232E-001
3	0	1.956125156206253E+003	2.5592706E-001
3	0	1.956625156193622E+003	2.5575203E-001
3	0	1.957125156180991E+003	2.5556418E-001
3	0	1.957625156168360E+003	2.5535294E-001
3	0	1.958125156155729E+003	2.5516942E-001
3	0	1.958625156143098E+003	2.5502148E-001
3	0	1.959125156130467E+003	2.5487751E-001
3	0	1.959625156117836E+003	2.5472495E-001
3	0	1.960125156105205E+003	2.5457665E-001
3	0	1.960625156092574E+003	2.5442094E-001
3	0	1.961125156079943E+003	2.5425056E-001
3	0	1.961625156067312E+003	2.5405204E-001
3	0	1.962125156054681E+003	2.5387868E-001
3	0	1.962625156042050E+003	2.5374147E-001
3	0	1.963125156029419E+003	2.5361061E-001
3	0	1.963625156016788E+003	2.5347260E-001
3	0	1.964125156004156E+003	2.5333241E-001
3	0	1.964625155991525E+003	2.5319010E-001
3	0	1.965125155978894E+003	2.5303227E-001
3	0	1.965625155966263E+003	2.5285122E-001
3	0	1.966125155953632E+003	2.5268614E-001
3	0	1.966625155941001E+003	2.5256050E-001
3	0	1.967125155928370E+003	2.5244284E-001
3	0	1.967625155915739E+003	2.5231338E-001
3	0	1.968125155903108E+003	2.5217736E-001
3	0	1.968625155890477E+003	2.5204191E-001
3	0	1.969125155877846E+003	2.5188357E-001
3	0	1.969625155865215E+003	2.5171548E-001
3	0	1.970125155852584E+003	2.5155541E-001
3	0	1.970625155839953E+003	2.5143605E-001
3	0	1.971125155827322E+003	2.5131655E-001
3	0	1.971625155814691E+003	2.5119367E-001
3	0	1.972125155802059E+003	2.5107211E-001
3	0	1.972625155789428E+003	2.5094068E-001
3	0	1.973125155776797E+003	2.5078383E-001
3	0	1.973625155764166E+003	2.5060710E-001
3	0	1.974125155751535E+003	2.5045663E-001
3	0	1.974625155738904E+003	2.5034350E-001
3	0	1.975125155726273E+003	2.5023055E-001
3	0	1.975625155713642E+003	2.5011423E-001
3	0	1.976125155701011E+003	2.4999894E-001
3	0	1.976625155688380E+003	2.4987535E-001
3	0	1.977125155675749E+003	2.4973707E-001
3	0	1.977625155663118E+003	2.4957648E-001
3	0	1.978125155650487E+003	2.4943204E-001
3	0	1.978625155637856E+003	2.4932562E-001
3	0	1.979125155625225E+003	2.4922545E-001
3	0	1.979625155612594E+003	2.4912345E-001
3	0	1.980125155599962E+003	2.4901119E-001
3	0	1.980625155587331E+003	2.4889278E-001
3	0	1.981125155574700E+003	2.4876238E-001
3	0	1.981625155562069E+003	2.4861316E-001
3	0	1.982125155549438E+003	2.4847819E-001
3	0	1.982625155536807E+003	2.4838057E-001
3	0	1.983125155524176E+003	2.4829096E-001
3	0	1.983625155511545E+003	2.4819215E-001
3	0	1.984125155498914E+003	2.4809144E-001
3	0	1.984625155486283E+003	2.4798930E-001
3	0	1.985125155473652E+003	2.4787018E-001
3	0	1.985625155461021E+003	2.4772349E-001
3	0	1.986125155448390E+003	2.4759386E-001
3	0	1.986625155435759E+003	2.4750860E-001
3	0	1.987125155423128E+003	2.4742194E-001
3	0	1.987625155410497E+003	2.4732767E-001
3	0	1.988125155397865E+003	2.4723627E-001
3	0	1.988625155385234E+003	2.4713507E-001
3	0	1.989125155372603E+003	2.4702111E-001
3	0	1.989625155359972E+003	2.4687462E-001
3	0	1.990125155347341E+003	2.4675372E-001
3	0	1.990625155334710E+003	2.4667181E-001
3	0	1.991125155322079E+003	2.4658820E-001
3	0	1.991625155309448E+003	2.4649891E-001
3	0	1.992125155296817E+003	2.4640301E-001
3	0	1.992625155284186E+003	2.4629727E-001
3	0	1.993125155271555E+003	2.4617863E-001
3	0	1.993625155258924E+003	2.4603821E-001
3	0	1.994125155246293E+003	2.4591579E-001
3	0	1.994625155233662E+003	2.4583742E-001
3	0	1.995125155221031E+003	2.4576078E-001
3	0	1.995625155208400E+003	2.4567233E-001
3	0	1.996125155195768E+003	2.4558927E-001
3	0	1.996625155183137E+003	2.4550402E-001
3	0	1.997125155170506E+003	2.4538866E-001
3	0	1.997625155157875E+003	2.4525103E-001
3	0	1.998125155145244E+003	2.4514031E-001
3	0	1.998625155132613E+003	2.4506934E-001
3	0	1.999125155119982E+003	2.4499972E-001
3	0	1.999625155107351E+003	2.4492152E-001
3	0	2.000125155094720E+003	2.4484281E-001
3	0	2.000625155082089E+003	2.4475785E-001
3	0	2.001125155069458E+003	2.4465658E-001
3	0	2.001625155056827E+003	2.4453148E-001
3	0	2.002125155044196E+003	2.4442422E-001
3	0	2.002625155031565E+003	2.4435690E-001
3	0	2.003125155018934E+003	2.4429251E-001
3	0	2.003625155006303E+003	2.4422012E-001
3	0	2.004125154993671E+003	2.4414523E-001
3	0	2.004625154981040E+003	2.4406551E-001
3	0	2.005125154968409E+003	2.4396378E-001
3	0	2.005625154955778E+003	2.4383917E-001
3	0	2.006125154943147E+003	2.4373937E-001
3	0	2.006625154930516E+003	2.4367850E-001
3	0	2.007125154917885E+003	2.4361780E-001
3	0	2.007625154905254E+003	2.4354887E-001
3	0	2.008125154892623E+003	2.4347931E-001
3	0	2.008625154879992E+003	2.4341659E-001
3	0	2.009125154867361E+003	2.4331762E-001
3	0	2.009625154854730E+003	2.4320199E-001
3	0	2.010125154842099E+003	2.4309950E-001
3	0	2.010625154829468E+003	2.4303807E-001
3	0	2.011125154816837E+003	2.4297674E-001
3	0	2.011625154804206E+003	2.4290124E-001
3	0	2.012125154791574E+003	2.4283451E-001
3	0	2.012625154778943E+003	2.4275750E-001
3	0	2.013125154766312E+003	2.4266414E-001
3	0	2.013625154753681E+003	2.4253774E-001
3	0	2.014125154741050E+003	2.4243449E-001
3	0	2.014625154728419E+003	2.4236722E-001
3	0	2.015125154715788E+003	2.4230450E-001
3	0	2.015625154703157E+003	2.4223781E-001
3	0	2.016125154690526E+003	2.4217455E-001
3	0	2.016625154677895E+003	2.4210392E-001
3	0	2.017125154665264E+003	2.4200787E-001
3	0	2.017625154652633E+003	2.4189748E-001
3	0	2.018125154640002E+003	2.4180330E-001
3	0	2.018625154627371E+003	2.4174888E-001
3	0	2.019125154614740E+003	2.4169660E-001
3	0	2.019625154602109E+003	2.4163415E-001
3	0	2.020125154589477E+003	2.4157257E-001
3	0	2.020625154576846E+003	2.4150792E-001
3	0	2.021125154564215E+003	2.4142733E-001
3	0	2.021625154551584E+003	2.4131869E-001
3	0	2.022125154538953E+003	2.4122660E-001
3	0	2.022625154526322E+003	2.4117979E-001
3	0	2.023125154513691E+003	2.4112689E-001
3	0	2.023625154501060E+003	2.4107121E-001
3	0	2.024125154488429E+003	2.4101083E-001
3	0	2.024625154475798E+003	2.4095787E-001
3	0	2.025125154463167E+003	2.4087480E-001
3	0	2.025625154450536E+003	2.4077386E-001
3	0	2.026125154437905E+003	2.4068543E-001
3	0	2.026625154425274E+003	2.4064592E-001
3	0	2.027125154412643E+003	2.4059503E-001
3	0	2.027625154400012E+003	2.4054174E-001
3	0	2.028125154387380E+003	2.4048710E-001
3	0	2.028625154374749E+003	2.4042717E-001
3	0	2.029125154362118E+003	2.4034920E-001
3	0	2.029625154349487E+003	2.4024507E-001
3	0	2.030125154336856E+003	2.4015523E-001
3	0	2.030625154324225E+003	2.4011129E-001
3	0	2.031125154311594E+003	2.4006464E-001
3	0	2.031625154298963E+003	2.4000716E-001
3	0	2.032125154286332E+003	2.3995328E-001
3	0	2.032625154273701E+003	2.3988795E-001
3	0	2.033125154261070E+003	2.3979668E-001
3	0	2.033625154248439E+003	2.3969054E-001
3	0	2.034125154235808E+003	2.3960258E-001
3	0	2.034625154223177E+003	2.3954763E-001
3	0	2.035125154210546E+003	2.3949808E-001
3	0	2.035625154197915E+003	2.3943765E-001
3	0	2.036125154185283E+003	2.3937894E-001
3	0	2.036625154172652E+003	2.3932135E-001
3	0	2.037125154160021E+003	2.3924460E-001
3	0	2.037625154147390E+003	2.3913753E-001
3	0	2.038125154134759E+003	2.3905545E-001
3	0	2.038625154122128E+003	2.3901568E-001
3	0	2.039125154109497E+003	2.3896822E-001
3	0	2.039625154096866E+003	2.3891965E-001
3	0	2.040125154084235E+003	2.3886879E-001
3	0	2.040625154071604E+003	2.3880906E-001
3	0	2.041125154058973E+003	2.3873715E-001
3	0	2.041625154046342E+003	2.3863953E-001
3	0	2.042125154033711E+003	2.3855922E-001
3	0	2.042625154021080E+003	2.3851779E-001
3	0	2.043125154008449E+003	2.3848087E-001
3	0	2.043625153995818E+003	2.3844017E-001
3	0	2.044125153983186E+003	2.3839179E-001
3	0	2.044625153970555E+003	2.3833995E-001
3	0	2.045125153957924E+003	2.3825258E-001
3	0	2.045625153945293E+003	2.3815197E-001
3	0	2.046125153932662E+003	2.3806955E-001
3	0	2.046625153920031E+003	2.3802952E-001
3	0	2.047125153907400E+003	2.3798810E-001
3	0	2.047625153894769E+003	2.3793490E-001
3	0	2.048125153882138E+003	2.3788394E-001
3	0	2.048625153869507E+003	2.3783405E-001
3	0	2.049125153856876E+003	2.3775518E-001
3	0	2.049625153844245E+003	2.3765785E-001
3	0	2.050125153831614E+003	2.3758146E-001
3	0	2.050625153818983E+003	2.3754036E-001
3	0	2.051125153806352E+003	2.3749161E-001
3	0	2.051625153793721E+003	2.3743568E-001
3	0	2.052125153781089E+003	2.3737872E-001
3	0	2.052625153768458E+003	2.3731749E-001
3	0	2.053125153755827E+003	2.3724088E-001
3	0	2.053625153743196E+003	2.3714012E-001
3	0	2.054125153730565E+003	2.3705579E-001
3	0	2.054625153717934E+003	2.3701219E-001
3	0	2.055125153705303E+003	2.3696572E-001
3	0	2.055625153692672E+003	2.3691720E-001
3	0	2.056125153680041E+003	2.3686847E-001
3	0	2.056625153667410E+003	2.3681422E-001
3	0	2.057125153654779E+003	2.3673932E-001
3	0	2.057625153642148E+003	2.3664217E-001
3	0	2.057675153640885E+003	2.3659462E-001
3	0	2.103175752491443E+003	1.2441261E+000
3	0	2.103675752478812E+003	1.2297988E+000
3	0	2.104175752466181E+003	1.0950980E+000
3	0	2.104675752453550E+003	6.4341730E-001
3	0	2.105175752440919E+003	4.0060833E-001
3	0	2.105675752428288E+003	3.6181733E-001
3	0	2.106175752415656E+003	3.5142189E-001
3	0	2.106675752403025E+003	3.4326911E-001
3	0	2.107175752390394E+003	3.3685681E-001
3	0	2.107675752377763E+003	3.3192870E-001
3	0	2.108175752365132E+003	3.2809216E-001
3	0	2.108675752352501E+003	3.2501554E-001
3	0	2.109175752339870E+003	3.2247514E-001
3	0	2.109675752327239E+003	3.2031435E-001
3	0	2.110175752314608E+003	3.1848234E-001
3	0	2.110675752301977E+003	3.1690878E-001
3	0	2.111175752289346E+003	3.1550196E-001
3	0	2.111675752276715E+003	3.1423163E-001
3	0	2.112175752264084E+003	3.1306612E-001
3	0	2.112675752251453E+003	3.1197560E-001
3	0	2.113175752238822E+003	3.1094903E-001
3	0	2.113675752226191E+003	3.0995700E-001
3	0	2.114175752213559E+003	3.0903676E-001
3	0	2.114675752200928E+003	3.0819368E-001
3	0	2.115175752188297E+003	3.0737910E-001
3	0	2.115675752175666E+003	3.0658719E-001
3	0	2.116175752163035E+003	3.0581981E-001
3	0	2.116675752150404E+003	3.0507728E-001
3	0	2.117175752137773E+003	3.0432945E-001
3	0	2.117675752125142E+003	3.0358210E-001
3	0	2.118175752112511E+003	3.0287030E-001
3	0	2.118675752099880E+003	3.0220255E-001
3	0	2.119175752087249E+003	3.0154693E-001
3	0	2.119675752074618E+003	3.0089426E-001
3	0	2.120175752061987E+003	3.0026093E-001
3	0	2.120675752049356E+003	2.9962504E-001
3	0	2.121175752036725E+003	2.9898161E-001
3	0	2.121675752024094E+003	2.9833233E-001
3	0	2.122175752011462E+003	2.9770362E-001
3	0	2.122675751998831E+003	2.9711106E-001
3	0	2.123175751986200E+003	2.9652256E-001
3	0	2.123675751973569E+003	2.9594103E-001
3	0	2.124175751960938E+003	2.9536334E-001
3	0	2.124675751948307E+003	2.9478818E-001
3	0	2.125175751935676E+003	2.9420087E-001
3	0	2.125675751923045E+003	2.9360136E-001
3	0	2.126175751910414E+003	2.9303193E-001
3	0	2.126675751897783E+003	2.9249203E-001
3	0	2.127175751885152E+003	2.9196364E-001
3	0	2.127675751872521E+003	2.9143143E-001
3	0	2.128175751859890E+003	2.9090443E-001
3	0	2.128675751847259E+003	2.9037309E-001
3	0	2.129175751834628E+003	2.8983298E-001
3	0	2.129675751821997E+003	2.8927797E-001
3	0	2.130175751809365E+003	2.8875214E-001
3	0	2.130675751796734E+003	2.8826177E-001
3	0	2.131175751784103E+003	2.8776646E-001
3	0	2.131675751771472E+003	2.8727353E-001
3	0	2.132175751758841E+003	2.8678626E-001
3	0	2.132675751746210E+003	2.8629535E-001
3	0	2.133175751733579E+003	2.8578818E-001
3	0	2.133675751720948E+003	2.8527501E-001
3	0	2.134175751708317E+003	2.8478616E-001
3	0	2.134675751695686E+003	2.8433466E-001
3	0	2.135175751683055E+003	2.8388041E-001
3	0	2.135675751670424E+003	2.8342128E-001
3	0	2.136175751657793E+003	2.8296947E-001
3	0	2.136675751645162E+003	2.8252277E-001
3	0	2.137175751632531E+003	2.8206640E-001
3	0	2.137675751619900E+003	2.8159583E-001
3	0	2.138175751607268E+003	2.8115049E-001
3	0	2.138675751594637E+003	2.8074422E-001
3	0	2.139175751582006E+003	2.8033185E-001
3	0	2.139675751569375E+003	2.7992365E-001
3	0	2.140175751556744E+003	2.7951875E-001
3	0	2.140675751544113E+003	2.7911025E-001
3	0	2.141175751531482E+003	2.7868706E-001
3	0	2.141675751518851E+003	2.7824238E-001
3	0	2.142175751506220E+003	2.7783778E-001
3	0	2.142675751493589E+003	2.7746055E-001
3	0	2.143175751480958E+003	2.7708587E-001
3	0	2.143675751468327E+003	2.7670756E-001
3	0	2.144175751455696E+003	2.7632850E-001
3	0	2.144675751443065E+003	2.7595681E-001
3	0	2.145175751430434E+003	2.7556762E-001
3	0	2.145675751417803E+003	2.7515376E-001
3	0	2.146175751405171E+003	2.7477637E-001
3	0	2.146675751392540E+003	2.7443743E-001
3	0	2.147175751379909E+003	2.7409455E-001
3	0	2.147675751367278E+003	2.7374986E-001
3	0	2.148175751354647E+003	2.7340636E-001
3	0	2.148675751342016E+003	2.7305964E-001
3	0	2.149175751329385E+003	2.7269083E-001
3	0	2.149675751316754E+003	2.7232087E-001
3	0	2.150175751304123E+003	2.7197376E-001
3	0	2.150675751291492E+003	2.7165070E-001
3	0	2.151175751278861E+003	2.7133307E-001
3	0	2.151675751266230E+003	2.7101192E-001
3	0	2.152175751253599E+003	2.7070230E-001
3	0	2.152675751240968E+003	2.7037942E-001
3	0	2.153175751228337E+003	2.7003568E-001
3	0	2.153675751215706E+003	2.6968026E-001
3	0	2.154175751203074E+003	2.6936027E-001
3	0	2.154675751190443E+003	2.6907155E-001
3	0	2.155175751177812E+003	2.6878160E-001
3	0	2.155675751165181E+003	2.6849246E-001
3	0	2.156175751152550E+003	2.6820862E-001
3	0	2.156675751139919E+003	2.6792440E-001
3	0	2.157175751127288E+003	2.6761687E-001
3	0	2.157675751114657E+003	2.6728925E-001
3	0	2.158175751102026E+003	2.6699823E-001
3	0	2.158675751089395E+003	2.6673645E-001
3	0	2.159175751076764E+003	2.6646662E-001
3	0	2.159675751064133E+003	2.6619184E-001
3	0	2.160175751051502E+003	2.6593056E-001
3	0	2.160675751038871E+003	2.6566526E-001
3	0	2.161175751026240E+003	2.6538023E-001
3	0	2.161675751013609E+003	2.6508847E-001
3	0	2.162175751000977E+003	2.6481986E-001
3	0	2.162675750988346E+003	2.6458642E-001
3	0	2.163175750975715E+003	2.6435044E-001
3	0	2.163675750963084E+003	2.6411554E-001
3	0	2.164175750950453E+003	2.6387352E-001
3	0	2.164675750937822E+003	2.6362821E-001
3	0	2.165175750925191E+003	2.6337206E-001
3	0	2.165675750912560E+003	2.6310000E-001
3	0	2.166175750899929E+003	2.6285446E-001
3	0	2.166675750887298E+003	2.6264039E-001
3	0	2.167175750874667E+003	2.6241478E-001
3	0	2.167675750862036E+003	2.6219168E-001
3	0	2.168175750849405E+003	2.6197851E-001
3	0	2.168675750836774E+003	2.6175815E-001
3	0	2.169175750824143E+003	2.6152065E-001
3	0	2.169675750811512E+003	2.6126671E-001
3	0	2.170175750798880E+003	2.6103684E-001
3	0	2.170675750786249E+003	2.6083946E-001
3	0	2.171175750773618E+003	2.6063487E-001
3	0	2.171675750760987E+003	2.6043335E-001
3	0	2.172175750748356E+003	2.6022860E-001
3	0	2.172675750735725E+003	2.6002088E-001
3	0	2.173175750723094E+003	2.5979438E-001
3	0	2.173675750710463E+003	2.5955740E-001
3	0	2.174175750697832E+003	2.5934371E-001
3	0	2.174675750685201E+003	2.5915712E-001
3	0	2.175175750672570E+003	2.5896686E-001
3	0	2.175675750659939E+003	2.5877833E-001
3	0	2.176175750647308E+003	2.5859353E-001
3	0	2.176675750634677E+003	2.5840706E-001
3	0	2.177175750622046E+003	2.5819457E-001
3	0	2.177675750609415E+003	2.5797287E-001
3	0	2.178175750596783E+003	2.5777954E-001
3	0	2.178675750584152E+003	2.5760719E-001
3	0	2.179175750571521E+003	2.5743166E-001
3	0	2.179675750558890E+003	2.5726140E-001
3	0	2.180175750546259E+003	2.5709394E-001
3	0	2.180675750533628E+003	2.5692296E-001
3	0	2.181175750520997E+003	2.5673288E-001
3	0	2.181675750508366E+003	2.5652409E-001
3	0	2.182175750495735E+003	2.5634614E-001
3	0	2.182675750483104E+003	2.5619555E-001
3	0	2.183175750470473E+003	2.5603363E-001
3	0	2.183675750457842E+003	2.5587615E-001
3	0	2.184175750445211E+003	2.5572166E-001
3	0	2.184675750432580E+003	2.5556263E-001
3	0	2.185175750419949E+003	2.5538909E-001
3	0	2.185675750407318E+003	2.5519022E-001
3	0	2.186175750394686E+003	2.5502142E-001
3	0	2.186675750382055E+003	2.5488240E-001
3	0	2.187175750369424E+003	2.5473177E-001
3	0	2.187675750356793E+003	2.5458211E-001
3	0	2.188175750344162E+003	2.5442195E-001
3	0	2.188675750331531E+003	2.5424612E-001
3	0	2.189175750318900E+003	2.5409254E-001
3	0	2.189675750306269E+003	2.5391939E-001
3	0	2.190175750293638E+003	2.5377953E-001
3	0	2.190675750281007E+003	2.5366667E-001
3	0	2.191175750268376E+003	2.5353926E-001
3	0	2.191675750255745E+003	2.5340244E-001
3	0	2.192175750243114E+003	2.5326133E-001
3	0	2.192675750230483E+003	2.5311577E-001
3	0	2.193175750217852E+003	2.5294718E-001
3	0	2.193675750205221E+003	2.5275624E-001
3	0	2.194175750192589E+003	2.5259355E-001
3	0	2.194675750179958E+003	2.5246617E-001
3	0	2.195175750167327E+003	2.5233692E-001
3	0	2.195675750154696E+003	2.5220469E-001
3	0	2.196175750142065E+003	2.5206929E-001
3	0	2.196675750129434E+003	2.5192958E-001
3	0	2.197175750116803E+003	2.5176847E-001
3	0	2.197675750104172E+003	2.5159240E-001
3	0	2.198175750091541E+003	2.5144705E-001
3	0	2.198675750078910E+003	2.5133651E-001
3	0	2.199175750066279E+003	2.5122142E-001
3	0	2.199675750053648E+003	2.5110891E-001
3	0	2.200175750041017E+003	2.5098959E-001
3	0	2.200675750028386E+003	2.5087017E-001
3	0	2.201175750015755E+003	2.5071868E-001
3	0	2.201675750003124E+003	2.5055194E-001
3	0	2.202175749990492E+003	2.5042331E-001
3	0	2.202675749977861E+003	2.5032294E-001
3	0	2.203175749965230E+003	2.5021762E-001
3	0	2.203675749952599E+003	2.5011292E-001
3	0	2.204175749939968E+003	2.5000620E-001
3	0	2.204675749927337E+003	2.4989186E-001
3	0	2.205175749914706E+003	2.4975488E-001
3	0	2.205675749902075E+003	2.4960180E-001
3	0	2.206175749889444E+003	2.4947643E-001
3	0	2.206675749876813E+003	2.4938543E-001
3	0	2.207175749864182E+003	2.4929444E-001
3	0	2.207675749851551E+003	2.4919376E-001
3	0	2.208175749838920E+003	2.4909130E-001
3	0	2.208675749826289E+003	2.4898407E-001
3	0	2.209175749813658E+003	2.4884805E-001
3	0	2.209675749801027E+003	2.4870296E-001
3	0	2.210175749788395E+003	2.4857970E-001
3	0	2.210675749775764E+003	2.4849312E-001
3	0	2.211175749763133E+003	2.4841017E-001
3	0	2.211675749750502E+003	2.4830905E-001
3	0	2.212175749737871E+003	2.4820854E-001
3	0	2.212675749725240E+003	2.4810140E-001
3	0	2.213175749712609E+003	2.4797133E-001
3	0	2.213675749699978E+003	2.4782085E-001
3	0	2.214175749687347E+003	2.4769966E-001
3	0	2.214675749674716E+003	2.4761364E-001
3	0	2.215175749662085E+003	2.4752493E-001
3	0	2.215675749649454E+003	2.4743146E-001
3	0	2.216175749636823E+003	2.4733485E-001
3	0	2.216675749624192E+003	2.4723700E-001
3	0	2.217175749611561E+003	2.4711584E-001
3	0	2.217675749598930E+003	2.4697492E-001
3	0	2.218175749586298E+003	2.4686781E-001
3	0	2.218675749573667E+003	2.4679102E-001
3	0	2.219175749561036E+003	2.4671142E-001
3	0	2.219675749548405E+003	2.4662887E-001
3	0	2.220175749535774E+003	2.4654227E-001
3	0	2.220675749523143E+003	2.4645807E-001
3	0	2.221175749510512E+003	2.4633764E-001
3	0	2.221675749497881E+003	2.4620429E-001
3	0	2.222175749485250E+003	2.4609794E-001
3	0	2.222675749472619E+003	2.4602774E-001
3	0	2.223175749459988E+003	2.4595611E-001
3	0	2.223675749447357E+003	2.4588531E-001
3	0	2.224175749434726E+003	2.4580657E-001
3	0	2.224675749422095E+003	2.4572197E-001
3	0	2.225175749409464E+003	2.4561490E-001
3	0	2.225675749396833E+003	2.4548362E-001
3	0	2.226175749384201E+003	2.4538594E-001
3	0	2.226675749371570E+003	2.4532157E-001
3	0	2.227175749358939E+003	2.4524999E-001
3	0	2.227675749346308E+003	2.4517642E-001
3	0	2.228175749333677E+003	2.4509911E-001
3	0	2.228675749321046E+003	2.4502540E-001
3	0	2.229175749308415E+003	2.4492115E-001
3	0	2.229675749295784E+003	2.4479149E-001
3	0	2.230175749283153E+003	2.4469796E-001
3	0	2.230675749270522E+003	2.4463454E-001
3	0	2.231175749257891E+003	2.4456725E-001
3	0	2.231675749245260E+003	2.4449606E-001
3	0	2.232175749232629E+003	2.4442647E-001
3	0	2.232675749219998E+003	2.4434234E-001
3	0	2.233175749207367E+003	2.4423774E-001
3	0	2.233675749194736E+003	2.4410588E-001
3	0	2.234175749182104E+003	2.4400331E-001
3	0	2.234675749169473E+003	2.4394181E-001
3	0	2.235175749156842E+003	2.4386942E-001
3	0	2.235675749144211E+003	2.4379598E-001
3	0	2.236175749131580E+003	2.4372625E-001
3	0	2.236675749118949E+003	2.4364096E-001
3	0	2.237175749106318E+003	2.4353787E-001
3	0	2.237675749093687E+003	2.4341473E-001
3	0	2.238175749081056E+003	2.4332005E-001
3	0	2.238675749068425E+003	2.4326488E-001
3	0	2.239175749055794E+003	2.4320543E-001
3	0	2.239675749043163E+003	2.4313922E-001
3	0	2.240175749030532E+003	2.4307635E-001
3	0	2.240675749017901E+003	2.4300714E-001
3	0	2.241175749005270E+003	2.4291812E-001
3	0	2.241675748992639E+003	2.4280113E-001
3	0	2.242175748980007E+003	2.4271868E-001
3	0	2.242675748967376E+003	2.4266368E-001
3	0	2.243175748954745E+003	2.4260809E-001
3	0	2.243675748942114E+003	2.4254459E-001
3	0	2.244175748929483E+003	2.4248049E-001
3	0	2.244675748916852E+003	2.4241912E-001
3	0	2.245175748904221E+003	2.4232335E-001
3	0	2.245675748891590E+003	2.4220499E-001
3	0	2.246175748878959E+003	2.4211887E-001
3	0	2.246675748866328E+003	2.4206722E-001
3	0	2.247175748853697E+003	2.4201654E-001
3	0	2.247675748841066E+003	2.4196407E-001
3	0	2.248175748828435E+003	2.4190132E-001
3	0	2.248675748815804E+003	2.4184032E-001
3	0	2.249175748803173E+003	2.4175036E-001
3	0	2.249675748790542E+003	2.4164058E-001
3	0	2.250175748777910E+003	2.4155724E-001
3	0	2.250675748765279E+003	2.4150777E-001
3	0	2.251175748752648E+003	2.4145503E-001
3	0	2.251675748740017E+003	2.4139740E-001
3	0	2.252175748727386E+003	2.4134378E-001
3	0	2.252675748714755E+003	2.4127422E-001
3	0	2.253175748702124E+003	2.4117315E-001
3	0	2.253675748689493E+003	2.4105023E-001
3	0	2.254175748676862E+003	2.4096182E-001
3	0	2.254675748664231E+003	2.4090812E-001
3	0	2.255175748651600E+003	2.4084862E-001
3	0	2.255675748638969E+003	2.4078324E-001
3	0	2.256175748626338E+003	2.4071161E-001
3	0	2.256675748613707E+003	2.4064551E-001
3	0	2.257175748601076E+003	2.4055052E-001
3	0	2.257675748588445E+003	2.4043453E-001
3	0	2.258175748575813E+003	2.4035005E-001
3	0	2.258675748563182E+003	2.4029915E-001
3	0	2.259175748550551E+003	2.4024838E-001
3	0	2.259675748537920E+003	2.4019347E-001
3	0	2.260175748525289E+003	2.4013813E-001
3	0	2.260675748512658E+003	2.4007052E-001
3	0	2.261175748500027E+003	2.3998556E-001
3	0	2.261675748487396E+003	2.3987633E-001
3	0	2.262175748474765E+003	2.3980184E-001
3	0	2.262675748462134E+003	2.3975997E-001
3	0	2.263175748449503E+003	2.3971723E-001
3	0	2.263675748436872E+003	2.3966455E-001
3	0	2.264175748424241E+003	2.3961417E-001
3	0	2.264675748411610E+003	2.3955621E-001
3	0	2.265175748398979E+003	2.3947352E-001
3	0	2.265675748386348E+003	2.3937291E-001
3	0	2.266175748373716E+003	2.3929982E-001
3	0	2.266675748361085E+003	2.3925763E-001
3	0	2.267175748348454E+003	2.3921685E-001
3	0	2.267675748335823E+003	2.3916602E-001
3	0	2.268175748323192E+003	2.3911335E-001
3	0	2.268675748310561E+003	2.3905772E-001
3	0	2.269175748297930E+003	2.3898527E-001
3	0	2.269675748285299E+003	2.3888785E-001
3	0	2.270175748272668E+003	2.3881553E-001
3	0	2.270675748260037E+003	2.3877604E-001
3	0	2.271175748247406E+003	2.3873673E-001
3	0	2.271675748234775E+003	2.3868985E-001
3	0	2.272175748222144E+003	2.3863915E-001
3	0	2.272675748209513E+003	2.3857994E-001
3	0	2.273175748196882E+003	2.3849428E-001
3	0	2.273675748184251E+003	2.3838656E-001
3	0	2.274175748171619E+003	2.3831436E-001
3	0	2.274675748158988E+003	2.3826896E-001
3	0	2.275175748146357E+003	2.3822328E-001
3	0	2.275675748133726E+003	2.3817125E-001
3	0	2.276175748121095E+003	2.3811856E-001
3	0	2.276675748108464E+003	2.3806031E-001
3	0	2.277175748095833E+003	2.3798050E-001
3	0	2.277675748083202E+003	2.3787861E-001
3	0	2.278175748070571E+003	2.3780631E-001
3	0	2.278675748057940E+003	2.3776859E-001
3	0	2.279175748045309E+003	2.3773007E-001
3	0	2.279675748032678E+003	2.3768194E-001
3	0	2.280175748020047E+003	2.3763724E-001
3	0	2.280675748007416E+003	2.3758721E-001
3	0	2.281175747994785E+003	2.3750766E-001
3	0	2.281675747982154E+003	2.3741095E-001
3	0	2.282175747969522E+003	2.3733890E-001
3	0	2.282675747956891E+003	2.3731107E-001
3	0	2.282725747955628E+003	2.3729104E-001
3	0	2.328226346806186E+003	1.2404805E+000
3	0	2.328726346793555E+003	1.2244128E+000
3	0	2.329226346780924E+003	1.0691662E+000
3	0	2.329726346768293E+003	5.9952062E-001
3	0	2.330226346755662E+003	3.9320263E-001
3	0	2.330726346743031E+003	3.6178780E-001
3	0	2.331226346730400E+003	3.5168877E-001
3	0	2.331726346717769E+003	3.4370115E-001
3	0	2.332226346705138E+003	3.3746871E-001
3	0	2.332726346692507E+003	3.3269092E-001
3	0	2.333226346679876E+003	3.2893795E-001
3	0	2.333726346667245E+003	3.2590801E-001
3	0	2.334226346654614E+003	3.2343510E-001
3	0	2.334726346641983E+003	3.2136935E-001
3	0	2.335226346629352E+003	3.1959054E-001
3	0	2.335726346616721E+003	3.1803396E-001
3	0	2.336226346604089E+003	3.1663930E-001
3	0	2.336726346591458E+003	3.1536952E-001
3	0	2.337226346578827E+003	3.1419668E-001
3	0	2.337726346566196E+003	3.1308377E-001
3	0	2.338226346553565E+003	3.1206676E-001
3	0	2.338726346540934E+003	3.1114671E-001
3	0	2.339226346528303E+003	3.1025138E-001
3	0	2.339726346515672E+003	3.0939668E-001
3	0	2.340226346503041E+003	3.0858350E-001
3	0	2.340726346490410E+003	3.0778956E-001
3	0	2.341226346477779E+003	3.0699968E-001
3	0	2.341726346465148E+003	3.0621302E-001
3	0	2.342226346452517E+003	3.0547100E-001
3	0	2.342726346439886E+003	3.0477625E-001
3	0	2.343226346427255E+003	3.0409259E-001
3	0	2.343726346414624E+003	3.0341771E-001
3	0	2.344226346401992E+003	3.0275661E-001
3	0	2.344726346389361E+003	3.0209923E-001
3	0	2.345226346376730E+003	3.0142653E-001
3	0	2.345726346364099E+003	3.0074632E-001
3	0	2.346226346351468E+003	3.0010334E-001
3	0	2.346726346338837E+003	2.9949379E-001
3	0	2.347226346326206E+003	2.9889539E-001
3	0	2.347726346313575E+003	2.9830185E-001
3	0	2.348226346300944E+003	2.9771006E-001
3	0	2.348726346288313E+003	2.9711869E-001
3	0	2.349226346275682E+003	2.9650980E-001
3	0	2.349726346263051E+003	2.9588714E-001
3	0	2.350226346250420E+003	2.9531056E-001
3	0	2.350726346237789E+003	2.9475802E-001
3	0	2.351226346225158E+003	2.9420614E-001
3	0	2.351726346212527E+003	2.9366532E-001
3	0	2.352226346199895E+003	2.9313189E-001
3	0	2.352726346187264E+003	2.9258338E-001
3	0	2.353226346174633E+003	2.9202566E-001
3	0	2.353726346162002E+003	2.9145470E-001
3	0	2.354226346149371E+003	2.9091758E-001
3	0	2.354726346136740E+003	2.9041013E-001
3	0	2.355226346124109E+003	2.8990656E-001
3	0	2.355726346111478E+003	2.8940299E-001
3	0	2.356226346098847E+003	2.8890809E-001
3	0	2.356726346086216E+003	2.8841475E-001
3	0	2.357226346073585E+003	2.8789684E-001
3	0	2.357726346060954E+003	2.8737164E-001
3	0	2.358226346048323E+003	2.8688589E-001
3	0	2.358726346035692E+003	2.8642309E-001
3	0	2.359226346023061E+003	2.8596485E-001
3	0	2.359726346010430E+003	2.8551248E-001
3	0	2.360226345997798E+003	2.8505924E-001
3	0	2.360726345985167E+003	2.8460255E-001
3	0	2.361226345972536E+003	2.8413039E-001
3	0	2.361726345959905E+003	2.8364220E-001
3	0	2.362226345947274E+003	2.8318971E-001
3	0	2.362726345934643E+003	2.8276673E-001
3	0	2.363226345922012E+003	2.8234988E-001
3	0	2.363726345909381E+003	2.8193003E-001
3	0	2.364226345896750E+003	2.8150526E-001
3	0	2.364726345884119E+003	2.8107941E-001
3	0	2.365226345871488E+003	2.8064337E-001
3	0	2.365726345858857E+003	2.8019115E-001
3	0	2.366226345846226E+003	2.7977687E-001
3	0	2.366726345833595E+003	2.7939022E-001
3	0	2.367226345820964E+003	2.7900648E-001
3	0	2.367726345808333E+003	2.7861825E-001
3	0	2.368226345795701E+003	2.7823421E-001
3	0	2.368726345783070E+003	2.7784574E-001
3	0	2.369226345770439E+003	2.7743924E-001
3	0	2.369726345757808E+003	2.7701727E-001
3	0	2.370226345745177E+003	2.7663621E-001
3	0	2.370726345732546E+003	2.7628019E-001
3	0	2.371226345719915E+003	2.7592093E-001
3	0	2.371726345707284E+003	2.7556741E-001
3	0	2.372226345694653E+003	2.7520853E-001
3	0	2.372726345682022E+003	2.7484983E-001
3	0	2.373226345669391E+003	2.7447727E-001
3	0	2.373726345656760E+003	2.7408493E-001
3	0	2.374226345644129E+003	2.7373278E-001
3	0	2.374726345631498E+003	2.7340290E-001
3	0	2.375226345618867E+003	2.7307436E-001
3	0	2.375726345606236E+003	2.7274877E-001
3	0	2.376226345593604E+003	2.7242672E-001
3	0	2.376726345580973E+003	2.7210426E-001
3	0	2.377226345568342E+003	2.7176008E-001
3	0	2.377726345555711E+003	2.7139926E-001
3	0	2.378226345543080E+003	2.7107719E-001
3	0	2.378726345530449E+003	2.7079052E-001
3	0	2.379226345517818E+003	2.7049899E-001
3	0	2.379726345505187E+003	2.7020374E-001
3	0	2.380226345492556E+003	2.6990777E-001
3	0	2.380726345479925E+003	2.6961634E-001
3	0	2.381226345467294E+003	2.6930293E-001
3	0	2.381726345454663E+003	2.6897591E-001
3	0	2.382226345442032E+003	2.6868400E-001
3	0	2.382726345429401E+003	2.6842126E-001
3	0	2.383226345416770E+003	2.6815373E-001
3	0	2.383726345404139E+003	2.6788038E-001
3	0	2.384226345391507E+003	2.6761773E-001
3	0	2.384726345378876E+003	2.6734838E-001
3	0	2.385226345366245E+003	2.6706389E-001
3	0	2.385726345353614E+003	2.6675779E-001
3	0	2.386226345340983E+003	2.6649079E-001
3	0	2.386726345328352E+003	2.6624277E-001
3	0	2.387226345315721E+003	2.6600006E-001
3	0	2.387726345303090E+003	2.6575688E-001
3	0	2.388226345290459E+003	2.6551422E-001
3	0	2.388726345277828E+003	2.6525867E-001
3	0	2.389226345265197E+003	2.6498801E-001
3	0	2.389726345252566E+003	2.6470730E-001
3	0	2.390226345239935E+003	2.6446566E-001
3	0	2.390726345227304E+003	2.6424471E-001
3	0	2.391226345214673E+003	2.6402223E-001
3	0	2.391726345202042E+003	2.6379955E-001
3	0	2.392226345189410E+003	2.6357526E-001
3	0	2.392726345176779E+003	2.6334459E-001
3	0	2.393226345164148E+003	2.6309025E-001
3	0	2.393726345151517E+003	2.6281869E-001
3	0	2.394226345138886E+003	2.6258454E-001
3	0	2.394726345126255E+003	2.6237413E-001
3	0	2.395226345113624E+003	2.6216793E-001
3	0	2.395726345100993E+003	2.6195753E-001
3	0	2.396226345088362E+003	2.6174340E-001
3	0	2.396726345075731E+003	2.6152682E-001
3	0	2.397226345063100E+003	2.6129743E-001
3	0	2.397726345050469E+003	2.6104704E-001
3	0	2.398226345037838E+003	2.6083472E-001
3	0	2.398726345025207E+003	2.6064897E-001
3	0	2.399226345012576E+003	2.6045945E-001
3	0	2.399726344999945E+003	2.6026362E-001
3	0	2.400226344987314E+003	2.6007223E-001
3	0	2.400726344974682E+003	2.5987169E-001
3	0	2.401226344962051E+003	2.5965327E-001
3	0	2.401726344949420E+003	2.5942692E-001
3	0	2.402226344936789E+003	2.5923812E-001
3	0	2.402726344924158E+003	2.5907043E-001
3	0	2.403226344911527E+003	2.5889760E-001
3	0	2.403726344898896E+003	2.5872406E-001
3	0	2.404226344886265E+003	2.5854966E-001
3	0	2.404726344873634E+003	2.5837040E-001
3	0	2.405226344861003E+003	2.5817049E-001
3	0	2.405726344848372E+003	2.5795761E-001
3	0	2.406226344835741E+003	2.5777936E-001
3	0	2.406726344823110E+003	2.5761962E-001
3	0	2.407226344810479E+003	2.5746486E-001
3	0	2.407726344797848E+003	2.5730473E-001
3	0	2.408226344785217E+003	2.5714573E-001
3	0	2.408726344772585E+003	2.5697646E-001
3	0	2.409226344759954E+003	2.5678647E-001
3	0	2.409726344747323E+003	2.5658834E-001
3	0	2.410226344734692E+003	2.5641862E-001
3	0	2.410726344722061E+003	2.5627071E-001
3	0	2.411226344709430E+003	2.5612223E-001
3	0	2.411726344696799E+003	2.5596842E-001
3	0	2.412226344684168E+003	2.5581580E-001
3	0	2.412726344671537E+003	2.5565493E-001
3	0	2.413226344658906E+003	2.5547138E-001
3	0	2.413726344646275E+003	2.5528231E-001
3	0	2.414226344633644E+003	2.5512156E-001
3	0	2.414726344621013E+003	2.5498849E-001
3	0	2.415226344608382E+003	2.5484955E-001
3	0	2.415726344595751E+003	2.5471514E-001
3	0	2.416226344583120E+003	2.5457555E-001
3	0	2.416726344570488E+003	2.5442985E-001
3	0	2.417226344557857E+003	2.5426322E-001
3	0	2.417726344545226E+003	2.5408396E-001
3	0	2.418226344532595E+003	2.5393245E-001
3	0	2.418726344519964E+003	2.5381225E-001
3	0	2.419226344507333E+003	2.5368473E-001
3	0	2.419726344494702E+003	2.5356045E-001
3	0	2.420226344482071E+003	2.5343588E-001
3	0	2.420726344469440E+003	2.5330311E-001
3	0	2.421226344456809E+003	2.5314686E-001
3	0	2.421726344444178E+003	2.5298393E-001
3	0	2.422226344431547E+003	2.5285149E-001
3	0	2.422726344418916E+003	2.5273991E-001
3	0	2.423226344406285E+003	2.5261998E-001
3	0	2.423726344393654E+003	2.5250494E-001
3	0	2.424226344381023E+003	2.5238711E-001
3	0	2.424726344368391E+003	2.5226015E-001
3	0	2.425226344355760E+003	2.5211948E-001
3	0	2.425726344343129E+003	2.5196522E-001
3	0	2.426226344330498E+003	2.5184608E-001
3	0	2.426726344317867E+003	2.5174397E-001
3	0	2.427226344305236E+003	2.5163341E-001
3	0	2.427726344292605E+003	2.5152767E-001
3	0	2.428226344279974E+003	2.5141916E-001
3	0	2.428726344267343E+003	2.5131220E-001
3	0	2.429226344254712E+003	2.5117433E-001
3	0	2.429726344242081E+003	2.5101927E-001
3	0	2.430226344229450E+003	2.5090256E-001
3	0	2.430726344216819E+003	2.5080529E-001
3	0	2.431226344204188E+003	2.5070149E-001
3	0	2.431726344191557E+003	2.5059950E-001
3	0	2.432226344178926E+003	2.5050119E-001
3	0	2.432726344166294E+003	2.5039276E-001
3	0	2.433226344153663E+003	2.5026074E-001
3	0	2.433726344141032E+003	2.5010639E-001
3	0	2.434226344128401E+003	2.4999490E-001
3	0	2.434726344115770E+003	2.4989994E-001
3	0	2.435226344103139E+003	2.4979459E-001
3	0	2.435726344090508E+003	2.4969214E-001
3	0	2.436226344077877E+003	2.4959262E-001
3	0	2.436726344065246E+003	2.4947913E-001
3	0	2.437226344052615E+003	2.4934924E-001
3	0	2.437726344039984E+003	2.4921100E-001
3	0	2.438226344027353E+003	2.4909967E-001
3	0	2.438726344014722E+003	2.4901578E-001
3	0	2.439226344002091E+003	2.4891615E-001
3	0	2.439726343989460E+003	2.4882533E-001
3	0	2.440226343976829E+003	2.4873416E-001
3	0	2.440726343964197E+003	2.4863878E-001
3	0	2.441226343951566E+003	2.4851801E-001
3	0	2.441726343938935E+003	2.4837926E-001
3	0	2.442226343926304E+003	2.4827956E-001
3	0	2.442726343913673E+003	2.4819762E-001
3	0	2.443226343901042E+003	2.4811077E-001
3	0	2.443726343888411E+003	2.4802962E-001
3	0	2.444226343875780E+003	2.4794769E-001
3	0	2.444726343863149E+003	2.4785657E-001
3	0	2.445226343850518E+003	2.4775036E-001
3	0	2.445726343837887E+003	2.4761796E-001
3	0	2.446226343825256E+003	2.4752255E-001
3	0	2.446726343812625E+003	2.4745025E-001
3	0	2.447226343799994E+003	2.4736431E-001
3	0	2.447726343787363E+003	2.4728963E-001
3	0	2.448226343774732E+003	2.4721000E-001
3	0	2.448726343762100E+003	2.4711436E-001
3	0	2.449226343749469E+003	2.4700734E-001
3	0	2.449726343736838E+003	2.4687751E-001
3	0	2.450226343724207E+003	2.4678481E-001
3	0	2.450726343711576E+003	2.4671414E-001
3	0	2.451226343698945E+003	2.4663472E-001
3	0	2.451726343686314E+003	2.4655929E-001
3	0	2.452226343673683E+003	2.4648362E-001
3	0	2.452726343661052E+003	2.4639574E-001
3	0	2.453226343648421E+003	2.4628040E-001
3	0	2.453726343635790E+003	2.4614838E-001
3	0	2.454226343623159E+003	2.4605313E-001
3	0	2.454726343610528E+003	2.4597529E-001
3	0	2.455226343597897E+003	2.4588987E-001
3	0	2.455726343585266E+003	2.4581200E-001
3	0	2.456226343572635E+003	2.4573065E-001
3	0	2.456726343560003E+003	2.4563724E-001
3	0	2.457226343547372E+003	2.4552977E-001
3	0	2.457726343534741E+003	2.4540265E-001
3	0	2.458226343522110E+003	2.4531879E-001
3	0	2.458726343509479E+003	2.4524784E-001
3	0	2.459226343496848E+003	2.4516952E-001
3	0	2.459726343484217E+003	2.4509652E-001
3	0	2.460226343471586E+003	2.4502626E-001
3	0	2.460726343458955E+003	2.4494515E-001
3	0	2.461226343446324E+003	2.4483983E-001
3	0	2.461726343433693E+003	2.4472018E-001
3	0	2.462226343421062E+003	2.4463268E-001
3	0	2.462726343408431E+003	2.4457443E-001
3	0	2.463226343395800E+003	2.4450421E-001
3	0	2.463726343383169E+003	2.4444164E-001
3	0	2.464226343370538E+003	2.4437831E-001
3	0	2.464726343357906E+003	2.4430837E-001
3	0	2.465226343345275E+003	2.4420670E-001
3	0	2.465726343332644E+003	2.4409162E-001
3	0	2.466226343320013E+003	2.4401437E-001
3	0	2.466726343307382E+003	2.4395843E-001
3	0	2.467226343294751E+003	2.4389479E-001
3	0	2.467726343282120E+003	2.4383737E-001
3	0	2.468226343269489E+003	2.4377708E-001
3	0	2.468726343256858E+003	2.4370438E-001
3	0	2.469226343244227E+003	2.4361102E-001
3	0	2.469726343231596E+003	2.4350524E-001
3	0	2.470226343218965E+003	2.4342640E-001
3	0	2.470726343206334E+003	2.4337465E-001
3	0	2.471226343193703E+003	2.4331522E-001
3	0	2.471726343181072E+003	2.4325611E-001
3	0	2.472226343168441E+003	2.4319366E-001
3	0	2.472726343155809E+003	2.4312384E-001
3	0	2.473226343143178E+003	2.4303627E-001
3	0	2.473726343130547E+003	2.4292745E-001
3	0	2.474226343117916E+003	2.4285360E-001
3	0	2.474726343105285E+003	2.4279004E-001
3	0	2.475226343092654E+003	2.4273098E-001
3	0	2.475726343080023E+003	2.4266754E-001
3	0	2.476226343067392E+003	2.4260008E-001
3	0	2.476726343054761E+003	2.4250080E-001
3	0	2.477226343042130E+003	2.4239488E-001
3	0	2.477726343029499E+003	2.4230810E-001
3	0	2.478226343016868E+003	2.4224140E-001
3	0	2.478726343004237E+003	2.4220164E-001
3	0	2.479226342991606E+003	2.4214715E-001
3	0	2.479726342978975E+003	2.4209112E-001
3	0	2.480226342966344E+003	2.4203780E-001
3	0	2.480726342953712E+003	2.4197191E-001
3	0	2.481226342941081E+003	2.4187970E-001
3	0	2.481726342928450E+003	2.4176688E-001
3	0	2.482226342915819E+003	2.4169669E-001
3	0	2.482726342903188E+003	2.4164769E-001
3	0	2.483226342890557E+003	2.4159718E-001
3	0	2.483726342877926E+003	2.4153863E-001
3	0	2.484226342865295E+003	2.4148504E-001
3	0	2.484726342852664E+003	2.4141884E-001
3	0	2.485226342840033E+003	2.4133149E-001
3	0	2.485726342827402E+003	2.4122790E-001
3	0	2.486226342814771E+003	2.4114904E-001
3	0	2.486726342802140E+003	2.4110828E-001
3	0	2.487226342789509E+003	2.4106339E-001
3	0	2.487726342776878E+003	2.4101071E-001
3	0	2.488226342764247E+003	2.4095851E-001
3	0	2.488726342751615E+003	2.4089156E-001
3	0	2.489226342738984E+003	2.4080552E-001
3	0	2.489726342726353E+003	2.4070229E-001
3	0	2.490226342713722E+003	2.4063709E-001
3	0	2.490726342701091E+003	2.4059710E-001
3	0	2.491226342688460E+003	2.4055362E-001
3	0	2.491726342675829E+003	2.4050143E-001
3	0	2.492226342663198E+003	2.4045219E-001
3	0	2.492726342650567E+003	2.4039066E-001
3	0	2.493226342637936E+003	2.4029928E-001
3	0	2.493726342625305E+003	2.4019234E-001
3	0	2.494226342612674E+003	2.4012235E-001
3	0	2.494726342600043E+003	2.4008295E-001
3	0	2.495226342587412E+003	2.4003164E-001
3	0	2.495726342574781E+003	2.3997775E-001
3	0	2.496226342562150E+003	2.3991835E-001
3	0	2.496726342549518E+003	2.3984808E-001
3	0	2.497226342536887E+003	2.3975469E-001
3	0	2.497726342524256E+003	2.3964760E-001
3	0	2.498226342511625E+003	2.3957613E-001
3	0	2.498726342498994E+003	2.3953426E-001
3	0	2.499226342486363E+003	2.3948862E-001
3	0	2.499726342473732E+003	2.3943768E-001
3	0	2.500226342461101E+003	2.3939565E-001
3	0	2.500726342448470E+003	2.3932859E-001
3	0	2.501226342435839E+003	2.3924735E-001
3	0	2.501726342423208E+003	2.3914196E-001
3	0	2.502226342410577E+003	2.3908009E-001
3	0	2.502726342397946E+003	2.3904252E-001
3	0	2.503226342385315E+003	2.3900551E-001
3	0	2.503726342372684E+003	2.3896003E-001
3	0	2.504226342360053E+003	2.3891655E-001
3	0	2.504726342347421E+003	2.3886542E-001
3	0	2.505226342334790E+003	2.3878691E-001
3	0	2.505726342322159E+003	2.3868592E-001
3	0	2.506226342309528E+003	2.3862606E-001
3	0	2.506726342296897E+003	2.3859590E-001
3	0	2.507226342284266E+003	2.3855489E-001
3	0	2.507726342271635E+003	2.3851198E-001
3	0	2.507776342270372E+003	2.3848858E-001
3	0	2.553276941120930E+003	1.2392491E+000
3	0	2.553776941108299E+003	1.2233393E+000
3	0	2.554276941095668E+003	1.0611112E+000
3	0	2.554776941083037E+003	5.8499277E-001
3	0	2.555276941070406E+003	3.9182031E-001
3	0	2.555776941057775E+003	3.6287475E-001
3	0	2.556276941045144E+003	3.5281819E-001
3	0	2.556776941032513E+003	3.4486789E-001
3	0	2.557276941019882E+003	3.3869782E-001
3	0	2.557776941007251E+003	3.3395231E-001
3	0	2.558276940994620E+003	3.3026388E-001
3	0	2.558776940981988E+003	3.2731336E-001
3	0	2.559276940969357E+003	3.2487252E-001
3	0	2.559776940956726E+003	3.2281098E-001
3	0	2.560276940944095E+003	3.2103142E-001
3	0	2.560776940931464E+003	3.1945661E-001
3	0	2.561276940918833E+003	3.1804347E-001
3	0	2.561776940906202E+003	3.1674358E-001
3	0	2.562276940893571E+003	3.1557083E-001
3	0	2.562776940880940E+003	3.1451246E-001
3	0	2.563276940868309E+003	3.1352404E-001
3	0	2.563776940855678E+003	3.1258550E-001
3	0	2.564276940843047E+003	3.1168795E-001
3	0	2.564776940830416E+003	3.1082675E-001
3	0	2.565276940817785E+003	3.0997333E-001
3	0	2.565776940805154E+003	3.0913493E-001
3	0	2.566276940792523E+003	3.0835605E-001
3	0	2.566776940779891E+003	3.0761811E-001
3	0	2.567276940767260E+003	3.0689010E-001
3	0	2.567776940754629E+003	3.0618024E-001
3	0	2.568276940741998E+003	3.0548251E-001
3	0	2.568776940729367E+003	3.0479348E-001
3	0	2.569276940716736E+003	3.0409858E-001
3	0	2.569776940704105E+003	3.0339825E-001
3	0	2.570276940691474E+003	3.0274242E-001
3	0	2.570776940678843E+003	3.0211437E-001
3	0	2.571276940666212E+003	3.0149096E-001
3	0	2.571776940653581E+003	3.0087963E-001
3	0	2.572276940640950E+003	3.0026889E-001
3	0	2.572776940628319E+003	2.9965934E-001
3	0	2.573276940615688E+003	2.9903427E-001
3	0	2.573776940603057E+003	2.9840529E-001
3	0	2.574276940590426E+003	2.9781452E-001
3	0	2.574776940577794E+003	2.9724786E-001
3	0	2.575276940565163E+003	2.9668203E-001
3	0	2.575776940552532E+003	2.9611847E-001
3	0	2.576276940539901E+003	2.9556549E-001
3	0	2.576776940527270E+003	2.9500851E-001
3	0	2.577276940514639E+003	2.9443651E-001
3	0	2.577776940502008E+003	2.9385462E-001
3	0	2.578276940489377E+003	2.9332432E-001
3	0	2.578776940476746E+003	2.9280704E-001
3	0	2.579276940464115E+003	2.9229432E-001
3	0	2.579776940451484E+003	2.9178485E-001
3	0	2.580276940438853E+003	2.9127195E-001
3	0	2.580776940426222E+003	2.9076171E-001
3	0	2.581276940413591E+003	2.9023218E-001
3	0	2.581776940400960E+003	2.8970283E-001
3	0	2.582276940388329E+003	2.8920877E-001
3	0	2.582776940375697E+003	2.8874379E-001
3	0	2.583276940363066E+003	2.8827786E-001
3	0	2.583776940350435E+003	2.8780812E-001
3	0	2.584276940337804E+003	2.8733936E-001
3	0	2.584776940325173E+003	2.8687537E-001
3	0	2.585276940312542E+003	2.8637785E-001
3	0	2.585776940299911E+003	2.8588605E-001
3	0	2.586276940287280E+003	2.8543922E-001
3	0	2.586776940274649E+003	2.8500867E-001
3	0	2.587276940262018E+003	2.8457385E-001
3	0	2.587776940249387E+003	2.8414223E-001
3	0	2.588276940236756E+003	2.8371188E-001
3	0	2.588776940224125E+003	2.8328225E-001
3	0	2.589276940211494E+003	2.8282782E-001
3	0	2.589776940198863E+003	2.8237420E-001
3	0	2.590276940186232E+003	2.8196520E-001
3	0	2.590776940173600E+003	2.8156871E-001
3	0	2.591276940160969E+003	2.8116435E-001
3	0	2.591776940148338E+003	2.8077003E-001
3	0	2.592276940135707E+003	2.8037292E-001
3	0	2.592776940123076E+003	2.7996898E-001
3	0	2.593276940110445E+003	2.7955976E-001
3	0	2.593776940097814E+003	2.7913925E-001
3	0	2.594276940085183E+003	2.7875721E-001
3	0	2.594776940072552E+003	2.7838606E-001
3	0	2.595276940059921E+003	2.7801558E-001
3	0	2.595776940047290E+003	2.7762848E-001
3	0	2.596276940034659E+003	2.7726123E-001
3	0	2.596776940022028E+003	2.7688622E-001
3	0	2.597276940009397E+003	2.7648902E-001
3	0	2.597776939996766E+003	2.7609020E-001
3	0	2.598276939984135E+003	2.7573678E-001
3	0	2.598776939971503E+003	2.7540547E-001
3	0	2.599276939958872E+003	2.7506950E-001
3	0	2.599776939946241E+003	2.7473930E-001
3	0	2.600276939933610E+003	2.7441746E-001
3	0	2.600776939920979E+003	2.7408162E-001
3	0	2.601276939908348E+003	2.7372786E-001
3	0	2.601776939895717E+003	2.7336693E-001
3	0	2.602276939883086E+003	2.7304810E-001
3	0	2.602776939870455E+003	2.7274621E-001
3	0	2.603276939857824E+003	2.7244604E-001
3	0	2.603776939845193E+003	2.7215219E-001
3	0	2.604276939832562E+003	2.7185631E-001
3	0	2.604776939819931E+003	2.7154875E-001
3	0	2.605276939807300E+003	2.7122456E-001
3	0	2.605776939794669E+003	2.7088991E-001
3	0	2.606276939782038E+003	2.7059782E-001
3	0	2.606776939769406E+003	2.7032244E-001
3	0	2.607276939756775E+003	2.7005127E-001
3	0	2.607776939744144E+003	2.6977545E-001
3	0	2.608276939731513E+003	2.6950869E-001
3	0	2.608776939718882E+003	2.6923287E-001
3	0	2.609276939706251E+003	2.6893377E-001
3	0	2.609776939693620E+003	2.6862246E-001
3	0	2.610276939680989E+003	2.6835474E-001
3	0	2.610776939668358E+003	2.6810929E-001
3	0	2.611276939655727E+003	2.6785770E-001
3	0	2.611776939643096E+003	2.6760620E-001
3	0	2.612276939630465E+003	2.6735446E-001
3	0	2.612776939617834E+003	2.6710069E-001
3	0	2.613276939605203E+003	2.6682004E-001
3	0	2.613776939592572E+003	2.6652837E-001
3	0	2.614276939579941E+003	2.6627895E-001
3	0	2.614776939567309E+003	2.6605543E-001
3	0	2.615276939554678E+003	2.6582119E-001
3	0	2.615776939542047E+003	2.6558331E-001
3	0	2.616276939529416E+003	2.6534921E-001
3	0	2.616776939516785E+003	2.6510429E-001
3	0	2.617276939504154E+003	2.6484516E-001
3	0	2.617776939491523E+003	2.6457664E-001
3	0	2.618276939478892E+003	2.6434812E-001
3	0	2.618776939466261E+003	2.6413819E-001
3	0	2.619276939453630E+003	2.6392734E-001
3	0	2.619776939440999E+003	2.6371521E-001
3	0	2.620276939428368E+003	2.6350600E-001
3	0	2.620776939415737E+003	2.6329088E-001
3	0	2.621276939403106E+003	2.6305622E-001
3	0	2.621776939390475E+003	2.6280531E-001
3	0	2.622276939377844E+003	2.6259705E-001
3	0	2.622776939365212E+003	2.6241001E-001
3	0	2.623276939352581E+003	2.6221612E-001
3	0	2.623776939339950E+003	2.6202402E-001
3	0	2.624276939327319E+003	2.6183006E-001
3	0	2.624776939314688E+003	2.6163051E-001
3	0	2.625276939302057E+003	2.6141351E-001
3	0	2.625776939289426E+003	2.6118198E-001
3	0	2.626276939276795E+003	2.6098871E-001
3	0	2.626776939264164E+003	2.6081753E-001
3	0	2.627276939251533E+003	2.6064628E-001
3	0	2.627776939238902E+003	2.6046628E-001
3	0	2.628276939226271E+003	2.6029015E-001
3	0	2.628776939213640E+003	2.6010066E-001
3	0	2.629276939201009E+003	2.5989467E-001
3	0	2.629776939188378E+003	2.5968185E-001
3	0	2.630276939175747E+003	2.5950658E-001
3	0	2.630776939163115E+003	2.5935304E-001
3	0	2.631276939150484E+003	2.5919592E-001
3	0	2.631776939137853E+003	2.5903064E-001
3	0	2.632276939125222E+003	2.5887081E-001
3	0	2.632776939112591E+003	2.5869837E-001
3	0	2.633276939099960E+003	2.5850093E-001
3	0	2.633776939087329E+003	2.5829619E-001
3	0	2.634276939074698E+003	2.5812823E-001
3	0	2.634776939062067E+003	2.5798196E-001
3	0	2.635276939049436E+003	2.5782800E-001
3	0	2.635776939036805E+003	2.5766858E-001
3	0	2.636276939024174E+003	2.5751412E-001
3	0	2.636776939011543E+003	2.5735000E-001
3	0	2.637276938998912E+003	2.5716686E-001
3	0	2.637776938986281E+003	2.5696537E-001
3	0	2.638276938973650E+003	2.5680861E-001
3	0	2.638776938961018E+003	2.5666821E-001
3	0	2.639276938948387E+003	2.5652388E-001
3	0	2.639776938935756E+003	2.5638282E-001
3	0	2.640276938923125E+003	2.5624484E-001
3	0	2.640776938910494E+003	2.5609586E-001
3	0	2.641276938897863E+003	2.5592816E-001
3	0	2.641776938885232E+003	2.5574288E-001
3	0	2.642276938872601E+003	2.5560269E-001
3	0	2.642776938859970E+003	2.5547868E-001
3	0	2.643276938847339E+003	2.5535330E-001
3	0	2.643776938834708E+003	2.5522155E-001
3	0	2.644276938822077E+003	2.5509232E-001
3	0	2.644776938809446E+003	2.5495729E-001
3	0	2.645276938796815E+003	2.5479680E-001
3	0	2.645776938784184E+003	2.5462124E-001
3	0	2.646276938771553E+003	2.5448683E-001
3	0	2.646776938758921E+003	2.5437328E-001
3	0	2.647276938746290E+003	2.5425106E-001
3	0	2.647776938733659E+003	2.5413480E-001
3	0	2.648276938721028E+003	2.5401613E-001
3	0	2.648776938708397E+003	2.5388393E-001
3	0	2.649276938695766E+003	2.5373551E-001
3	0	2.649776938683135E+003	2.5357398E-001
3	0	2.650276938670504E+003	2.5344867E-001
3	0	2.650776938657873E+003	2.5333869E-001
3	0	2.651276938645242E+003	2.5322536E-001
3	0	2.651776938632611E+003	2.5311098E-001
3	0	2.652276938619980E+003	2.5299823E-001
3	0	2.652776938607349E+003	2.5288311E-001
3	0	2.653276938594718E+003	2.5273514E-001
3	0	2.653776938582087E+003	2.5257003E-001
3	0	2.654276938569456E+003	2.5244823E-001
3	0	2.654776938556824E+003	2.5234601E-001
3	0	2.655276938544193E+003	2.5224173E-001
3	0	2.655776938531562E+003	2.5213420E-001
3	0	2.656276938518931E+003	2.5202265E-001
3	0	2.656776938506300E+003	2.5190970E-001
3	0	2.657276938493669E+003	2.5175741E-001
3	0	2.657776938481038E+003	2.5160027E-001
3	0	2.658276938468407E+003	2.5148100E-001
3	0	2.658776938455776E+003	2.5138292E-001
3	0	2.659276938443145E+003	2.5128019E-001
3	0	2.659776938430514E+003	2.5117788E-001
3	0	2.660276938417883E+003	2.5107712E-001
3	0	2.660776938405252E+003	2.5097042E-001
3	0	2.661276938392621E+003	2.5084376E-001
3	0	2.661776938379990E+003	2.5069672E-001
3	0	2.662276938367359E+003	2.5058889E-001
3	0	2.662776938354727E+003	2.5050727E-001
3	0	2.663276938342096E+003	2.5041467E-001
3	0	2.663776938329465E+003	2.5032511E-001
3	0	2.664276938316834E+003	2.5023124E-001
3	0	2.664776938304203E+003	2.5012824E-001
3	0	2.665276938291572E+003	2.5000307E-001
3	0	2.665776938278941E+003	2.4986632E-001
3	0	2.666276938266310E+003	2.4977164E-001
3	0	2.666776938253679E+003	2.4969266E-001
3	0	2.667276938241048E+003	2.4961102E-001
3	0	2.667776938228417E+003	2.4952242E-001
3	0	2.668276938215786E+003	2.4944012E-001
3	0	2.668776938203155E+003	2.4934784E-001
3	0	2.669276938190524E+003	2.4923162E-001
3	0	2.669776938177893E+003	2.4910025E-001
3	0	2.670276938165262E+003	2.4900819E-001
3	0	2.670776938152630E+003	2.4893197E-001
3	0	2.671276938139999E+003	2.4885111E-001
3	0	2.671776938127368E+003	2.4877258E-001
3	0	2.672276938114737E+003	2.4869086E-001
3	0	2.672776938102106E+003	2.4859686E-001
3	0	2.673276938089475E+003	2.4848416E-001
3	0	2.673776938076844E+003	2.4835402E-001
3	0	2.674276938064213E+003	2.4825864E-001
3	0	2.674776938051582E+003	2.4818553E-001
3	0	2.675276938038951E+003	2.4811232E-001
3	0	2.675776938026320E+003	2.4803121E-001
3	0	2.676276938013689E+003	2.4794678E-001
3	0	2.676776938001058E+003	2.4785759E-001
3	0	2.677276937988427E+003	2.4773724E-001
3	0	2.677776937975796E+003	2.4760386E-001
3	0	2.678276937963165E+003	2.4751024E-001
3	0	2.678776937950533E+003	2.4743250E-001
3	0	2.679276937937902E+003	2.4735972E-001
3	0	2.679776937925271E+003	2.4728301E-001
3	0	2.680276937912640E+003	2.4720323E-001
3	0	2.680776937900009E+003	2.4712074E-001
3	0	2.681276937887378E+003	2.4700792E-001
3	0	2.681776937874747E+003	2.4688344E-001
3	0	2.682276937862116E+003	2.4679406E-001
3	0	2.682776937849485E+003	2.4672675E-001
3	0	2.683276937836854E+003	2.4665754E-001
3	0	2.683776937824223E+003	2.4659249E-001
3	0	2.684276937811592E+003	2.4652389E-001
3	0	2.684776937798961E+003	2.4645276E-001
3	0	2.685276937786330E+003	2.4634601E-001
3	0	2.685776937773699E+003	2.4622372E-001
3	0	2.686276937761068E+003	2.4614681E-001
3	0	2.686776937748436E+003	2.4608409E-001
3	0	2.687276937735805E+003	2.4602130E-001
3	0	2.687776937723174E+003	2.4596104E-001
3	0	2.688276937710543E+003	2.4589249E-001
3	0	2.688776937697912E+003	2.4581578E-001
3	0	2.689276937685281E+003	2.4572141E-001
3	0	2.689776937672650E+003	2.4560702E-001
3	0	2.690276937660019E+003	2.4552947E-001
3	0	2.690776937647388E+003	2.4547540E-001
3	0	2.691276937634757E+003	2.4542144E-001
3	0	2.691776937622126E+003	2.4536061E-001
3	0	2.692276937609495E+003	2.4530315E-001
3	0	2.692776937596864E+003	2.4523132E-001
3	0	2.693276937584233E+003	2.4513541E-001
3	0	2.693776937571602E+003	2.4502027E-001
3	0	2.694276937558971E+003	2.4494436E-001
3	0	2.694776937546339E+003	2.4488170E-001
3	0	2.695276937533708E+003	2.4481930E-001
3	0	2.695776937521077E+003	2.4475440E-001
3	0	2.696276937508446E+003	2.4469213E-001
3	0	2.696776937495815E+003	2.4461111E-001
3	0	2.697276937483184E+003	2.4451362E-001
3	0	2.697776937470553E+003	2.4438991E-001
3	0	2.698276937457922E+003	2.4431503E-001
3	0	2.698776937445291E+003	2.4425572E-001
3	0	2.699276937432660E+003	2.4419020E-001
3	0	2.699776937420029E+003	2.4412531E-001
3	0	2.700276937407398E+003	2.4406159E-001
3	0	2.700776937394767E+003	2.4398537E-001
3	0	2.701276937382136E+003	2.4389569E-001
3	0	2.701776937369505E+003	2.4378140E-001
3	0	2.702276937356874E+003	2.4371110E-001
3	0	2.702776937344242E+003	2.4366041E-001
3	0	2.703276937331611E+003	2.4360977E-001
3	0	2.703776937318980E+003	2.4355374E-001
3	0	2.704276937306349E+003	2.4349606E-001
3	0	2.704776937293718E+003	2.4342902E-001
3	0	2.705276937281087E+003	2.4333607E-001
3	0	2.705776937268456E+003	2.4323153E-001
3	0	2.706276937255825E+003	2.4316351E-001
3	0	2.706776937243194E+003	2.4311024E-001
3	0	2.707276937230563E+003	2.4306025E-001
3	0	2.707776937217932E+003	2.4300678E-001
3	0	2.708276937205301E+003	2.4294972E-001
3	0	2.708776937192670E+003	2.4288227E-001
3	0	2.709276937180039E+003	2.4278873E-001
3	0	2.709776937167408E+003	2.4268854E-001
3	0	2.710276937154777E+003	2.4262181E-001
3	0	2.710776937142145E+003	2.4257469E-001
3	0	2.711276937129514E+003	2.4252406E-001
3	0	2.711776937116883E+003	2.4246657E-001
3	0	2.712276937104252E+003	2.4241693E-001
3	0	2.712776937091621E+003	2.4234588E-001
3	0	2.713276937078990E+003	2.4225853E-001
3	0	2.713776937066359E+003	2.4215606E-001
3	0	2.714276937053728E+003	2.4209024E-001
3	0	2.714776937041097E+003	2.4204203E-001
3	0	2.715276937028466E+003	2.4198963E-001
3	0	2.715776937015835E+003	2.4194185E-001
3	0	2.716276937003204E+003	2.4188580E-001
3	0	2.716776936990573E+003	2.4181868E-001
3	0	2.717276936977942E+003	2.4172240E-001
3	0	2.717776936965311E+003	2.4161395E-001
3	0	2.718276936952680E+003	2.4154355E-001
3	0	2.718776936940048E+003	2.4149044E-001
3	0	2.719276936927417E+003	2.4144489E-001
3	0	2.719776936914786E+003	2.4139112E-001
3	0	2.720276936902155E+003	2.4133654E-001
3	0	2.720776936889524E+003	2.4127594E-001
3	0	2.721276936876893E+003	2.4118571E-001
3	0	2.721776936864262E+003	2.4108464E-001
3	0	2.722276936851631E+003	2.4102476E-001
3	0	2.722776936839000E+003	2.4097818E-001
3	0	2.723276936826369E+003	2.4093717E-001
3	0	2.723776936813738E+003	2.4089068E-001
3	0	2.724276936801107E+003	2.4084142E-001
3	0	2.724776936788476E+003	2.4078541E-001
3	0	2.725276936775845E+003	2.4069962E-001
3	0	2.725776936763214E+003	2.4060772E-001
3	0	2.726276936750583E+003	2.4054833E-001
3	0	2.726776936737951E+003	2.4051183E-001
3	0	2.727276936725320E+003	2.4046727E-001
3	0	2.727776936712689E+003	2.4042408E-001
3	0	2.728276936700058E+003	2.4038588E-001
3	0	2.728776936687427E+003	2.4032970E-001
3	0	2.729276936674796E+003	2.4024843E-001
3	0	2.729776936662165E+003	2.4015233E-001
3	0	2.730276936649534E+003	2.4009906E-001
3	0	2.730776936636903E+003	2.4005890E-001
3	0	2.731276936624272E+003	2.4002303E-001
3	0	2.731776936611641E+003	2.3998526E-001
3	0	2.732276936599010E+003	2.3994625E-001
3	0	2.732776936586379E+003	2.3989064E-001
3	0	2.732826936585116E+003	2.3985569E-001
3	0	2.778327535435674E+003	1.2375351E+000
3	0	2.778827535423043E+003	1.2212504E+000
3	0	2.779327535410412E+003	1.0459421E+000
3	0	2.779827535397781E+003	5.6728542E-001
3	0	2.780327535385150E+003	3.8950467E-001
3	0	2.780827535372518E+003	3.6307552E-001
3	0	2.781327535359887E+003	3.5314161E-001
3	0	2.781827535347256E+003	3.4526956E-001
3	0	2.782327535334625E+003	3.3919480E-001
3	0	2.782827535321994E+003	3.3453959E-001
3	0	2.783327535309363E+003	3.3089247E-001
3	0	2.783827535296732E+003	3.2794893E-001
3	0	2.784327535284101E+003	3.2552364E-001
3	0	2.784827535271470E+003	3.2345685E-001
3	0	2.785327535258839E+003	3.2165715E-001
3	0	2.785827535246208E+003	3.2005951E-001
3	0	2.786327535233577E+003	3.1867123E-001
3	0	2.786827535220946E+003	3.1742555E-001
3	0	2.787327535208315E+003	3.1627142E-001
3	0	2.787827535195684E+003	3.1519818E-001
3	0	2.788327535183053E+003	3.1420279E-001
3	0	2.788827535170421E+003	3.1325382E-001
3	0	2.789327535157790E+003	3.1232870E-001
3	0	2.789827535145159E+003	3.1143191E-001
3	0	2.790327535132528E+003	3.1061164E-001
3	0	2.790827535119897E+003	3.0981994E-001
3	0	2.791327535107266E+003	3.0905116E-001
3	0	2.791827535094635E+003	3.0830637E-001
3	0	2.792327535082004E+003	3.0758336E-001
3	0	2.792827535069373E+003	3.0686489E-001
3	0	2.793327535056742E+003	3.0613846E-001
3	0	2.793827535044111E+003	3.0541512E-001
3	0	2.794327535031480E+003	3.0474475E-001
3	0	2.794827535018849E+003	3.0408901E-001
3	0	2.795327535006218E+003	3.0345201E-001
3	0	2.795827534993587E+003	3.0281156E-001
3	0	2.796327534980956E+003	3.0218887E-001
3	0	2.796827534968324E+003	3.0155990E-001
3	0	2.797327534955693E+003	3.0091935E-001
3	0	2.797827534943062E+003	3.0027157E-001
3	0	2.798327534930431E+003	2.9968095E-001
3	0	2.798827534917800E+003	2.9909459E-001
3	0	2.799327534905169E+003	2.9851806E-001
3	0	2.799827534892538E+003	2.9795048E-001
3	0	2.800327534879907E+003	2.9739192E-001
3	0	2.800827534867276E+003	2.9683125E-001
3	0	2.801327534854645E+003	2.9624420E-001
3	0	2.801827534842014E+003	2.9565990E-001
3	0	2.802327534829383E+003	2.9512390E-001
3	0	2.802827534816752E+003	2.9459786E-001
3	0	2.803327534804121E+003	2.9407030E-001
3	0	2.803827534791490E+003	2.9355717E-001
3	0	2.804327534778859E+003	2.9305351E-001
3	0	2.804827534766227E+003	2.9253349E-001
3	0	2.805327534753596E+003	2.9200360E-001
3	0	2.805827534740965E+003	2.9146689E-001
3	0	2.806327534728334E+003	2.9097366E-001
3	0	2.806827534715703E+003	2.9048735E-001
3	0	2.807327534703072E+003	2.9000378E-001
3	0	2.807827534690441E+003	2.8952703E-001
3	0	2.808327534677810E+003	2.8905433E-001
3	0	2.808827534665179E+003	2.8857520E-001
3	0	2.809327534652548E+003	2.8808588E-001
3	0	2.809827534639917E+003	2.8758577E-001
3	0	2.810327534627286E+003	2.8713059E-001
3	0	2.810827534614655E+003	2.8668639E-001
3	0	2.811327534602024E+003	2.8624070E-001
3	0	2.811827534589393E+003	2.8580329E-001
3	0	2.812327534576762E+003	2.8536525E-001
3	0	2.812827534564130E+003	2.8491440E-001
3	0	2.813327534551499E+003	2.8445375E-001
3	0	2.813827534538868E+003	2.8399017E-001
3	0	2.814327534526237E+003	2.8356650E-001
3	0	2.814827534513606E+003	2.8315255E-001
3	0	2.815327534500975E+003	2.8274140E-001
3	0	2.815827534488344E+003	2.8233144E-001
3	0	2.816327534475713E+003	2.8193620E-001
3	0	2.816827534463082E+003	2.8151932E-001
3	0	2.817327534450451E+003	2.8108919E-001
3	0	2.817827534437820E+003	2.8065938E-001
3	0	2.818327534425189E+003	2.8027540E-001
3	0	2.818827534412558E+003	2.7989468E-001
3	0	2.819327534399927E+003	2.7951792E-001
3	0	2.819827534387296E+003	2.7914774E-001
3	0	2.820327534374665E+003	2.7877927E-001
3	0	2.820827534362033E+003	2.7840126E-001
3	0	2.821327534349402E+003	2.7801105E-001
3	0	2.821827534336771E+003	2.7761552E-001
3	0	2.822327534324140E+003	2.7726704E-001
3	0	2.822827534311509E+003	2.7692214E-001
3	0	2.823327534298878E+003	2.7657977E-001
3	0	2.823827534286247E+003	2.7624008E-001
3	0	2.824327534273616E+003	2.7590692E-001
3	0	2.824827534260985E+003	2.7556372E-001
3	0	2.825327534248354E+003	2.7519882E-001
3	0	2.825827534235723E+003	2.7483693E-001
3	0	2.826327534223092E+003	2.7452865E-001
3	0	2.826827534210461E+003	2.7421606E-001
3	0	2.827327534197830E+003	2.7390063E-001
3	0	2.827827534185199E+003	2.7359307E-001
3	0	2.828327534172568E+003	2.7328807E-001
3	0	2.828827534159936E+003	2.7297956E-001
3	0	2.829327534147305E+003	2.7264324E-001
3	0	2.829827534134674E+003	2.7231354E-001
3	0	2.830327534122043E+003	2.7202556E-001
3	0	2.830827534109412E+003	2.7174506E-001
3	0	2.831327534096781E+003	2.7145526E-001
3	0	2.831827534084150E+003	2.7117079E-001
3	0	2.832327534071519E+003	2.7088994E-001
3	0	2.832827534058888E+003	2.7059698E-001
3	0	2.833327534046257E+003	2.7029130E-001
3	0	2.833827534033626E+003	2.6997852E-001
3	0	2.834327534020995E+003	2.6972201E-001
3	0	2.834827534008364E+003	2.6946068E-001
3	0	2.835327533995733E+003	2.6920283E-001
3	0	2.835827533983102E+003	2.6894593E-001
3	0	2.836327533970471E+003	2.6868966E-001
3	0	2.836827533957839E+003	2.6842114E-001
3	0	2.837327533945208E+003	2.6813444E-001
3	0	2.837827533932577E+003	2.6783568E-001
3	0	2.838327533919946E+003	2.6758888E-001
3	0	2.838827533907315E+003	2.6734415E-001
3	0	2.839327533894684E+003	2.6710269E-001
3	0	2.839827533882053E+003	2.6686352E-001
3	0	2.840327533869422E+003	2.6662362E-001
3	0	2.840827533856791E+003	2.6638156E-001
3	0	2.841327533844160E+003	2.6611975E-001
3	0	2.841827533831529E+003	2.6585200E-001
3	0	2.842327533818898E+003	2.6563272E-001
3	0	2.842827533806267E+003	2.6541558E-001
3	0	2.843327533793636E+003	2.6519680E-001
3	0	2.843827533781005E+003	2.6498115E-001
3	0	2.844327533768374E+003	2.6476958E-001
3	0	2.844827533755742E+003	2.6455384E-001
3	0	2.845327533743111E+003	2.6430941E-001
3	0	2.845827533730480E+003	2.6406106E-001
3	0	2.846327533717849E+003	2.6386672E-001
3	0	2.846827533705218E+003	2.6367301E-001
3	0	2.847327533692587E+003	2.6347771E-001
3	0	2.847827533679956E+003	2.6328596E-001
3	0	2.848327533667325E+003	2.6309434E-001
3	0	2.848827533654694E+003	2.6288709E-001
3	0	2.849327533642063E+003	2.6265773E-001
3	0	2.849827533629432E+003	2.6242551E-001
3	0	2.850327533616801E+003	2.6223546E-001
3	0	2.850827533604170E+003	2.6206189E-001
3	0	2.851327533591539E+003	2.6187968E-001
3	0	2.851827533578908E+003	2.6169860E-001
3	0	2.852327533566277E+003	2.6152250E-001
3	0	2.852827533553645E+003	2.6133481E-001
3	0	2.853327533541014E+003	2.6112437E-001
3	0	2.853827533528383E+003	2.6090568E-001
3	0	2.854327533515752E+003	2.6073402E-001
3	0	2.854827533503121E+003	2.6056835E-001
3	0	2.855327533490490E+003	2.6040041E-001
3	0	2.855827533477859E+003	2.6023126E-001
3	0	2.856327533465228E+003	2.6006308E-001
3	0	2.856827533452597E+003	2.5988570E-001
3	0	2.857327533439966E+003	2.5968474E-001
3	0	2.857827533427335E+003	2.5947964E-001
3	0	2.858327533414704E+003	2.5931183E-001
3	0	2.858827533402073E+003	2.5915176E-001
3	0	2.859327533389442E+003	2.5899583E-001
3	0	2.859827533376811E+003	2.5884166E-001
3	0	2.860327533364180E+003	2.5868261E-001
3	0	2.860827533351548E+003	2.5850999E-001
3	0	2.861327533338917E+003	2.5831637E-001
3	0	2.861827533326286E+003	2.5811720E-001
3	0	2.862327533313655E+003	2.5797659E-001
3	0	2.862827533301024E+003	2.5782487E-001
3	0	2.863327533288393E+003	2.5767729E-001
3	0	2.863827533275762E+003	2.5753167E-001
3	0	2.864327533263131E+003	2.5738925E-001
3	0	2.864827533250500E+003	2.5723302E-001
3	0	2.865327533237869E+003	2.5705448E-001
3	0	2.865827533225238E+003	2.5687522E-001
3	0	2.866327533212607E+003	2.5673881E-001
3	0	2.866827533199976E+003	2.5660795E-001
3	0	2.867327533187345E+003	2.5647187E-001
3	0	2.867827533174714E+003	2.5634021E-001
3	0	2.868327533162083E+003	2.5621623E-001
3	0	2.868827533149451E+003	2.5606936E-001
3	0	2.869327533136820E+003	2.5590822E-001
3	0	2.869827533124189E+003	2.5573465E-001
3	0	2.870327533111558E+003	2.5561029E-001
3	0	2.870827533098927E+003	2.5549135E-001
3	0	2.871327533086296E+003	2.5537091E-001
3	0	2.871827533073665E+003	2.5525036E-001
3	0	2.872327533061034E+003	2.5512579E-001
3	0	2.872827533048403E+003	2.5499377E-001
3	0	2.873327533035772E+003	2.5483704E-001
3	0	2.873827533023141E+003	2.5467730E-001
3	0	2.874327533010510E+003	2.5455436E-001
3	0	2.874827532997879E+003	2.5444725E-001
3	0	2.875327532985248E+003	2.5433198E-001
3	0	2.875827532972617E+003	2.5422081E-001
3	0	2.876327532959986E+003	2.5410810E-001
3	0	2.876827532947354E+003	2.5397602E-001
3	0	2.877327532934723E+003	2.5381711E-001
3	0	2.877827532922092E+003	2.5365853E-001
3	0	2.878327532909461E+003	2.5354421E-001
3	0	2.878827532896830E+003	2.5342444E-001
3	0	2.879327532884199E+003	2.5330779E-001
3	0	2.879827532871568E+003	2.5319996E-001
3	0	2.880327532858937E+003	2.5308979E-001
3	0	2.880827532846306E+003	2.5296962E-001
3	0	2.881327532833675E+003	2.5282609E-001
3	0	2.881827532821044E+003	2.5267363E-001
3	0	2.882327532808413E+003	2.5256869E-001
3	0	2.882827532795782E+003	2.5246689E-001
3	0	2.883327532783151E+003	2.5236863E-001
3	0	2.883827532770520E+003	2.5226682E-001
3	0	2.884327532757889E+003	2.5213212E-001
3	0	2.884827532745257E+003	2.5201607E-001
3	0	2.885327532732626E+003	2.5190184E-001
3	0	2.885827532719995E+003	2.5177875E-001
3	0	2.886327532707364E+003	2.5169387E-001
3	0	2.886827532694733E+003	2.5161183E-001
3	0	2.887327532682102E+003	2.5152382E-001
3	0	2.887827532669471E+003	2.5143132E-001
3	0	2.888327532656840E+003	2.5133663E-001
3	0	2.888827532644209E+003	2.5123185E-001
3	0	2.889327532631578E+003	2.5109562E-001
3	0	2.889827532618947E+003	2.5095806E-001
3	0	2.890327532606316E+003	2.5086325E-001
3	0	2.890827532593685E+003	2.5079015E-001
3	0	2.891327532581054E+003	2.5070205E-001
3	0	2.891827532568423E+003	2.5061139E-001
3	0	2.892327532555792E+003	2.5052190E-001
3	0	2.892827532543160E+003	2.5042418E-001
3	0	2.893327532530529E+003	2.5029609E-001
3	0	2.893827532517898E+003	2.5015756E-001
3	0	2.894327532505267E+003	2.5006315E-001
3	0	2.894827532492636E+003	2.4999288E-001
3	0	2.895327532480005E+003	2.4991773E-001
3	0	2.895827532467374E+003	2.4982704E-001
3	0	2.896327532454743E+003	2.4973759E-001
3	0	2.896827532442112E+003	2.4964137E-001
3	0	2.897327532429481E+003	2.4950971E-001
3	0	2.897827532416850E+003	2.4937223E-001
3	0	2.898327532404219E+003	2.4928206E-001
3	0	2.898827532391588E+003	2.4920636E-001
3	0	2.899327532378957E+003	2.4912257E-001
3	0	2.899827532366326E+003	2.4903627E-001
3	0	2.900327532353695E+003	2.4894808E-001
3	0	2.900827532341063E+003	2.4884947E-001
3	0	2.901327532328432E+003	2.4873030E-001
3	0	2.901827532315801E+003	2.4860042E-001
3	0	2.902327532303170E+003	2.4851263E-001
3	0	2.902827532290539E+003	2.4844316E-001
3	0	2.903327532277908E+003	2.4836680E-001
3	0	2.903827532265277E+003	2.4829030E-001
3	0	2.904327532252646E+003	2.4821095E-001
3	0	2.904827532240015E+003	2.4812196E-001
3	0	2.905327532227384E+003	2.4800935E-001
3	0	2.905827532214753E+003	2.4789014E-001
3	0	2.906327532202122E+003	2.4780984E-001
3	0	2.906827532189491E+003	2.4775018E-001
3	0	2.907327532176860E+003	2.4768251E-001
3	0	2.907827532164229E+003	2.4761628E-001
3	0	2.908327532151598E+003	2.4754125E-001
3	0	2.908827532138966E+003	2.4745154E-001
3	0	2.909327532126335E+003	2.4734090E-001
3	0	2.909827532113704E+003	2.4721949E-001
3	0	2.910327532101073E+003	2.4714933E-001
3	0	2.910827532088442E+003	2.4709485E-001
3	0	2.911327532075811E+003	2.4702908E-001
3	0	2.911827532063180E+003	2.4696279E-001
3	0	2.912327532050549E+003	2.4689506E-001
3	0	2.912827532037918E+003	2.4681869E-001
3	0	2.913327532025287E+003	2.4671307E-001
3	0	2.913827532012656E+003	2.4660003E-001
3	0	2.914327532000025E+003	2.4652797E-001
3	0	2.914827531987394E+003	2.4647030E-001
3	0	2.915327531974763E+003	2.4640931E-001
3	0	2.915827531962132E+003	2.4634239E-001
3	0	2.916327531949501E+003	2.4627252E-001
3	0	2.916827531936869E+003	2.4618922E-001
3	0	2.917327531924238E+003	2.4607955E-001
3	0	2.917827531911607E+003	2.4595597E-001
3	0	2.918327531898976E+003	2.4588458E-001
3	0	2.918827531886345E+003	2.4582809E-001
3	0	2.919327531873714E+003	2.4576719E-001
3	0	2.919827531861083E+003	2.4569589E-001
3	0	2.920327531848452E+003	2.4563131E-001
3	0	2.920827531835821E+003	2.4555731E-001
3	0	2.921327531823190E+003	2.4544767E-001
3	0	2.921827531810559E+003	2.4533266E-001
3	0	2.922327531797928E+003	2.4526356E-001
3	0	2.922827531785297E+003	2.4521005E-001
3	0	2.923327531772666E+003	2.4514906E-001
3	0	2.923827531760035E+003	2.4509001E-001
3	0	2.924327531747404E+003	2.4502829E-001
3	0	2.924827531734772E+003	2.4495126E-001
3	0	2.925327531722141E+003	2.4485262E-001
3	0	2.925827531709510E+003	2.4473566E-001
3	0	2.926327531696879E+003	2.4467623E-001
3	0	2.926827531684248E+003	2.4462494E-001
3	0	2.927327531671617E+003	2.4456500E-001
3	0	2.927827531658986E+003	2.4451041E-001
3	0	2.928327531646355E+003	2.4445301E-001
3	0	2.928827531633724E+003	2.4438149E-001
3	0	2.929327531621093E+003	2.4428628E-001
3	0	2.929827531608462E+003	2.4417968E-001
3	0	2.930327531595831E+003	2.4411769E-001
3	0	2.930827531583200E+003	2.4407104E-001
3	0	2.931327531570569E+003	2.4402042E-001
3	0	2.931827531557938E+003	2.4396566E-001
3	0	2.932327531545307E+003	2.4391007E-001
3	0	2.932827531532675E+003	2.4384466E-001
3	0	2.933327531520044E+003	2.4374813E-001
3	0	2.933827531507413E+003	2.4364015E-001
3	0	2.934327531494782E+003	2.4357696E-001
3	0	2.934827531482151E+003	2.4352983E-001
3	0	2.935327531469520E+003	2.4348466E-001
3	0	2.935827531456889E+003	2.4342823E-001
3	0	2.936327531444258E+003	2.4337380E-001
3	0	2.936827531431627E+003	2.4330750E-001
3	0	2.937327531418996E+003	2.4321117E-001
3	0	2.937827531406365E+003	2.4309793E-001
3	0	2.938327531393734E+003	2.4303877E-001
3	0	2.938827531381103E+003	2.4298637E-001
3	0	2.939327531368472E+003	2.4293311E-001
3	0	2.939827531355841E+003	2.4287347E-001
3	0	2.940327531343210E+003	2.4281727E-001
3	0	2.940827531330578E+003	2.4274610E-001
3	0	2.941327531317947E+003	2.4264877E-001
3	0	2.941827531305316E+003	2.4254246E-001
3	0	2.942327531292685E+003	2.4248222E-001
3	0	2.942827531280054E+003	2.4244192E-001
3	0	2.943327531267423E+003	2.4239460E-001
3	0	2.943827531254792E+003	2.4234340E-001
3	0	2.944327531242161E+003	2.4229296E-001
3	0	2.944827531229530E+003	2.4222714E-001
3	0	2.945327531216899E+003	2.4213773E-001
3	0	2.945827531204268E+003	2.4203865E-001
3	0	2.946327531191637E+003	2.4198461E-001
3	0	2.946827531179006E+003	2.4194866E-001
3	0	2.947327531166375E+003	2.4190831E-001
3	0	2.947827531153744E+003	2.4186254E-001
3	0	2.948327531141113E+003	2.4181402E-001
3	0	2.948827531128482E+003	2.4175684E-001
3	0	2.949327531115850E+003	2.4166857E-001
3	0	2.949827531103219E+003	2.4157184E-001
3	0	2.950327531090588E+003	2.4151878E-001
3	0	2.950827531077957E+003	2.4148627E-001
3	0	2.951327531065326E+003	2.4144696E-001
3	0	2.951827531052695E+003	2.4140202E-001
3	0	2.952327531040064E+003	2.4135582E-001
3	0	2.952827531027433E+003	2.4129735E-001
3	0	2.953327531014802E+003	2.4120878E-001
3	0	2.953827531002171E+003	2.4111332E-001
3	0	2.954327530989540E+003	2.4106337E-001
3	0	2.954827530976909E+003	2.4103241E-001
3	0	2.955327530964278E+003	2.4099776E-001
3	0	2.955827530951647E+003	2.4095069E-001
3	0	2.956327530939016E+003	2.4091022E-001
3	0	2.956827530926385E+003	2.4085347E-001
3	0	2.957327530913753E+003	2.4075897E-001
3	0	2.957827530901122E+003	2.4065907E-001
3	0	2.957877530899859E+003	2.4062255E-001