EC-Lab ASCII FILE
Nb header lines : 55                          

Open Circuit Voltage

Run on channel : 1 (SN 81504)
User : 
CE vs. WE compliance from -10 V to 10 V
Electrode connection : standard
Potential control : Ewe
Ewe ctrl range : min = -2.50 V, max = 2.50 V
Safety Limits :
	Do not start on E overload
Acquisition started on : 05/08/2026 00:43:10.981
Loaded Setting File :  C:\PEM-WE_measurements\2026\372_IV_IV IrOx, 5 min Pt, 30 min C, etched cathode\new station\Loopeis new\1,46 V different time gaps open cell\Loopeis 1,46V_180s_4_PEIS from 650Hz to 100Hz.mps
Saved on :
	File : L_29_Loopeis 1,46V_180s_4_PEIS from 650Hz to 100Hz_06_OCV_C01.mpr
	Directory : C:\PEM-WE_measurements\2026\372_IV_IV IrOx, 5 min Pt, 30 min C, etched cathode\new station\Loopeis new\1,46 V different time gaps open cell\
	Host : 192.168.0.2
Device : SP-150e (SN .005491)
Address : 192.168.0.91
EC-LAB for windows v11.71 (software)
Internet server v28.00 (firmware)
Command interpretor v14.01 (firmware)
Electrode material : 
Initial state : 
Electrolyte : 
Comments : 
Current amplifier : SP-150eB-20A
Electrode surface area : 0.001 cm²
Characteristic mass : 0.001 g
Equivalent Weight : 0.000 g/eq.
Density : 0.000 g/cm3
Volume (V) : 0.001 cm³
Record Analogic IN 1
Text export
   Mode : Standard
   Time format : Elapsed
Cycle Definition : Charge/Discharge alternance
External device configuration :
   device type : Temperature Probe
   device name : Other
   Analog IN 1 : 
      unit : T/Â°C
      max : 100.000 at 2.000 V
      min : 0.000 at 1.460 V
tR (h:m:s)          0:03:0.0000         
dER/dt (mV/h)       1.0                 
record              <Ewe>               
dER (mV)            10.00               
dtR (s)             0.5000              
E range min (V)     -2.500              
E range max (V)     2.500               

mode	error	time/s	<Ewe/V>	Analog IN 1/V	
3	0	4.954615907548578E+002	1.2179939E+000	-2.7039093E+002
3	0	4.959615907422267E+002	1.1670332E+000	-2.7036267E+002
3	0	4.964615907295956E+002	7.8461623E-001	-2.7039447E+002
3	0	4.969615907169646E+002	4.1521233E-001	-2.7038742E+002
3	0	4.974615907043335E+002	3.4564936E-001	-2.7036972E+002
3	0	4.979615906917024E+002	3.3413258E-001	-2.7037677E+002
3	0	4.984615906790714E+002	3.2645693E-001	-2.7037326E+002
3	0	4.989615906664403E+002	3.2042593E-001	-2.7038385E+002
3	0	4.994615906538093E+002	3.1581908E-001	-2.7036972E+002
3	0	4.999615906411782E+002	3.1228092E-001	-2.7037677E+002
3	0	5.004615906285471E+002	3.0947074E-001	-2.7035913E+002
3	0	5.009615906159161E+002	3.0717745E-001	-2.7037677E+002
3	0	5.014615906032850E+002	3.0525100E-001	-2.7041214E+002
3	0	5.019615905906539E+002	3.0360946E-001	-2.7037677E+002
3	0	5.024615905780229E+002	3.0217558E-001	-2.7036618E+002
3	0	5.029615905653918E+002	3.0088720E-001	-2.7039801E+002
3	0	5.034615905527608E+002	2.9972491E-001	-2.7037677E+002
3	0	5.039615905401297E+002	2.9870507E-001	-2.7040155E+002
3	0	5.044615905274986E+002	2.9777628E-001	-2.7037677E+002
3	0	5.049615905148676E+002	2.9690358E-001	-2.7038031E+002
3	0	5.054615905022365E+002	2.9607633E-001	-2.7036618E+002
3	0	5.059615904896054E+002	2.9529816E-001	-2.7037677E+002
3	0	5.064615904769744E+002	2.9454246E-001	-2.7037677E+002
3	0	5.069615904643433E+002	2.9379824E-001	-2.7038031E+002
3	0	5.074615904517123E+002	2.9308370E-001	-2.7037326E+002
3	0	5.079615904390812E+002	2.9241735E-001	-2.7039447E+002
3	0	5.084615904264501E+002	2.9178727E-001	-2.7037677E+002
3	0	5.089615904138191E+002	2.9115877E-001	-2.7037677E+002
3	0	5.094615904011880E+002	2.9054832E-001	-2.7037677E+002
3	0	5.099615903885569E+002	2.8994495E-001	-2.7039801E+002
3	0	5.104615903759259E+002	2.8934816E-001	-2.7037677E+002
3	0	5.109615903632948E+002	2.8873765E-001	-2.7035559E+002
3	0	5.114615903506638E+002	2.8814530E-001	-2.7034851E+002
3	0	5.119615903380327E+002	2.8759009E-001	-2.7038385E+002
3	0	5.124615903254016E+002	2.8705594E-001	-2.7038031E+002
3	0	5.129615903127706E+002	2.8651556E-001	-2.7040155E+002
3	0	5.134615903001395E+002	2.8599158E-001	-2.7038742E+002
3	0	5.139615902875084E+002	2.8546855E-001	-2.7038742E+002
3	0	5.144615902748774E+002	2.8493375E-001	-2.7037326E+002
3	0	5.149615902622463E+002	2.8438938E-001	-2.7038031E+002
3	0	5.154615902496153E+002	2.8384730E-001	-2.7037677E+002
3	0	5.159615902369842E+002	2.8334230E-001	-2.7039093E+002
3	0	5.164615902243531E+002	2.8285688E-001	-2.7040155E+002
3	0	5.169615902117221E+002	2.8236756E-001	-2.7036618E+002
3	0	5.174615901990910E+002	2.8188932E-001	-2.7037326E+002
3	0	5.179615901864599E+002	2.8139728E-001	-2.7037677E+002
3	0	5.184615901738289E+002	2.8090492E-001	-2.7037677E+002
3	0	5.189615901611978E+002	2.8040335E-001	-2.7040155E+002
3	0	5.194615901485668E+002	2.7990791E-001	-2.7038031E+002
3	0	5.199615901359357E+002	2.7945656E-001	-2.7037677E+002
3	0	5.204615901233046E+002	2.7901545E-001	-2.7037326E+002
3	0	5.209615901106736E+002	2.7857101E-001	-2.7038742E+002
3	0	5.214615900980425E+002	2.7812752E-001	-2.7039447E+002
3	0	5.219615900854114E+002	2.7768901E-001	-2.7036618E+002
3	0	5.224615900727804E+002	2.7724066E-001	-2.7038742E+002
3	0	5.229615900601493E+002	2.7677566E-001	-2.7039447E+002
3	0	5.234615900475183E+002	2.7631447E-001	-2.7038031E+002
3	0	5.239615900348872E+002	2.7589747E-001	-2.7041214E+002
3	0	5.244615900222561E+002	2.7548915E-001	-2.7037677E+002
3	0	5.249615900096251E+002	2.7507693E-001	-2.7037677E+002
3	0	5.254615899969940E+002	2.7467746E-001	-2.7037677E+002
3	0	5.259615899843629E+002	2.7427897E-001	-2.7036972E+002
3	0	5.264615899717319E+002	2.7385956E-001	-2.7038031E+002
3	0	5.269615899591008E+002	2.7342606E-001	-2.7038031E+002
3	0	5.274615899464698E+002	2.7299827E-001	-2.7036618E+002
3	0	5.279615899338387E+002	2.7261469E-001	-2.7038385E+002
3	0	5.284615899212076E+002	2.7224687E-001	-2.7036972E+002
3	0	5.289615899085766E+002	2.7187619E-001	-2.7033438E+002
3	0	5.294615898959455E+002	2.7149585E-001	-2.7039093E+002
3	0	5.299615898833144E+002	2.7112350E-001	-2.7038385E+002
3	0	5.304615898706834E+002	2.7074564E-001	-2.7037677E+002
3	0	5.309615898580523E+002	2.7034509E-001	-2.7037677E+002
3	0	5.314615898454213E+002	2.6995188E-001	-2.7037326E+002
3	0	5.319615898327902E+002	2.6960808E-001	-2.7037326E+002
3	0	5.324615898201591E+002	2.6926696E-001	-2.7038031E+002
3	0	5.329615898075281E+002	2.6892072E-001	-2.7038385E+002
3	0	5.334615897948970E+002	2.6857340E-001	-2.7036618E+002
3	0	5.339615897822659E+002	2.6823899E-001	-2.7039801E+002
3	0	5.344615897696349E+002	2.6788217E-001	-2.7038385E+002
3	0	5.349615897570038E+002	2.6750961E-001	-2.7035913E+002
3	0	5.354615897443728E+002	2.6714531E-001	-2.7040155E+002
3	0	5.359615897317417E+002	2.6682302E-001	-2.7036267E+002
3	0	5.364615897191106E+002	2.6650497E-001	-2.7036972E+002
3	0	5.369615897064796E+002	2.6618594E-001	-2.7036972E+002
3	0	5.374615896938485E+002	2.6587138E-001	-2.7039447E+002
3	0	5.379615896812174E+002	2.6555258E-001	-2.7041214E+002
3	0	5.384615896685864E+002	2.6522034E-001	-2.7037677E+002
3	0	5.389615896559553E+002	2.6487255E-001	-2.7040155E+002
3	0	5.394615896433243E+002	2.6454198E-001	-2.7038031E+002
3	0	5.399615896306932E+002	2.6424742E-001	-2.7038031E+002
3	0	5.404615896180621E+002	2.6396567E-001	-2.7038742E+002
3	0	5.409615896054311E+002	2.6367724E-001	-2.7038742E+002
3	0	5.414615895928000E+002	2.6339209E-001	-2.7035913E+002
3	0	5.419615895801689E+002	2.6310414E-001	-2.7038742E+002
3	0	5.424615895675379E+002	2.6280162E-001	-2.7037677E+002
3	0	5.429615895549068E+002	2.6248342E-001	-2.7036972E+002
3	0	5.434615895422758E+002	2.6217520E-001	-2.7035913E+002
3	0	5.439615895296447E+002	2.6190853E-001	-2.7038385E+002
3	0	5.444615895170136E+002	2.6164472E-001	-2.7038031E+002
3	0	5.449615895043826E+002	2.6138127E-001	-2.7037677E+002
3	0	5.454615894917515E+002	2.6111865E-001	-2.7038031E+002
3	0	5.459615894791204E+002	2.6085177E-001	-2.7036972E+002
3	0	5.464615894664894E+002	2.6057687E-001	-2.7036267E+002
3	0	5.469615894538583E+002	2.6028100E-001	-2.7042273E+002
3	0	5.474615894412273E+002	2.5998983E-001	-2.7037677E+002
3	0	5.479615894285962E+002	2.5974667E-001	-2.7038385E+002
3	0	5.484615894159651E+002	2.5951919E-001	-2.7035913E+002
3	0	5.489615894033341E+002	2.5928539E-001	-2.7039093E+002
3	0	5.494615893907030E+002	2.5904813E-001	-2.7036267E+002
3	0	5.499615893780719E+002	2.5880963E-001	-2.7040506E+002
3	0	5.504615893654409E+002	2.5855187E-001	-2.7038385E+002
3	0	5.509615893528098E+002	2.5827250E-001	-2.7037677E+002
3	0	5.514615893401788E+002	2.5800571E-001	-2.7040155E+002
3	0	5.519615893275477E+002	2.5778514E-001	-2.7039447E+002
3	0	5.524615893149166E+002	2.5756940E-001	-2.7038742E+002
3	0	5.529615893022856E+002	2.5734863E-001	-2.7035559E+002
3	0	5.534615892896545E+002	2.5712392E-001	-2.7038031E+002
3	0	5.539615892770235E+002	2.5690302E-001	-2.7036618E+002
3	0	5.544615892643924E+002	2.5667518E-001	-2.7039447E+002
3	0	5.549615892517613E+002	2.5642604E-001	-2.7037326E+002
3	0	5.554615892391303E+002	2.5617740E-001	-2.7037326E+002
3	0	5.559615892264992E+002	2.5597399E-001	-2.7039801E+002
3	0	5.564615892138681E+002	2.5577506E-001	-2.7037326E+002
3	0	5.569615892012371E+002	2.5557163E-001	-2.7036972E+002
3	0	5.574615891886060E+002	2.5536698E-001	-2.7039093E+002
3	0	5.579615891759750E+002	2.5516185E-001	-2.7038385E+002
3	0	5.584615891633439E+002	2.5494555E-001	-2.7039093E+002
3	0	5.589615891507128E+002	2.5470707E-001	-2.7037677E+002
3	0	5.594615891380818E+002	2.5446659E-001	-2.7039093E+002
3	0	5.599615891254507E+002	2.5428441E-001	-2.7037677E+002
3	0	5.604615891128196E+002	2.5410470E-001	-2.7039447E+002
3	0	5.609615891001886E+002	2.5391781E-001	-2.7034851E+002
3	0	5.614615890875575E+002	2.5373310E-001	-2.7039447E+002
3	0	5.619615890749265E+002	2.5355354E-001	-2.7039801E+002
3	0	5.624615890622954E+002	2.5334662E-001	-2.7039093E+002
3	0	5.629615890496643E+002	2.5312272E-001	-2.7037326E+002
3	0	5.634615890370333E+002	2.5290650E-001	-2.7039093E+002
3	0	5.639615890244022E+002	2.5273308E-001	-2.7038031E+002
3	0	5.644615890117711E+002	2.5256562E-001	-2.7038031E+002
3	0	5.649615889991401E+002	2.5240245E-001	-2.7040155E+002
3	0	5.654615889865090E+002	2.5222760E-001	-2.7039447E+002
3	0	5.659615889738780E+002	2.5205758E-001	-2.7035559E+002
3	0	5.664615889612469E+002	2.5187558E-001	-2.7037677E+002
3	0	5.669615889486158E+002	2.5167572E-001	-2.7037326E+002
3	0	5.674615889359848E+002	2.5146627E-001	-2.7039093E+002
3	0	5.679615889233537E+002	2.5130555E-001	-2.7036267E+002
3	0	5.684615889107226E+002	2.5115266E-001	-2.7040506E+002
3	0	5.689615888980916E+002	2.5099555E-001	-2.7039447E+002
3	0	5.694615888854605E+002	2.5083470E-001	-2.7037326E+002
3	0	5.699615888728295E+002	2.5067639E-001	-2.7036972E+002
3	0	5.704615888601984E+002	2.5050238E-001	-2.7040860E+002
3	0	5.709615888475673E+002	2.5031126E-001	-2.7035559E+002
3	0	5.714615888349363E+002	2.5011352E-001	-2.7037677E+002
3	0	5.719615888223052E+002	2.4996653E-001	-2.7038031E+002
3	0	5.724615888096741E+002	2.4982975E-001	-2.7039801E+002
3	0	5.729615887970431E+002	2.4969007E-001	-2.7038742E+002
3	0	5.734615887844120E+002	2.4954395E-001	-2.7036618E+002
3	0	5.739615887717810E+002	2.4939831E-001	-2.7038031E+002
3	0	5.744615887591499E+002	2.4923138E-001	-2.7036972E+002
3	0	5.749615887465188E+002	2.4903944E-001	-2.7037677E+002
3	0	5.754615887338878E+002	2.4885508E-001	-2.7038742E+002
3	0	5.759615887212567E+002	2.4871571E-001	-2.7038742E+002
3	0	5.764615887086256E+002	2.4857488E-001	-2.7035913E+002
3	0	5.769615886959946E+002	2.4842508E-001	-2.7037677E+002
3	0	5.774615886833635E+002	2.4827218E-001	-2.7038031E+002
3	0	5.779615886707325E+002	2.4812353E-001	-2.7038742E+002
3	0	5.784615886581014E+002	2.4796388E-001	-2.7039447E+002
3	0	5.789615886454703E+002	2.4778172E-001	-2.7038385E+002
3	0	5.794615886328393E+002	2.4760692E-001	-2.7037677E+002
3	0	5.799615886202082E+002	2.4747188E-001	-2.7040155E+002
3	0	5.804615886075771E+002	2.4734575E-001	-2.7038385E+002
3	0	5.809615885949461E+002	2.4720985E-001	-2.7039801E+002
3	0	5.814615885823150E+002	2.4707662E-001	-2.7039447E+002
3	0	5.819615885696840E+002	2.4693851E-001	-2.7037677E+002
3	0	5.824615885570529E+002	2.4679197E-001	-2.7039801E+002
3	0	5.829615885444218E+002	2.4662803E-001	-2.7036972E+002
3	0	5.834615885317908E+002	2.4647047E-001	-2.7039801E+002
3	0	5.839615885191597E+002	2.4635364E-001	-2.7037326E+002
3	0	5.844615885065286E+002	2.4624532E-001	-2.7038385E+002
3	0	5.849615884938976E+002	2.4612577E-001	-2.7038031E+002
3	0	5.854615884812665E+002	2.4600650E-001	-2.7039801E+002
3	0	5.859615884686355E+002	2.4588451E-001	-2.7039093E+002
3	0	5.864615884560044E+002	2.4575023E-001	-2.7037677E+002
3	0	5.869615884433733E+002	2.4559084E-001	-2.7038742E+002
3	0	5.874615884307423E+002	2.4543990E-001	-2.7036972E+002
3	0	5.879615884181112E+002	2.4533156E-001	-2.7038385E+002
3	0	5.884615884054801E+002	2.4523290E-001	-2.7036972E+002
3	0	5.889615883928491E+002	2.4512206E-001	-2.7039093E+002
3	0	5.894615883802180E+002	2.4500546E-001	-2.7037677E+002
3	0	5.899615883675870E+002	2.4489605E-001	-2.7039093E+002
3	0	5.904615883549559E+002	2.4476691E-001	-2.7039447E+002
3	0	5.909615883423248E+002	2.4461356E-001	-2.7039801E+002
3	0	5.914615883296938E+002	2.4446957E-001	-2.7037326E+002
3	0	5.919615883170627E+002	2.4436964E-001	-2.7037677E+002
3	0	5.924615883044316E+002	2.4427487E-001	-2.7039093E+002
3	0	5.929615882918006E+002	2.4417181E-001	-2.7038385E+002
3	0	5.934615882791695E+002	2.4406534E-001	-2.7036618E+002
3	0	5.939615882665385E+002	2.4395721E-001	-2.7038031E+002
3	0	5.944615882539074E+002	2.4383575E-001	-2.7037677E+002
3	0	5.949615882412763E+002	2.4369164E-001	-2.7037677E+002
3	0	5.954615882286453E+002	2.4355045E-001	-2.7038742E+002
3	0	5.959615882160142E+002	2.4345489E-001	-2.7039093E+002
3	0	5.964615882033831E+002	2.4336693E-001	-2.7039447E+002
3	0	5.969615881907521E+002	2.4326557E-001	-2.7037677E+002
3	0	5.974615881781210E+002	2.4317002E-001	-2.7039801E+002
3	0	5.979615881654900E+002	2.4306726E-001	-2.7038385E+002
3	0	5.984615881528589E+002	2.4294706E-001	-2.7037326E+002
3	0	5.989615881402278E+002	2.4280521E-001	-2.7037677E+002
3	0	5.994615881275968E+002	2.4266474E-001	-2.7039447E+002
3	0	5.999615881149657E+002	2.4257240E-001	-2.7038742E+002
3	0	6.004615881023346E+002	2.4248777E-001	-2.7036972E+002
3	0	6.009615880897036E+002	2.4239457E-001	-2.7037677E+002
3	0	6.014615880770725E+002	2.4229889E-001	-2.7038031E+002
3	0	6.019615880644415E+002	2.4220534E-001	-2.7037326E+002
3	0	6.024615880518104E+002	2.4209586E-001	-2.7039447E+002
3	0	6.029615880391793E+002	2.4196377E-001	-2.7040155E+002
3	0	6.034615880265483E+002	2.4183971E-001	-2.7039093E+002
3	0	6.039615880139172E+002	2.4175343E-001	-2.7037677E+002
3	0	6.044615880012861E+002	2.4167669E-001	-2.7038742E+002
3	0	6.049615879886551E+002	2.4159251E-001	-2.7036972E+002
3	0	6.054615879760240E+002	2.4150538E-001	-2.7038031E+002
3	0	6.059615879633930E+002	2.4141827E-001	-2.7041214E+002
3	0	6.064615879507619E+002	2.4130958E-001	-2.7039093E+002
3	0	6.069615879381308E+002	2.4118178E-001	-2.7037677E+002
3	0	6.074615879254998E+002	2.4105980E-001	-2.7036972E+002
3	0	6.079615879128687E+002	2.4097970E-001	-2.7038031E+002
3	0	6.084615879002376E+002	2.4091068E-001	-2.7036267E+002
3	0	6.089615878876066E+002	2.4083139E-001	-2.7037326E+002
3	0	6.094615878749755E+002	2.4075441E-001	-2.7037326E+002
3	0	6.099615878623445E+002	2.4066861E-001	-2.7037326E+002
3	0	6.104615878497134E+002	2.4056527E-001	-2.7035559E+002
3	0	6.109615878370823E+002	2.4044347E-001	-2.7037326E+002
3	0	6.114615878244513E+002	2.4031913E-001	-2.7039093E+002
3	0	6.119615878118202E+002	2.4024674E-001	-2.7039093E+002
3	0	6.124615877991891E+002	2.4017948E-001	-2.7038031E+002
3	0	6.129615877865581E+002	2.4010575E-001	-2.7036972E+002
3	0	6.134615877739270E+002	2.4002650E-001	-2.7035913E+002
3	0	6.139615877612960E+002	2.3994586E-001	-2.7037677E+002
3	0	6.144615877486649E+002	2.3985460E-001	-2.7036267E+002
3	0	6.149615877360338E+002	2.3973358E-001	-2.7037326E+002
3	0	6.154615877234028E+002	2.3961602E-001	-2.7038385E+002
3	0	6.159615877107717E+002	2.3954576E-001	-2.7037677E+002
3	0	6.164615876981406E+002	2.3947424E-001	-2.7037326E+002
3	0	6.169615876855096E+002	2.3939659E-001	-2.7039447E+002
3	0	6.174615876728785E+002	2.3931867E-001	-2.7038742E+002
3	0	6.179615876602475E+002	2.3923673E-001	-2.7040506E+002
3	0	6.184615876476164E+002	2.3914023E-001	-2.7038385E+002
3	0	6.189615876349853E+002	2.3901920E-001	-2.7036972E+002
3	0	6.194615876223543E+002	2.3890263E-001	-2.7041919E+002
3	0	6.199615876097232E+002	2.3882914E-001	-2.7040860E+002
3	0	6.204615875970921E+002	2.3876429E-001	-2.7036972E+002
3	0	6.209615875844611E+002	2.3869279E-001	-2.7037677E+002
3	0	6.214615875718300E+002	2.3861818E-001	-2.7035913E+002
3	0	6.219615875591990E+002	2.3854186E-001	-2.7038031E+002
3	0	6.224615875465679E+002	2.3845758E-001	-2.7039093E+002
3	0	6.229615875339368E+002	2.3834357E-001	-2.7038385E+002
3	0	6.234615875213058E+002	2.3823370E-001	-2.7038385E+002
3	0	6.239615875086747E+002	2.3817091E-001	-2.7038031E+002
3	0	6.244615874960436E+002	2.3810892E-001	-2.7039093E+002
3	0	6.249615874834126E+002	2.3803844E-001	-2.7037326E+002
3	0	6.254615874707815E+002	2.3796920E-001	-2.7038742E+002
3	0	6.259615874581505E+002	2.3790030E-001	-2.7036618E+002
3	0	6.264615874455194E+002	2.3781601E-001	-2.7037326E+002
3	0	6.269615874328883E+002	2.3770508E-001	-2.7037326E+002
3	0	6.274615874202573E+002	2.3759647E-001	-2.7037326E+002
3	0	6.279615874076262E+002	2.3753792E-001	-2.7036267E+002
3	0	6.284615873949951E+002	2.3748113E-001	-2.7039093E+002
3	0	6.289615873823641E+002	2.3741293E-001	-2.7036618E+002
3	0	6.294615873697330E+002	2.3734762E-001	-2.7036618E+002
3	0	6.299615873571020E+002	2.3728187E-001	-2.7039447E+002
3	0	6.304615873444709E+002	2.3719908E-001	-2.7038385E+002
3	0	6.309615873318398E+002	2.3709828E-001	-2.7037677E+002
3	0	6.314615873192088E+002	2.3699513E-001	-2.7036267E+002
3	0	6.319615873065777E+002	2.3693624E-001	-2.7038385E+002
3	0	6.324615872939467E+002	2.3688629E-001	-2.7038385E+002
3	0	6.329615872813156E+002	2.3682676E-001	-2.7038385E+002
3	0	6.334615872686845E+002	2.3675890E-001	-2.7038031E+002
3	0	6.339615872560535E+002	2.3669091E-001	-2.7038385E+002
3	0	6.344615872434224E+002	2.3661110E-001	-2.7038385E+002
3	0	6.349615872307913E+002	2.3650694E-001	-2.7039447E+002
3	0	6.354615872181603E+002	2.3640364E-001	-2.7038742E+002
3	0	6.359615872055292E+002	2.3634307E-001	-2.7038031E+002
3	0	6.364615871928982E+002	2.3628131E-001	-2.7036618E+002
3	0	6.369615871802671E+002	2.3622210E-001	-2.7040155E+002
3	0	6.374615871676360E+002	2.3615961E-001	-2.7036972E+002
3	0	6.379615871550050E+002	2.3608744E-001	-2.7038385E+002
3	0	6.384615871423739E+002	2.3600522E-001	-2.7038031E+002
3	0	6.389615871297428E+002	2.3589416E-001	-2.7037677E+002
3	0	6.394615871171118E+002	2.3579398E-001	-2.7038031E+002
3	0	6.399615871044807E+002	2.3573661E-001	-2.7038385E+002
3	0	6.404615870918497E+002	2.3568344E-001	-2.7038385E+002
3	0	6.409615870792186E+002	2.3562238E-001	-2.7036618E+002
3	0	6.414615870665875E+002	2.3555836E-001	-2.7039801E+002
3	0	6.419615870539565E+002	2.3549351E-001	-2.7038385E+002
3	0	6.424615870413254E+002	2.3541789E-001	-2.7038385E+002
3	0	6.429615870286943E+002	2.3532000E-001	-2.7037677E+002
3	0	6.434615870160633E+002	2.3522408E-001	-2.7036618E+002
3	0	6.439615870034322E+002	2.3517361E-001	-2.7038031E+002
3	0	6.444615869908012E+002	2.3512694E-001	-2.7038385E+002
3	0	6.449615869781701E+002	2.3507264E-001	-2.7039447E+002
3	0	6.454615869655390E+002	2.3501581E-001	-2.7036972E+002
3	0	6.459615869529080E+002	2.3495817E-001	-2.7038385E+002
3	0	6.464615869402769E+002	2.3488277E-001	-2.7036972E+002
3	0	6.469615869276458E+002	2.3478235E-001	-2.7035559E+002
3	0	6.474615869150148E+002	2.3468648E-001	-2.7038031E+002
3	0	6.479615869023837E+002	2.3463465E-001	-2.7037677E+002
3	0	6.484615868897527E+002	2.3459202E-001	-2.7038385E+002
3	0	6.489615868771216E+002	2.3453893E-001	-2.7036972E+002
3	0	6.494615868644905E+002	2.3448697E-001	-2.7036618E+002
3	0	6.499615868518595E+002	2.3442841E-001	-2.7034851E+002
3	0	6.504615868392284E+002	2.3436308E-001	-2.7039447E+002
3	0	6.509615868265973E+002	2.3427020E-001	-2.7041919E+002
3	0	6.514615868139663E+002	2.3417838E-001	-2.7034851E+002
3	0	6.519615868013352E+002	2.3413014E-001	-2.7038031E+002
3	0	6.524615867887042E+002	2.3408878E-001	-2.7040860E+002
3	0	6.529615867760731E+002	2.3404205E-001	-2.7036267E+002
3	0	6.534615867634420E+002	2.3399168E-001	-2.7036618E+002
3	0	6.539615867508110E+002	2.3394486E-001	-2.7038742E+002
3	0	6.544615867381799E+002	2.3388036E-001	-2.7039801E+002
3	0	6.549615867255488E+002	2.3378819E-001	-2.7038031E+002
3	0	6.554615867129178E+002	2.3369430E-001	-2.7038385E+002
3	0	6.559615867002867E+002	2.3365125E-001	-2.7040155E+002
3	0	6.564615866876557E+002	2.3360761E-001	-2.7036618E+002
3	0	6.569615866750246E+002	2.3355997E-001	-2.7039093E+002
3	0	6.574615866623935E+002	2.3350699E-001	-2.7037677E+002
3	0	6.579615866497625E+002	2.3345174E-001	-2.7038385E+002
3	0	6.584615866371314E+002	2.3337767E-001	-2.7038031E+002
3	0	6.589615866245003E+002	2.3328258E-001	-2.7038031E+002
3	0	6.594615866118693E+002	2.3319252E-001	-2.7039093E+002
3	0	6.599615865992382E+002	2.3314571E-001	-2.7038385E+002
3	0	6.604615865866072E+002	2.3310389E-001	-2.7037677E+002
3	0	6.609615865739761E+002	2.3305520E-001	-2.7036972E+002
3	0	6.614615865613450E+002	2.3300678E-001	-2.7038385E+002
3	0	6.619615865487140E+002	2.3295622E-001	-2.7036267E+002
3	0	6.624615865360829E+002	2.3289102E-001	-2.7037326E+002
3	0	6.629615865234518E+002	2.3279798E-001	-2.7035913E+002
3	0	6.634615865108208E+002	2.3270695E-001	-2.7038031E+002
3	0	6.639615864981897E+002	2.3266214E-001	-2.7038385E+002
3	0	6.644615864855587E+002	2.3262355E-001	-2.7037326E+002
3	0	6.649615864729276E+002	2.3258404E-001	-2.7038742E+002
3	0	6.654615864602965E+002	2.3253463E-001	-2.7039447E+002
3	0	6.659615864476655E+002	2.3248672E-001	-2.7038385E+002
3	0	6.664615864350344E+002	2.3242147E-001	-2.7035559E+002
3	0	6.669615864224033E+002	2.3233299E-001	-2.7036267E+002
3	0	6.674615864097723E+002	2.3224758E-001	-2.7039093E+002
3	0	6.679615863971412E+002	2.3220509E-001	-2.7036618E+002
3	0	6.684615863845102E+002	2.3216763E-001	-2.7037677E+002
3	0	6.689615863718791E+002	2.3212726E-001	-2.7036972E+002
3	0	6.694615863592480E+002	2.3208605E-001	-2.7036618E+002
3	0	6.699615863466170E+002	2.3204307E-001	-2.7039801E+002
3	0	6.704615863339859E+002	2.3197626E-001	-2.7038385E+002
3	0	6.709615863213548E+002	2.3188636E-001	-2.7040860E+002
3	0	6.714615863087238E+002	2.3179819E-001	-2.7037326E+002
3	0	6.719615862960927E+002	2.3176068E-001	-2.7038031E+002
3	0	6.724615862834617E+002	2.3172709E-001	-2.7039093E+002
3	0	6.729615862708306E+002	2.3168732E-001	-2.7036972E+002
3	0	6.734615862581995E+002	2.3164332E-001	-2.7038031E+002
3	0	6.739615862455685E+002	2.3160072E-001	-2.7038385E+002
3	0	6.744615862329374E+002	2.3154466E-001	-2.7039447E+002
3	0	6.749615862203063E+002	2.3145558E-001	-2.7036267E+002
3	0	6.749619862202962E+002	2.3139007E-001	-2.7038385E+002