EC-Lab ASCII FILE
Nb header lines : 55                          

Open Circuit Voltage

Run on channel : 1 (SN 81504)
User : 
CE vs. WE compliance from -10 V to 10 V
Electrode connection : standard
Potential control : Ewe
Ewe ctrl range : min = -2.50 V, max = 2.50 V
Safety Limits :
	Do not start on E overload
Acquisition started on : 05/09/2026 23:46:58.612
Loaded Setting File :  C:\PEM-WE_measurements\2026\372_IV_IV IrOx, 5 min Pt, 30 min C, etched cathode\new station\Loopeis new\1,46 V different time gaps closed cell\Loopeis 1,46V_30s_3_PEIS from 6500Hz to 1000Hz.mps
Saved on :
	File : L_03_Loopeis 1,46V_30s_3_PEIS from 6500Hz to 1000Hz_02_OCV_C01.mpr
	Directory : C:\PEM-WE_measurements\2026\372_IV_IV IrOx, 5 min Pt, 30 min C, etched cathode\new station\Loopeis new\1,46 V different time gaps closed cell\
	Host : 192.168.0.2
Device : SP-150e (SN .005491)
Address : 192.168.0.91
EC-LAB for windows v11.71 (software)
Internet server v28.00 (firmware)
Command interpretor v14.01 (firmware)
Electrode material : 
Initial state : 
Electrolyte : 
Comments : 
Current amplifier : SP-150eB-20A
Electrode surface area : 0.001 cm²
Characteristic mass : 0.001 g
Equivalent Weight : 0.000 g/eq.
Density : 0.000 g/cm3
Volume (V) : 0.001 cm³
Record Analogic IN 1
Text export
   Mode : Standard
   Time format : Elapsed
Cycle Definition : Charge/Discharge alternance
External device configuration :
   device type : Temperature Probe
   device name : Other
   Analog IN 1 : 
      unit : T/Â°C
      max : 100.000 at 2.000 V
      min : 0.000 at 1.460 V
tR (h:m:s)          0:00:30.0000        
dER/dt (mV/h)       1.0                 
record              <Ewe>               
dER (mV)            10.00               
dtR (s)             0.5000              
E range min (V)     -2.500              
E range max (V)     2.500               

mode	error	time/s	<Ewe/V>	Analog IN 1/V	
3	0	4.549979885057837E+001	1.4214036E+000	-2.7038742E+002
3	0	4.599979883794731E+001	1.4138134E+000	-2.7035205E+002
3	0	4.649979882531625E+001	1.4086086E+000	-2.7040155E+002
3	0	4.699979881268519E+001	1.4048061E+000	-2.7038031E+002
3	0	4.749979880005412E+001	1.4017894E+000	-2.7036618E+002
3	0	4.799979878742306E+001	1.3992960E+000	-2.7037677E+002
3	0	4.849979877479200E+001	1.3971436E+000	-2.7038031E+002
3	0	4.899979876216094E+001	1.3951900E+000	-2.7038742E+002
3	0	4.949979874952987E+001	1.3933800E+000	-2.7037677E+002
3	0	4.999979873689881E+001	1.3917872E+000	-2.7038031E+002
3	0	5.049979872426775E+001	1.3903874E+000	-2.7037326E+002
3	0	5.099979871163669E+001	1.3891120E+000	-2.7034851E+002
3	0	5.149979869900562E+001	1.3879191E+000	-2.7038742E+002
3	0	5.199979868637456E+001	1.3868135E+000	-2.7039447E+002
3	0	5.249979867374350E+001	1.3857554E+000	-2.7036972E+002
3	0	5.299979866111244E+001	1.3846933E+000	-2.7038742E+002
3	0	5.349979864848137E+001	1.3836274E+000	-2.7038031E+002
3	0	5.399979863585031E+001	1.3826767E+000	-2.7036267E+002
3	0	5.449979862321925E+001	1.3818113E+000	-2.7039447E+002
3	0	5.499979861058819E+001	1.3809779E+000	-2.7037677E+002
3	0	5.549979859795712E+001	1.3801764E+000	-2.7037326E+002
3	0	5.599979858532606E+001	1.3794131E+000	-2.7038742E+002
3	0	5.649979857269500E+001	1.3786505E+000	-2.7037326E+002
3	0	5.699979856006394E+001	1.3778508E+000	-2.7038031E+002
3	0	5.749979854743287E+001	1.3770164E+000	-2.7036972E+002
3	0	5.799979853480181E+001	1.3762723E+000	-2.7038385E+002
3	0	5.849979852217075E+001	1.3755823E+000	-2.7035559E+002
3	0	5.899979850953969E+001	1.3749152E+000	-2.7039093E+002
3	0	5.949979849690862E+001	1.3742558E+000	-2.7038742E+002
3	0	5.999979848427756E+001	1.3736119E+000	-2.7038742E+002
3	0	6.049979847164650E+001	1.3729553E+000	-2.7038385E+002
3	0	6.099979845901544E+001	1.3722452E+000	-2.7038031E+002
3	0	6.149979844638438E+001	1.3714938E+000	-2.7037677E+002
3	0	6.199979843375331E+001	1.3708229E+000	-2.7038742E+002
3	0	6.249979842112225E+001	1.3702083E+000	-2.7036972E+002
3	0	6.299979840849119E+001	1.3695995E+000	-2.7038385E+002
3	0	6.349979839586013E+001	1.3689754E+000	-2.7037677E+002
3	0	6.399979838322906E+001	1.3683825E+000	-2.7038031E+002
3	0	6.449979837059800E+001	1.3677492E+000	-2.7038742E+002
3	0	6.499979835796694E+001	1.3670477E+000	-2.7036267E+002
3	0	6.549979834533588E+001	1.3662959E+000	-2.7038385E+002
3	0	6.599979833270481E+001	1.3656203E+000	-2.7035205E+002
3	0	6.649979832007375E+001	1.3649868E+000	-2.7037326E+002
3	0	6.699979830744269E+001	1.3643420E+000	-2.7039093E+002
3	0	6.749979829481163E+001	1.3636904E+000	-2.7040155E+002
3	0	6.799979828218056E+001	1.3630514E+000	-2.7037326E+002
3	0	6.849979826954950E+001	1.3623853E+000	-2.7039093E+002
3	0	6.899979825691844E+001	1.3616703E+000	-2.7039447E+002
3	0	6.949979824428738E+001	1.3609034E+000	-2.7038385E+002
3	0	6.999979823165631E+001	1.3602113E+000	-2.7039093E+002
3	0	7.049979821902525E+001	1.3595648E+000	-2.7038742E+002
3	0	7.099979820639419E+001	1.3589077E+000	-2.7038385E+002
3	0	7.149979819376313E+001	1.3582497E+000	-2.7038385E+002
3	0	7.199979818113206E+001	1.3575879E+000	-2.7039093E+002
3	0	7.249979816850100E+001	1.3569195E+000	-2.7035913E+002
3	0	7.299979815586994E+001	1.3561944E+000	-2.7036972E+002
3	0	7.349979814323888E+001	1.3554183E+000	-2.7037326E+002
3	0	7.399979813060781E+001	1.3547094E+000	-2.7037677E+002
3	0	7.449979811797675E+001	1.3540415E+000	-2.7040506E+002
3	0	7.499979810534569E+001	1.3533735E+000	-2.7034851E+002
3	0	7.500019810533558E+001	1.3529731E+000	-2.7037677E+002