EC-Lab ASCII FILE
Nb header lines : 55                          

Open Circuit Voltage

Run on channel : 1 (SN 81504)
User : 
CE vs. WE compliance from -10 V to 10 V
Electrode connection : standard
Potential control : Ewe
Ewe ctrl range : min = -2.50 V, max = 2.50 V
Safety Limits :
	Do not start on E overload
Acquisition started on : 05/07/2026 14:54:34.266
Loaded Setting File :  C:\PEM-WE_measurements\2026\372_IV_IV IrOx, 5 min Pt, 30 min C, etched cathode\new station\Loopeis new\1,46 V different time gaps open cell\Loopeis 1,46V_30s_5_PEIS from 65Hz to 10Hz.mps
Saved on :
	File : L_05_Loopeis 1,46V_30s_5_PEIS from 65Hz to 10Hz_08_OCV_C01.mpr
	Directory : C:\PEM-WE_measurements\2026\372_IV_IV IrOx, 5 min Pt, 30 min C, etched cathode\new station\Loopeis new\1,46 V different time gaps open cell\
	Host : 192.168.0.2
Device : SP-150e (SN .005491)
Address : 192.168.0.91
EC-LAB for windows v11.71 (software)
Internet server v28.00 (firmware)
Command interpretor v14.01 (firmware)
Electrode material : 
Initial state : 
Electrolyte : 
Comments : 
Current amplifier : SP-150eB-20A
Electrode surface area : 0.001 cm²
Characteristic mass : 0.001 g
Equivalent Weight : 0.000 g/eq.
Density : 0.000 g/cm3
Volume (V) : 0.001 cm³
Record Analogic IN 1
Text export
   Mode : Standard
   Time format : Elapsed
Cycle Definition : Charge/Discharge alternance
External device configuration :
   device type : Temperature Probe
   device name : Other
   Analog IN 1 : 
      unit : T/Â°C
      max : 100.000 at 2.000 V
      min : 0.000 at 1.460 V
tR (h:m:s)          0:00:30.0000        
dER/dt (mV/h)       1.0                 
record              <Ewe>               
dER (mV)            10.00               
dtR (s)             0.5000              
E range min (V)     -2.500              
E range max (V)     2.500               

mode	error	time/s	<Ewe/V>	Analog IN 1/V	
3	0	7.224804211843730E+002	1.2765083E+000	-2.7037677E+002
3	0	7.229804211717419E+002	1.2718712E+000	-2.7036972E+002
3	0	7.234804211591108E+002	1.2336042E+000	-2.7039801E+002
3	0	7.239804211464798E+002	1.1541835E+000	-2.7038742E+002
3	0	7.244804211338487E+002	8.8115484E-001	-2.7038385E+002
3	0	7.249804211212177E+002	4.5345521E-001	-2.7036267E+002
3	0	7.254804211085866E+002	3.5443181E-001	-2.7037326E+002
3	0	7.259804210959555E+002	3.4036008E-001	-2.7038031E+002
3	0	7.264804210833245E+002	3.3164051E-001	-2.7040155E+002
3	0	7.269804210706934E+002	3.2485008E-001	-2.7036618E+002
3	0	7.274804210580623E+002	3.1977236E-001	-2.7038385E+002
3	0	7.279804210454313E+002	3.1593215E-001	-2.7038385E+002
3	0	7.284804210328002E+002	3.1294817E-001	-2.7037326E+002
3	0	7.289804210201692E+002	3.1054845E-001	-2.7036267E+002
3	0	7.294804210075381E+002	3.0857509E-001	-2.7037677E+002
3	0	7.299804209949070E+002	3.0687961E-001	-2.7036618E+002
3	0	7.304804209822760E+002	3.0541164E-001	-2.7038031E+002
3	0	7.309804209696449E+002	3.0415285E-001	-2.7038031E+002
3	0	7.314804209570138E+002	3.0303544E-001	-2.7036618E+002
3	0	7.319804209443828E+002	3.0202255E-001	-2.7033438E+002
3	0	7.324804209317517E+002	3.0108947E-001	-2.7036972E+002
3	0	7.329804209191207E+002	3.0022806E-001	-2.7036618E+002
3	0	7.334804209064896E+002	2.9941985E-001	-2.7035913E+002
3	0	7.339804208938585E+002	2.9861996E-001	-2.7037326E+002
3	0	7.344804208812275E+002	2.9784650E-001	-2.7038742E+002
3	0	7.349804208685964E+002	2.9713365E-001	-2.7038031E+002
3	0	7.354804208559653E+002	2.9646510E-001	-2.7038031E+002
3	0	7.359804208433343E+002	2.9581776E-001	-2.7037677E+002
3	0	7.364804208307032E+002	2.9519150E-001	-2.7037326E+002
3	0	7.369804208180722E+002	2.9458547E-001	-2.7039801E+002
3	0	7.374804208054411E+002	2.9397416E-001	-2.7038031E+002
3	0	7.379804207928100E+002	2.9335368E-001	-2.7036267E+002
3	0	7.384804207801790E+002	2.9273519E-001	-2.7037326E+002
3	0	7.389804207675479E+002	2.9214638E-001	-2.7038385E+002
3	0	7.394804207549169E+002	2.9158673E-001	-2.7039093E+002
3	0	7.399804207422858E+002	2.9103020E-001	-2.7036972E+002
3	0	7.404804207296547E+002	2.9049012E-001	-2.7037677E+002
3	0	7.409804207170237E+002	2.8995520E-001	-2.7040506E+002
3	0	7.414804207043926E+002	2.8941318E-001	-2.7036972E+002
3	0	7.419804206917615E+002	2.8886172E-001	-2.7038385E+002
3	0	7.424804206791305E+002	2.8829664E-001	-2.7037326E+002
3	0	7.429804206664994E+002	2.8776741E-001	-2.7038031E+002
3	0	7.434804206538684E+002	2.8725576E-001	-2.7037326E+002
3	0	7.439804206412373E+002	2.8675070E-001	-2.7038385E+002
3	0	7.444804206286062E+002	2.8624579E-001	-2.7038031E+002
3	0	7.449804206159752E+002	2.8574374E-001	-2.7038385E+002
3	0	7.454804206033441E+002	2.8523549E-001	-2.7038031E+002
3	0	7.459804205907130E+002	2.8471562E-001	-2.7038742E+002
3	0	7.464804205780820E+002	2.8419492E-001	-2.7038031E+002
3	0	7.469804205654509E+002	2.8370529E-001	-2.7038031E+002
3	0	7.474804205528199E+002	2.8322467E-001	-2.7038742E+002
3	0	7.479804205401888E+002	2.8275350E-001	-2.7036618E+002
3	0	7.484804205275577E+002	2.8228399E-001	-2.7038031E+002
3	0	7.489804205149267E+002	2.8182074E-001	-2.7037677E+002
3	0	7.494804205022956E+002	2.8135654E-001	-2.7036972E+002
3	0	7.499804204896645E+002	2.8087673E-001	-2.7036267E+002
3	0	7.504804204770335E+002	2.8039676E-001	-2.7037326E+002
3	0	7.509804204644024E+002	2.7994809E-001	-2.7039093E+002
3	0	7.514804204517714E+002	2.7949852E-001	-2.7037677E+002
3	0	7.519804204391403E+002	2.7906182E-001	-2.7039093E+002
3	0	7.520038204385492E+002	2.7884403E-001	-2.7039801E+002