EC-Lab ASCII FILE
Nb header lines : 55                          

Open Circuit Voltage

Run on channel : 1 (SN 81504)
User : 
CE vs. WE compliance from -10 V to 10 V
Electrode connection : standard
Potential control : Ewe
Ewe ctrl range : min = -2.50 V, max = 2.50 V
Safety Limits :
	Do not start on E overload
Acquisition started on : 05/10/2026 07:17:37.794
Loaded Setting File :  C:\PEM-WE_measurements\2026\372_IV_IV IrOx, 5 min Pt, 30 min C, etched cathode\new station\Loopeis new\1,46 V different time gaps closed cell\Loopeis 1,46V_120s_5_PEIS from 65Hz to 10Hz.mps
Saved on :
	File : L_25_Loopeis 1,46V_120s_5_PEIS from 65Hz to 10Hz_14_OCV_C01.mpr
	Directory : C:\PEM-WE_measurements\2026\372_IV_IV IrOx, 5 min Pt, 30 min C, etched cathode\new station\Loopeis new\1,46 V different time gaps closed cell\
	Host : 192.168.0.2
Device : SP-150e (SN .005491)
Address : 192.168.0.91
EC-LAB for windows v11.71 (software)
Internet server v28.00 (firmware)
Command interpretor v14.01 (firmware)
Electrode material : 
Initial state : 
Electrolyte : 
Comments : 
Current amplifier : SP-150eB-20A
Electrode surface area : 0.001 cm²
Characteristic mass : 0.001 g
Equivalent Weight : 0.000 g/eq.
Density : 0.000 g/cm3
Volume (V) : 0.001 cm³
Record Analogic IN 1
Text export
   Mode : Standard
   Time format : Elapsed
Cycle Definition : Charge/Discharge alternance
External device configuration :
   device type : Temperature Probe
   device name : Other
   Analog IN 1 : 
      unit : T/Â°C
      max : 100.000 at 2.000 V
      min : 0.000 at 1.460 V
tR (h:m:s)          0:02:0.0000         
dER/dt (mV/h)       1.0                 
record              <Ewe>               
dER (mV)            10.00               
dtR (s)             0.5000              
E range min (V)     -2.500              
E range max (V)     2.500               

mode	error	time/s	<Ewe/V>	Analog IN 1/V	
3	0	1.179364190496417E+003	1.2913892E+000	-2.7036618E+002
3	0	1.179864190483786E+003	1.2981983E+000	-2.7038031E+002
3	0	1.180364190471155E+003	1.2965003E+000	-2.7039093E+002
3	0	1.180864190458524E+003	1.2909045E+000	-2.7039093E+002
3	0	1.181364190445893E+003	1.2797967E+000	-2.7036267E+002
3	0	1.181864190433262E+003	1.2607085E+000	-2.7041568E+002
3	0	1.182364190420631E+003	1.2298640E+000	-2.7039801E+002
3	0	1.182864190408000E+003	1.1792290E+000	-2.7035559E+002
3	0	1.183364190395369E+003	1.0794553E+000	-2.7036972E+002
3	0	1.183864190382737E+003	7.7972645E-001	-2.7038742E+002
3	0	1.184364190370106E+003	5.3123260E-001	-2.7038385E+002
3	0	1.184864190357475E+003	4.5258498E-001	-2.7039093E+002
3	0	1.185364190344844E+003	4.2669156E-001	-2.7037326E+002
3	0	1.185864190332213E+003	4.1805023E-001	-2.7037677E+002
3	0	1.186364190319582E+003	4.1380736E-001	-2.7039447E+002
3	0	1.186864190306951E+003	4.1101521E-001	-2.7037326E+002
3	0	1.187364190294320E+003	4.0973929E-001	-2.7037326E+002
3	0	1.187864190281689E+003	4.0898079E-001	-2.7037326E+002
3	0	1.188364190269058E+003	4.0856555E-001	-2.7035913E+002
3	0	1.188864190256427E+003	4.0821579E-001	-2.7036972E+002
3	0	1.189364190243796E+003	4.0812609E-001	-2.7036267E+002
3	0	1.189864190231165E+003	4.0803197E-001	-2.7037677E+002
3	0	1.190364190218534E+003	4.0769160E-001	-2.7037677E+002
3	0	1.190864190205903E+003	4.0758541E-001	-2.7036972E+002
3	0	1.191364190193272E+003	4.0826356E-001	-2.7036267E+002
3	0	1.191864190180640E+003	4.0889692E-001	-2.7038385E+002
3	0	1.192364190168009E+003	4.0940529E-001	-2.7036618E+002
3	0	1.192864190155378E+003	4.0979633E-001	-2.7036972E+002
3	0	1.193364190142747E+003	4.1012836E-001	-2.7038742E+002
3	0	1.193864190130116E+003	4.1031599E-001	-2.7035913E+002
3	0	1.194364190117485E+003	4.1020006E-001	-2.7036618E+002
3	0	1.194864190104854E+003	4.1017517E-001	-2.7037677E+002
3	0	1.195364190092223E+003	4.1089362E-001	-2.7036618E+002
3	0	1.195864190079592E+003	4.1157243E-001	-2.7039447E+002
3	0	1.196364190066961E+003	4.1213420E-001	-2.7036618E+002
3	0	1.196864190054330E+003	4.1242385E-001	-2.7036618E+002
3	0	1.197364190041699E+003	4.1263938E-001	-2.7037677E+002
3	0	1.197864190029068E+003	4.1270265E-001	-2.7040155E+002
3	0	1.198364190016437E+003	4.1257390E-001	-2.7040860E+002
3	0	1.198864190003806E+003	4.1249266E-001	-2.7036618E+002
3	0	1.199364189991175E+003	4.1312161E-001	-2.7039093E+002
3	0	1.199864189978543E+003	4.1372335E-001	-2.7036972E+002
3	0	1.200364189965912E+003	4.1419786E-001	-2.7039093E+002
3	0	1.200864189953281E+003	4.1440988E-001	-2.7038742E+002
3	0	1.201364189940650E+003	4.1449520E-001	-2.7038385E+002
3	0	1.201864189928019E+003	4.1436139E-001	-2.7036618E+002
3	0	1.202364189915388E+003	4.1393483E-001	-2.7036972E+002
3	0	1.202864189902757E+003	4.1354725E-001	-2.7039093E+002
3	0	1.203364189890126E+003	4.1384771E-001	-2.7039093E+002
3	0	1.203864189877495E+003	4.1411012E-001	-2.7038742E+002
3	0	1.204364189864864E+003	4.1431385E-001	-2.7035913E+002
3	0	1.204864189852233E+003	4.1433132E-001	-2.7039093E+002
3	0	1.205364189839602E+003	4.1429496E-001	-2.7038742E+002
3	0	1.205864189826971E+003	4.1404563E-001	-2.7036972E+002
3	0	1.206364189814340E+003	4.1379344E-001	-2.7036618E+002
3	0	1.206864189801709E+003	4.1374499E-001	-2.7036972E+002
3	0	1.207364189789078E+003	4.1456139E-001	-2.7039447E+002
3	0	1.207864189776446E+003	4.1548684E-001	-2.7037677E+002
3	0	1.208364189763815E+003	4.1654226E-001	-2.7036618E+002
3	0	1.208864189751184E+003	4.1750106E-001	-2.7038385E+002
3	0	1.209364189738553E+003	4.1848513E-001	-2.7038385E+002
3	0	1.209864189725922E+003	4.1930604E-001	-2.7036618E+002
3	0	1.210364189713291E+003	4.1981986E-001	-2.7036618E+002
3	0	1.210864189700660E+003	4.2031488E-001	-2.7038385E+002
3	0	1.211364189688029E+003	4.2141542E-001	-2.7036618E+002
3	0	1.211864189675398E+003	4.2241654E-001	-2.7037326E+002
3	0	1.212364189662767E+003	4.2322999E-001	-2.7038385E+002
3	0	1.212864189650136E+003	4.2387629E-001	-2.7036618E+002
3	0	1.213364189637505E+003	4.2431232E-001	-2.7038742E+002
3	0	1.213864189624874E+003	4.2450613E-001	-2.7038385E+002
3	0	1.214364189612243E+003	4.2430374E-001	-2.7036972E+002
3	0	1.214864189599612E+003	4.2412966E-001	-2.7039447E+002
3	0	1.215364189586981E+003	4.2462307E-001	-2.7037677E+002
3	0	1.215864189574349E+003	4.2503127E-001	-2.7038742E+002
3	0	1.216364189561718E+003	4.2533582E-001	-2.7038385E+002
3	0	1.216864189549087E+003	4.2538503E-001	-2.7037677E+002
3	0	1.217364189536456E+003	4.2538610E-001	-2.7037326E+002
3	0	1.217864189523825E+003	4.2499098E-001	-2.7036618E+002
3	0	1.218364189511194E+003	4.2431912E-001	-2.7038742E+002
3	0	1.218864189498563E+003	4.2361262E-001	-2.7038031E+002
3	0	1.219364189485932E+003	4.2361701E-001	-2.7035913E+002
3	0	1.219864189473301E+003	4.2360061E-001	-2.7037326E+002
3	0	1.220364189460670E+003	4.2344660E-001	-2.7038031E+002
3	0	1.220864189448039E+003	4.2305207E-001	-2.7039447E+002
3	0	1.221364189435408E+003	4.2253250E-001	-2.7037677E+002
3	0	1.221864189422777E+003	4.2185193E-001	-2.7035205E+002
3	0	1.222364189410146E+003	4.2084602E-001	-2.7036267E+002
3	0	1.222864189397515E+003	4.1980979E-001	-2.7036618E+002
3	0	1.223364189384884E+003	4.1946766E-001	-2.7039093E+002
3	0	1.223864189372252E+003	4.1913742E-001	-2.7036267E+002
3	0	1.224364189359621E+003	4.1874376E-001	-2.7037677E+002
3	0	1.224864189346990E+003	4.1811520E-001	-2.7038385E+002
3	0	1.225364189334359E+003	4.1719133E-001	-2.7039801E+002
3	0	1.225864189321728E+003	4.1623792E-001	-2.7039093E+002
3	0	1.226364189309097E+003	4.1569221E-001	-2.7036618E+002
3	0	1.226864189296466E+003	4.1515520E-001	-2.7038385E+002
3	0	1.227364189283835E+003	4.1537625E-001	-2.7035913E+002
3	0	1.227864189271204E+003	4.1561720E-001	-2.7036972E+002
3	0	1.228364189258573E+003	4.1589174E-001	-2.7038742E+002
3	0	1.228864189245942E+003	4.1631183E-001	-2.7038385E+002
3	0	1.229364189233311E+003	4.1677770E-001	-2.7036972E+002
3	0	1.229864189220680E+003	4.1710910E-001	-2.7039093E+002
3	0	1.230364189208049E+003	4.1710719E-001	-2.7035559E+002
3	0	1.230864189195418E+003	4.1706863E-001	-2.7041919E+002
3	0	1.231364189182787E+003	4.1762665E-001	-2.7038742E+002
3	0	1.231864189170155E+003	4.1804066E-001	-2.7039447E+002
3	0	1.232364189157524E+003	4.1826090E-001	-2.7036972E+002
3	0	1.232864189144893E+003	4.1839641E-001	-2.7036267E+002
3	0	1.233364189132262E+003	4.1836369E-001	-2.7039801E+002
3	0	1.233864189119631E+003	4.1817826E-001	-2.7038031E+002
3	0	1.234364189107000E+003	4.1762492E-001	-2.7039801E+002
3	0	1.234864189094369E+003	4.1705963E-001	-2.7036618E+002
3	0	1.235364189081738E+003	4.1706327E-001	-2.7039447E+002
3	0	1.235864189069107E+003	4.1695911E-001	-2.7039093E+002
3	0	1.236364189056476E+003	4.1666114E-001	-2.7039093E+002
3	0	1.236864189043845E+003	4.1635397E-001	-2.7040155E+002
3	0	1.237364189031214E+003	4.1593894E-001	-2.7038031E+002
3	0	1.237864189018583E+003	4.1531515E-001	-2.7037677E+002
3	0	1.238364189005952E+003	4.1435602E-001	-2.7037677E+002
3	0	1.238864188993321E+003	4.1344240E-001	-2.7038385E+002
3	0	1.239364188980690E+003	4.1314235E-001	-2.7037677E+002
3	0	1.239864188968058E+003	4.1270426E-001	-2.7036972E+002
3	0	1.240364188955427E+003	4.1209432E-001	-2.7038742E+002
3	0	1.240864188942796E+003	4.1149533E-001	-2.7036618E+002
3	0	1.241364188930165E+003	4.1078493E-001	-2.7038031E+002
3	0	1.241864188917534E+003	4.0995368E-001	-2.7039801E+002
3	0	1.242364188904903E+003	4.0881881E-001	-2.7038031E+002
3	0	1.242864188892272E+003	4.0777472E-001	-2.7035559E+002
3	0	1.243364188879641E+003	4.0733075E-001	-2.7037677E+002
3	0	1.243864188867010E+003	4.0681261E-001	-2.7037326E+002
3	0	1.244364188854379E+003	4.0615782E-001	-2.7042273E+002
3	0	1.244864188841748E+003	4.0549242E-001	-2.7040155E+002
3	0	1.245364188829117E+003	4.0479895E-001	-2.7038742E+002
3	0	1.245864188816486E+003	4.0403527E-001	-2.7036972E+002
3	0	1.246364188803855E+003	4.0315130E-001	-2.7039801E+002
3	0	1.246864188791224E+003	4.0240282E-001	-2.7036267E+002
3	0	1.247364188778593E+003	4.0239006E-001	-2.7037677E+002
3	0	1.247864188765961E+003	4.0248153E-001	-2.7038742E+002
3	0	1.248364188753330E+003	4.0261227E-001	-2.7037326E+002
3	0	1.248864188740699E+003	4.0281090E-001	-2.7038031E+002
3	0	1.249364188728068E+003	4.0307122E-001	-2.7037677E+002
3	0	1.249864188715437E+003	4.0320781E-001	-2.7037326E+002
3	0	1.250364188702806E+003	4.0313604E-001	-2.7038385E+002
3	0	1.250864188690175E+003	4.0310472E-001	-2.7037677E+002
3	0	1.251364188677544E+003	4.0356109E-001	-2.7037677E+002
3	0	1.251864188664913E+003	4.0378174E-001	-2.7035913E+002
3	0	1.252364188652282E+003	4.0384573E-001	-2.7036972E+002
3	0	1.252864188639651E+003	4.0381181E-001	-2.7038385E+002
3	0	1.253364188627020E+003	4.0363109E-001	-2.7038385E+002
3	0	1.253864188614389E+003	4.0331209E-001	-2.7036972E+002
3	0	1.254364188601758E+003	4.0274122E-001	-2.7038742E+002
3	0	1.254864188589127E+003	4.0221819E-001	-2.7039093E+002
3	0	1.255364188576496E+003	4.0224159E-001	-2.7041568E+002
3	0	1.255864188563864E+003	4.0213096E-001	-2.7038385E+002
3	0	1.256364188551233E+003	4.0194201E-001	-2.7038031E+002
3	0	1.256864188538602E+003	4.0163273E-001	-2.7037677E+002
3	0	1.257364188525971E+003	4.0123174E-001	-2.7038385E+002
3	0	1.257864188513340E+003	4.0065628E-001	-2.7035559E+002
3	0	1.258364188500709E+003	3.9988583E-001	-2.7037677E+002
3	0	1.258864188488078E+003	3.9915738E-001	-2.7038031E+002
3	0	1.259364188475447E+003	3.9896542E-001	-2.7038385E+002
3	0	1.259864188462816E+003	3.9866018E-001	-2.7038031E+002
3	0	1.260364188450185E+003	3.9827162E-001	-2.7039801E+002
3	0	1.260864188437554E+003	3.9779150E-001	-2.7038385E+002
3	0	1.261364188424923E+003	3.9726886E-001	-2.7038742E+002
3	0	1.261864188412292E+003	3.9660633E-001	-2.7039093E+002
3	0	1.262364188399661E+003	3.9576584E-001	-2.7039093E+002
3	0	1.262864188387030E+003	3.9499733E-001	-2.7038742E+002
3	0	1.263364188374399E+003	3.9471659E-001	-2.7039093E+002
3	0	1.263864188361767E+003	3.9434710E-001	-2.7039447E+002
3	0	1.264364188349136E+003	3.9391831E-001	-2.7038031E+002
3	0	1.264864188336505E+003	3.9347959E-001	-2.7038031E+002
3	0	1.265364188323874E+003	3.9295071E-001	-2.7038385E+002
3	0	1.265864188311243E+003	3.9231819E-001	-2.7037677E+002
3	0	1.266364188298612E+003	3.9160973E-001	-2.7036972E+002
3	0	1.266864188285981E+003	3.9102474E-001	-2.7036618E+002
3	0	1.267364188273350E+003	3.9103961E-001	-2.7036618E+002
3	0	1.267864188260719E+003	3.9110404E-001	-2.7037677E+002
3	0	1.268364188248088E+003	3.9123139E-001	-2.7034497E+002
3	0	1.268864188235457E+003	3.9138162E-001	-2.7037677E+002
3	0	1.269364188222826E+003	3.9153606E-001	-2.7036618E+002
3	0	1.269864188210195E+003	3.9159644E-001	-2.7036972E+002
3	0	1.270364188197564E+003	3.9148656E-001	-2.7038742E+002
3	0	1.270864188184933E+003	3.9140302E-001	-2.7040155E+002
3	0	1.271364188172302E+003	3.9171383E-001	-2.7038742E+002
3	0	1.271864188159670E+003	3.9189589E-001	-2.7036618E+002
3	0	1.272364188147039E+003	3.9194247E-001	-2.7037677E+002
3	0	1.272864188134408E+003	3.9189726E-001	-2.7037326E+002
3	0	1.273364188121777E+003	3.9175639E-001	-2.7036972E+002
3	0	1.273864188109146E+003	3.9145905E-001	-2.7035559E+002
3	0	1.274364188096515E+003	3.9098832E-001	-2.7039093E+002
3	0	1.274864188083884E+003	3.9053336E-001	-2.7036267E+002
3	0	1.275364188071253E+003	3.9051676E-001	-2.7036972E+002
3	0	1.275864188058622E+003	3.9038169E-001	-2.7036267E+002
3	0	1.276364188045991E+003	3.9017949E-001	-2.7039093E+002
3	0	1.276864188033360E+003	3.8990879E-001	-2.7037326E+002
3	0	1.277364188020729E+003	3.8957509E-001	-2.7035913E+002
3	0	1.277864188008098E+003	3.8916647E-001	-2.7036972E+002
3	0	1.278364187995467E+003	3.8855380E-001	-2.7037677E+002
3	0	1.278864187982836E+003	3.8794664E-001	-2.7039801E+002
3	0	1.279364187970205E+003	3.8778871E-001	-2.7036618E+002
3	0	1.279864187957573E+003	3.8755938E-001	-2.7037677E+002
3	0	1.280364187944942E+003	3.8725546E-001	-2.7039801E+002
3	0	1.280864187932311E+003	3.8691717E-001	-2.7039093E+002
3	0	1.281364187919680E+003	3.8649368E-001	-2.7035913E+002
3	0	1.281864187907049E+003	3.8596308E-001	-2.7036267E+002
3	0	1.282364187894418E+003	3.8528410E-001	-2.7037677E+002
3	0	1.282864187881787E+003	3.8466603E-001	-2.7038031E+002
3	0	1.283364187869156E+003	3.8447171E-001	-2.7036972E+002
3	0	1.283864187856525E+003	3.8422889E-001	-2.7039447E+002
3	0	1.284364187843894E+003	3.8390970E-001	-2.7039093E+002
3	0	1.284864187831263E+003	3.8358104E-001	-2.7038742E+002
3	0	1.285364187818632E+003	3.8318381E-001	-2.7038742E+002
3	0	1.285864187806001E+003	3.8268584E-001	-2.7037677E+002
3	0	1.286364187793370E+003	3.8207522E-001	-2.7039093E+002
3	0	1.286864187780739E+003	3.8162154E-001	-2.7037326E+002
3	0	1.287364187768108E+003	3.8164717E-001	-2.7036972E+002
3	0	1.287864187755476E+003	3.8167629E-001	-2.7036267E+002
3	0	1.288364187742845E+003	3.8174543E-001	-2.7039447E+002
3	0	1.288864187730214E+003	3.8188994E-001	-2.7036972E+002
3	0	1.289364187717583E+003	3.8206092E-001	-2.7038385E+002
3	0	1.289864187704952E+003	3.8216552E-001	-2.7038385E+002
3	0	1.290364187692321E+003	3.8211372E-001	-2.7036267E+002
3	0	1.290864187679690E+003	3.8206154E-001	-2.7040155E+002
3	0	1.291364187667059E+003	3.8234153E-001	-2.7038031E+002
3	0	1.291864187654428E+003	3.8249698E-001	-2.7039093E+002
3	0	1.292364187641797E+003	3.8255686E-001	-2.7038742E+002
3	0	1.292864187629166E+003	3.8252124E-001	-2.7038385E+002
3	0	1.293364187616535E+003	3.8242885E-001	-2.7040155E+002
3	0	1.293864187603904E+003	3.8221365E-001	-2.7037326E+002
3	0	1.294364187591273E+003	3.8185304E-001	-2.7037326E+002
3	0	1.294864187578642E+003	3.8147315E-001	-2.7036972E+002
3	0	1.295364187566011E+003	3.8145158E-001	-2.7037326E+002
3	0	1.295864187553379E+003	3.8138160E-001	-2.7039093E+002
3	0	1.296364187540748E+003	3.8125375E-001	-2.7039447E+002
3	0	1.296864187528117E+003	3.8106307E-001	-2.7039093E+002
3	0	1.297364187515486E+003	3.8080865E-001	-2.7041214E+002
3	0	1.297864187502855E+003	3.8043651E-001	-2.7036618E+002
3	0	1.298364187490224E+003	3.7988544E-001	-2.7037326E+002
3	0	1.298864187477593E+003	3.7939045E-001	-2.7038742E+002
3	0	1.298864587477583E+003	3.7928656E-001	-2.7039093E+002