EC-Lab ASCII FILE
Nb header lines : 55                          

Open Circuit Voltage

Run on channel : 1 (SN 81504)
User : 
CE vs. WE compliance from -10 V to 10 V
Electrode connection : standard
Potential control : Ewe
Ewe ctrl range : min = -2.50 V, max = 2.50 V
Safety Limits :
	Do not start on E overload
Acquisition started on : 05/10/2026 01:12:03.277
Loaded Setting File :  C:\PEM-WE_measurements\2026\372_IV_IV IrOx, 5 min Pt, 30 min C, etched cathode\new station\Loopeis new\1,46 V different time gaps closed cell\Loopeis 1,46V_45s_4_PEIS from 650Hz to 100Hz.mps
Saved on :
	File : L_09_Loopeis 1,46V_45s_4_PEIS from 650Hz to 100Hz_14_OCV_C01.mpr
	Directory : C:\PEM-WE_measurements\2026\372_IV_IV IrOx, 5 min Pt, 30 min C, etched cathode\new station\Loopeis new\1,46 V different time gaps closed cell\
	Host : 192.168.0.2
Device : SP-150e (SN .005491)
Address : 192.168.0.91
EC-LAB for windows v11.71 (software)
Internet server v28.00 (firmware)
Command interpretor v14.01 (firmware)
Electrode material : 
Initial state : 
Electrolyte : 
Comments : 
Current amplifier : SP-150eB-20A
Electrode surface area : 0.001 cm²
Characteristic mass : 0.001 g
Equivalent Weight : 0.000 g/eq.
Density : 0.000 g/cm3
Volume (V) : 0.001 cm³
Record Analogic IN 1
Text export
   Mode : Standard
   Time format : Elapsed
Cycle Definition : Charge/Discharge alternance
External device configuration :
   device type : Temperature Probe
   device name : Other
   Analog IN 1 : 
      unit : T/Â°C
      max : 100.000 at 2.000 V
      min : 0.000 at 1.460 V
tR (h:m:s)          0:00:45.0000        
dER/dt (mV/h)       1.0                 
record              <Ewe>               
dER (mV)            10.00               
dtR (s)             0.5000              
E range min (V)     -2.500              
E range max (V)     2.500               

mode	error	time/s	<Ewe/V>	Analog IN 1/V	
3	0	5.887621951861365E+002	1.4189500E+000	-2.7039447E+002
3	0	5.892621951735055E+002	1.4107205E+000	-2.7038742E+002
3	0	5.897621951608744E+002	1.4051526E+000	-2.7037326E+002
3	0	5.902621951482433E+002	1.4010888E+000	-2.7035559E+002
3	0	5.907621951356123E+002	1.3978070E+000	-2.7040155E+002
3	0	5.912621951229812E+002	1.3949573E+000	-2.7039801E+002
3	0	5.917621951103501E+002	1.3924379E+000	-2.7038385E+002
3	0	5.922621950977191E+002	1.3902925E+000	-2.7038742E+002
3	0	5.927621950850880E+002	1.3883954E+000	-2.7035559E+002
3	0	5.932621950724570E+002	1.3866537E+000	-2.7038742E+002
3	0	5.937621950598259E+002	1.3850522E+000	-2.7037326E+002
3	0	5.942621950471948E+002	1.3835781E+000	-2.7036972E+002
3	0	5.947621950345638E+002	1.3821547E+000	-2.7037326E+002
3	0	5.952621950219327E+002	1.3807353E+000	-2.7036618E+002
3	0	5.957621950093016E+002	1.3793700E+000	-2.7038031E+002
3	0	5.962621949966706E+002	1.3781627E+000	-2.7036267E+002
3	0	5.967621949840395E+002	1.3770517E+000	-2.7036972E+002
3	0	5.972621949714085E+002	1.3759941E+000	-2.7036972E+002
3	0	5.977621949587774E+002	1.3749974E+000	-2.7036972E+002
3	0	5.982621949461463E+002	1.3740659E+000	-2.7037326E+002
3	0	5.987621949335153E+002	1.3731421E+000	-2.7040155E+002
3	0	5.992621949208842E+002	1.3721700E+000	-2.7037326E+002
3	0	5.997621949082532E+002	1.3712318E+000	-2.7038031E+002
3	0	6.002621948956221E+002	1.3704253E+000	-2.7038385E+002
3	0	6.007621948829910E+002	1.3696918E+000	-2.7036972E+002
3	0	6.012621948703600E+002	1.3689634E+000	-2.7035913E+002
3	0	6.017621948577289E+002	1.3682929E+000	-2.7037677E+002
3	0	6.022621948450978E+002	1.3676387E+000	-2.7037677E+002
3	0	6.027621948324668E+002	1.3669735E+000	-2.7037326E+002
3	0	6.032621948198357E+002	1.3662496E+000	-2.7037677E+002
3	0	6.037621948072047E+002	1.3655329E+000	-2.7036618E+002
3	0	6.042621947945736E+002	1.3649371E+000	-2.7038385E+002
3	0	6.047621947819425E+002	1.3643856E+000	-2.7039093E+002
3	0	6.052621947693115E+002	1.3638306E+000	-2.7037677E+002
3	0	6.057621947566804E+002	1.3633010E+000	-2.7035205E+002
3	0	6.062621947440493E+002	1.3627793E+000	-2.7037326E+002
3	0	6.067621947314183E+002	1.3622321E+000	-2.7040155E+002
3	0	6.072621947187872E+002	1.3616272E+000	-2.7037677E+002
3	0	6.077621947061562E+002	1.3610129E+000	-2.7036972E+002
3	0	6.082621946935251E+002	1.3605093E+000	-2.7037326E+002
3	0	6.087621946808940E+002	1.3600423E+000	-2.7039093E+002
3	0	6.092621946682630E+002	1.3595735E+000	-2.7036972E+002
3	0	6.097621946556319E+002	1.3591118E+000	-2.7038742E+002
3	0	6.102621946430008E+002	1.3586613E+000	-2.7038742E+002
3	0	6.107621946303698E+002	1.3581712E+000	-2.7038385E+002
3	0	6.112621946177387E+002	1.3576040E+000	-2.7036267E+002
3	0	6.117621946051077E+002	1.3570398E+000	-2.7037326E+002
3	0	6.122621945924766E+002	1.3565629E+000	-2.7036267E+002
3	0	6.127621945798455E+002	1.3561212E+000	-2.7036972E+002
3	0	6.132621945672145E+002	1.3556799E+000	-2.7037326E+002
3	0	6.137621945545834E+002	1.3552451E+000	-2.7038742E+002
3	0	6.142621945419523E+002	1.3548176E+000	-2.7040155E+002
3	0	6.147621945293213E+002	1.3543502E+000	-2.7039801E+002
3	0	6.152621945166902E+002	1.3537960E+000	-2.7036972E+002
3	0	6.157621945040592E+002	1.3532426E+000	-2.7039093E+002
3	0	6.162621944914281E+002	1.3527789E+000	-2.7039447E+002
3	0	6.167621944787970E+002	1.3523540E+000	-2.7037677E+002
3	0	6.172621944661660E+002	1.3519353E+000	-2.7036972E+002
3	0	6.177621944535349E+002	1.3515185E+000	-2.7037326E+002
3	0	6.182621944409038E+002	1.3511183E+000	-2.7037677E+002
3	0	6.187621944282728E+002	1.3506848E+000	-2.7038031E+002
3	0	6.192621944156417E+002	1.3501930E+000	-2.7039093E+002
3	0	6.197621944030107E+002	1.3496981E+000	-2.7037326E+002
3	0	6.202621943903796E+002	1.3492991E+000	-2.7037326E+002
3	0	6.207621943777485E+002	1.3489354E+000	-2.7037677E+002
3	0	6.212621943651175E+002	1.3485717E+000	-2.7036972E+002
3	0	6.217621943524864E+002	1.3482177E+000	-2.7037326E+002
3	0	6.222621943398553E+002	1.3478583E+000	-2.7036972E+002
3	0	6.227621943272243E+002	1.3474568E+000	-2.7038385E+002
3	0	6.232621943145932E+002	1.3469901E+000	-2.7036618E+002
3	0	6.237621943019622E+002	1.3465104E+000	-2.7038031E+002
3	0	6.242621942893311E+002	1.3461242E+000	-2.7035913E+002
3	0	6.247621942767000E+002	1.3457704E+000	-2.7038742E+002
3	0	6.252621942640690E+002	1.3454084E+000	-2.7036972E+002
3	0	6.257621942514379E+002	1.3450431E+000	-2.7040506E+002
3	0	6.262621942388068E+002	1.3446805E+000	-2.7037326E+002
3	0	6.267621942261758E+002	1.3442801E+000	-2.7039093E+002
3	0	6.272621942135447E+002	1.3438108E+000	-2.7038385E+002
3	0	6.277621942009137E+002	1.3433168E+000	-2.7038385E+002
3	0	6.282621941882826E+002	1.3429207E+000	-2.7038385E+002
3	0	6.287621941756515E+002	1.3425423E+000	-2.7036972E+002
3	0	6.292621941630205E+002	1.3421601E+000	-2.7039447E+002
3	0	6.297621941503894E+002	1.3417751E+000	-2.7038031E+002
3	0	6.302621941377583E+002	1.3413815E+000	-2.7038385E+002
3	0	6.307621941251273E+002	1.3409582E+000	-2.7037326E+002
3	0	6.312621941124962E+002	1.3404605E+000	-2.7039447E+002
3	0	6.317621940998652E+002	1.3399367E+000	-2.7040155E+002
3	0	6.322621940872341E+002	1.3395169E+000	-2.7037677E+002
3	0	6.327621940746030E+002	1.3391119E+000	-2.7036618E+002
3	0	6.332621940619720E+002	1.3386823E+000	-2.7037677E+002
3	0	6.332625940619619E+002	1.3385075E+000	-2.7039093E+002