EC-Lab ASCII FILE
Nb header lines : 55                          

Open Circuit Voltage

Run on channel : 1 (SN 81504)
User : 
CE vs. WE compliance from -10 V to 10 V
Electrode connection : standard
Potential control : Ewe
Ewe ctrl range : min = -2.50 V, max = 2.50 V
Safety Limits :
	Do not start on E overload
Acquisition started on : 05/07/2026 15:46:26.830
Loaded Setting File :  C:\PEM-WE_measurements\2026\372_IV_IV IrOx, 5 min Pt, 30 min C, etched cathode\new station\Loopeis new\1,46 V different time gaps open cell\Loopeis 1,46V_45s_3_PEIS from 6500Hz to 1000Hz.mps
Saved on :
	File : L_08_Loopeis 1,46V_45s_3_PEIS from 6500Hz to 1000Hz_14_OCV_C01.mpr
	Directory : C:\PEM-WE_measurements\2026\372_IV_IV IrOx, 5 min Pt, 30 min C, etched cathode\new station\Loopeis new\1,46 V different time gaps open cell\
	Host : 192.168.0.2
Device : SP-150e (SN .005491)
Address : 192.168.0.91
EC-LAB for windows v11.71 (software)
Internet server v28.00 (firmware)
Command interpretor v14.01 (firmware)
Electrode material : 
Initial state : 
Electrolyte : 
Comments : 
Current amplifier : SP-150eB-20A
Electrode surface area : 0.001 cm²
Characteristic mass : 0.001 g
Equivalent Weight : 0.000 g/eq.
Density : 0.000 g/cm3
Volume (V) : 0.001 cm³
Record Analogic IN 1
Text export
   Mode : Standard
   Time format : Elapsed
Cycle Definition : Charge/Discharge alternance
External device configuration :
   device type : Temperature Probe
   device name : Other
   Analog IN 1 : 
      unit : T/Â°C
      max : 100.000 at 2.000 V
      min : 0.000 at 1.460 V
tR (h:m:s)          0:00:45.0000        
dER/dt (mV/h)       1.0                 
record              <Ewe>               
dER (mV)            10.00               
dtR (s)             0.5000              
E range min (V)     -2.500              
E range max (V)     2.500               

mode	error	time/s	<Ewe/V>	Analog IN 1/V	
3	0	5.878591951432463E+002	1.2769064E+000	-2.7037677E+002
3	0	5.883591951306153E+002	1.2714446E+000	-2.7037677E+002
3	0	5.888591951179842E+002	1.2345982E+000	-2.7039447E+002
3	0	5.893591951053531E+002	1.1592238E+000	-2.7037677E+002
3	0	5.898591950927221E+002	9.1995519E-001	-2.7039801E+002
3	0	5.903591950800910E+002	4.7408766E-001	-2.7038742E+002
3	0	5.908591950674600E+002	3.5590282E-001	-2.7040860E+002
3	0	5.913591950548289E+002	3.3961025E-001	-2.7036972E+002
3	0	5.918591950421978E+002	3.3070570E-001	-2.7038031E+002
3	0	5.923591950295668E+002	3.2367301E-001	-2.7038031E+002
3	0	5.928591950169357E+002	3.1833893E-001	-2.7037677E+002
3	0	5.933591950043046E+002	3.1426927E-001	-2.7036618E+002
3	0	5.938591949916736E+002	3.1109330E-001	-2.7038742E+002
3	0	5.943591949790425E+002	3.0855900E-001	-2.7036972E+002
3	0	5.948591949664115E+002	3.0648205E-001	-2.7038742E+002
3	0	5.953591949537804E+002	3.0472404E-001	-2.7038031E+002
3	0	5.958591949411493E+002	3.0321357E-001	-2.7037326E+002
3	0	5.963591949285183E+002	3.0188322E-001	-2.7037677E+002
3	0	5.968591949158872E+002	3.0067837E-001	-2.7039801E+002
3	0	5.973591949032561E+002	2.9956901E-001	-2.7036972E+002
3	0	5.978591948906251E+002	2.9855484E-001	-2.7037677E+002
3	0	5.983591948779940E+002	2.9764825E-001	-2.7037326E+002
3	0	5.988591948653630E+002	2.9679754E-001	-2.7038031E+002
3	0	5.993591948527319E+002	2.9599169E-001	-2.7037677E+002
3	0	5.998591948401008E+002	2.9523349E-001	-2.7036618E+002
3	0	6.003591948274698E+002	2.9450282E-001	-2.7036618E+002
3	0	6.008591948148387E+002	2.9378358E-001	-2.7036618E+002
3	0	6.013591948022076E+002	2.9308203E-001	-2.7038031E+002
3	0	6.018591947895766E+002	2.9238784E-001	-2.7038742E+002
3	0	6.023591947769455E+002	2.9174778E-001	-2.7038742E+002
3	0	6.028591947643145E+002	2.9112199E-001	-2.7036618E+002
3	0	6.033591947516834E+002	2.9051262E-001	-2.7038031E+002
3	0	6.038591947390523E+002	2.8991324E-001	-2.7037326E+002
3	0	6.043591947264213E+002	2.8932199E-001	-2.7038385E+002
3	0	6.048591947137902E+002	2.8872904E-001	-2.7035559E+002
3	0	6.053591947011591E+002	2.8812221E-001	-2.7036972E+002
3	0	6.058591946885281E+002	2.8752619E-001	-2.7038031E+002
3	0	6.063591946758970E+002	2.8697416E-001	-2.7037326E+002
3	0	6.068591946632660E+002	2.8643578E-001	-2.7039447E+002
3	0	6.073591946506349E+002	2.8589335E-001	-2.7037677E+002
3	0	6.078591946380038E+002	2.8535527E-001	-2.7037326E+002
3	0	6.083591946253728E+002	2.8482807E-001	-2.7037677E+002
3	0	6.088591946127417E+002	2.8429005E-001	-2.7039093E+002
3	0	6.093591946001106E+002	2.8372729E-001	-2.7038031E+002
3	0	6.098591945874796E+002	2.8317890E-001	-2.7036972E+002
3	0	6.103591945748485E+002	2.8267050E-001	-2.7039801E+002
3	0	6.108591945622175E+002	2.8217155E-001	-2.7038385E+002
3	0	6.113591945495864E+002	2.8166813E-001	-2.7038385E+002
3	0	6.118591945369553E+002	2.8116494E-001	-2.7038385E+002
3	0	6.123591945243243E+002	2.8067616E-001	-2.7039801E+002
3	0	6.128591945116932E+002	2.8017026E-001	-2.7039093E+002
3	0	6.133591944990621E+002	2.7965748E-001	-2.7040155E+002
3	0	6.138591944864311E+002	2.7915865E-001	-2.7038031E+002
3	0	6.143591944738000E+002	2.7868974E-001	-2.7038385E+002
3	0	6.148591944611690E+002	2.7822721E-001	-2.7040506E+002
3	0	6.153591944485379E+002	2.7776253E-001	-2.7036972E+002
3	0	6.158591944359068E+002	2.7729914E-001	-2.7038385E+002
3	0	6.163591944232758E+002	2.7683833E-001	-2.7038742E+002
3	0	6.168591944106447E+002	2.7636403E-001	-2.7040860E+002
3	0	6.173591943980136E+002	2.7588007E-001	-2.7036267E+002
3	0	6.178591943853826E+002	2.7541435E-001	-2.7036618E+002
3	0	6.183591943727515E+002	2.7497548E-001	-2.7038385E+002
3	0	6.188591943601205E+002	2.7455729E-001	-2.7035913E+002
3	0	6.193591943474894E+002	2.7413076E-001	-2.7038031E+002
3	0	6.198591943348583E+002	2.7371001E-001	-2.7035559E+002
3	0	6.203591943222273E+002	2.7327988E-001	-2.7037326E+002
3	0	6.208591943095962E+002	2.7284676E-001	-2.7037677E+002
3	0	6.213591942969651E+002	2.7239665E-001	-2.7037677E+002
3	0	6.218591942843341E+002	2.7196434E-001	-2.7038385E+002
3	0	6.223591942717030E+002	2.7156168E-001	-2.7039093E+002
3	0	6.228591942590720E+002	2.7116475E-001	-2.7039801E+002
3	0	6.233591942464409E+002	2.7077273E-001	-2.7037677E+002
3	0	6.238591942338098E+002	2.7038014E-001	-2.7037677E+002
3	0	6.243591942211788E+002	2.6998511E-001	-2.7038031E+002
3	0	6.248591942085477E+002	2.6959008E-001	-2.7036972E+002
3	0	6.253591941959166E+002	2.6917660E-001	-2.7037677E+002
3	0	6.258591941832856E+002	2.6877207E-001	-2.7035559E+002
3	0	6.263591941706545E+002	2.6840690E-001	-2.7039801E+002
3	0	6.268591941580235E+002	2.6804245E-001	-2.7038742E+002
3	0	6.273591941453924E+002	2.6767784E-001	-2.7041214E+002
3	0	6.278591941327613E+002	2.6730999E-001	-2.7038742E+002
3	0	6.283591941201303E+002	2.6695278E-001	-2.7038742E+002
3	0	6.288591941074992E+002	2.6657546E-001	-2.7038742E+002
3	0	6.293591940948681E+002	2.6618609E-001	-2.7035205E+002
3	0	6.298591940822371E+002	2.6581541E-001	-2.7038031E+002
3	0	6.303591940696060E+002	2.6547506E-001	-2.7036972E+002
3	0	6.308591940569750E+002	2.6514342E-001	-2.7038385E+002
3	0	6.313591940443439E+002	2.6480806E-001	-2.7037677E+002
3	0	6.318591940317128E+002	2.6448366E-001	-2.7036972E+002
3	0	6.323591940190818E+002	2.6415116E-001	-2.7034851E+002
3	0	6.323595940190717E+002	2.6396620E-001	-2.7037677E+002