EC-Lab ASCII FILE
Nb header lines : 55                          

Open Circuit Voltage

Run on channel : 1 (SN 81504)
User : 
CE vs. WE compliance from -10 V to 10 V
Electrode connection : standard
Potential control : Ewe
Ewe ctrl range : min = -2.50 V, max = 2.50 V
Safety Limits :
	Do not start on E overload
Acquisition started on : 05/07/2026 21:45:35.104
Loaded Setting File :  C:\PEM-WE_measurements\2026\372_IV_IV IrOx, 5 min Pt, 30 min C, etched cathode\new station\Loopeis new\1,46 V different time gaps open cell\Loopeis 1,46V_120s_4_PEIS from 650Hz to 100Hz.mps
Saved on :
	File : L_24_Loopeis 1,46V_120s_4_PEIS from 650Hz to 100Hz_18_OCV_C01.mpr
	Directory : C:\PEM-WE_measurements\2026\372_IV_IV IrOx, 5 min Pt, 30 min C, etched cathode\new station\Loopeis new\1,46 V different time gaps open cell\
	Host : 192.168.0.2
Device : SP-150e (SN .005491)
Address : 192.168.0.91
EC-LAB for windows v11.71 (software)
Internet server v28.00 (firmware)
Command interpretor v14.01 (firmware)
Electrode material : 
Initial state : 
Electrolyte : 
Comments : 
Current amplifier : SP-150eB-20A
Electrode surface area : 0.001 cm²
Characteristic mass : 0.001 g
Equivalent Weight : 0.000 g/eq.
Density : 0.000 g/cm3
Volume (V) : 0.001 cm³
Record Analogic IN 1
Text export
   Mode : Standard
   Time format : Elapsed
Cycle Definition : Charge/Discharge alternance
External device configuration :
   device type : Temperature Probe
   device name : Other
   Analog IN 1 : 
      unit : T/Â°C
      max : 100.000 at 2.000 V
      min : 0.000 at 1.460 V
tR (h:m:s)          0:02:0.0000         
dER/dt (mV/h)       1.0                 
record              <Ewe>               
dER (mV)            10.00               
dtR (s)             0.5000              
E range min (V)     -2.500              
E range max (V)     2.500               

mode	error	time/s	<Ewe/V>	Analog IN 1/V	
3	0	1.370662978846012E+003	1.2258574E+000	-2.7039447E+002
3	0	1.371162978833381E+003	1.1838142E+000	-2.7037677E+002
3	0	1.371662978820750E+003	8.7322307E-001	-2.7041214E+002
3	0	1.372162978808119E+003	4.4460514E-001	-2.7039801E+002
3	0	1.372662978795488E+003	3.4770170E-001	-2.7036972E+002
3	0	1.373162978782857E+003	3.3400896E-001	-2.7037326E+002
3	0	1.373662978770226E+003	3.2597303E-001	-2.7035913E+002
3	0	1.374162978757595E+003	3.1961474E-001	-2.7038742E+002
3	0	1.374662978744964E+003	3.1475028E-001	-2.7038031E+002
3	0	1.375162978732333E+003	3.1100133E-001	-2.7037326E+002
3	0	1.375662978719702E+003	3.0803850E-001	-2.7038031E+002
3	0	1.376162978707071E+003	3.0567253E-001	-2.7037677E+002
3	0	1.376662978694440E+003	3.0371630E-001	-2.7036972E+002
3	0	1.377162978681808E+003	3.0205694E-001	-2.7037326E+002
3	0	1.377662978669177E+003	3.0061793E-001	-2.7037677E+002
3	0	1.378162978656546E+003	2.9935175E-001	-2.7037677E+002
3	0	1.378662978643915E+003	2.9821137E-001	-2.7036618E+002
3	0	1.379162978631284E+003	2.9714638E-001	-2.7035559E+002
3	0	1.379662978618653E+003	2.9616758E-001	-2.7037326E+002
3	0	1.380162978606022E+003	2.9529458E-001	-2.7038742E+002
3	0	1.380662978593391E+003	2.9448283E-001	-2.7037326E+002
3	0	1.381162978580760E+003	2.9371798E-001	-2.7038385E+002
3	0	1.381662978568129E+003	2.9298475E-001	-2.7040860E+002
3	0	1.382162978555498E+003	2.9227880E-001	-2.7039801E+002
3	0	1.382662978542867E+003	2.9158476E-001	-2.7038742E+002
3	0	1.383162978530236E+003	2.9088703E-001	-2.7040860E+002
3	0	1.383662978517605E+003	2.9021221E-001	-2.7038031E+002
3	0	1.384162978504974E+003	2.8959623E-001	-2.7036618E+002
3	0	1.384662978492343E+003	2.8899801E-001	-2.7038385E+002
3	0	1.385162978479711E+003	2.8841630E-001	-2.7040860E+002
3	0	1.385662978467080E+003	2.8783634E-001	-2.7037326E+002
3	0	1.386162978454449E+003	2.8726038E-001	-2.7037677E+002
3	0	1.386662978441818E+003	2.8669003E-001	-2.7037677E+002
3	0	1.387162978429187E+003	2.8610468E-001	-2.7037326E+002
3	0	1.387662978416556E+003	2.8552097E-001	-2.7039093E+002
3	0	1.388162978403925E+003	2.8498444E-001	-2.7039801E+002
3	0	1.388662978391294E+003	2.8446350E-001	-2.7038742E+002
3	0	1.389162978378663E+003	2.8393751E-001	-2.7035913E+002
3	0	1.389662978366032E+003	2.8341964E-001	-2.7040155E+002
3	0	1.390162978353401E+003	2.8290600E-001	-2.7033438E+002
3	0	1.390662978340770E+003	2.8239152E-001	-2.7040506E+002
3	0	1.391162978328139E+003	2.8186110E-001	-2.7037326E+002
3	0	1.391662978315508E+003	2.8132740E-001	-2.7039093E+002
3	0	1.392162978302877E+003	2.8084472E-001	-2.7039093E+002
3	0	1.392662978290246E+003	2.8036469E-001	-2.7039447E+002
3	0	1.393162978277614E+003	2.7988875E-001	-2.7038742E+002
3	0	1.393662978264983E+003	2.7941927E-001	-2.7037677E+002
3	0	1.394162978252352E+003	2.7895355E-001	-2.7040506E+002
3	0	1.394662978239721E+003	2.7847758E-001	-2.7038385E+002
3	0	1.395162978227090E+003	2.7798244E-001	-2.7038031E+002
3	0	1.395662978214459E+003	2.7749875E-001	-2.7038742E+002
3	0	1.396162978201828E+003	2.7705127E-001	-2.7038742E+002
3	0	1.396662978189197E+003	2.7661490E-001	-2.7038742E+002
3	0	1.397162978176566E+003	2.7617264E-001	-2.7036618E+002
3	0	1.397662978163935E+003	2.7574113E-001	-2.7038742E+002
3	0	1.398162978151304E+003	2.7529943E-001	-2.7038031E+002
3	0	1.398662978138673E+003	2.7486250E-001	-2.7039447E+002
3	0	1.399162978126042E+003	2.7441287E-001	-2.7038385E+002
3	0	1.399662978113411E+003	2.7396071E-001	-2.7036618E+002
3	0	1.400162978100780E+003	2.7355102E-001	-2.7038031E+002
3	0	1.400662978088149E+003	2.7315015E-001	-2.7036972E+002
3	0	1.401162978075517E+003	2.7274001E-001	-2.7039447E+002
3	0	1.401662978062886E+003	2.7234754E-001	-2.7039447E+002
3	0	1.402162978050255E+003	2.7195376E-001	-2.7035559E+002
3	0	1.402662978037624E+003	2.7154082E-001	-2.7039801E+002
3	0	1.403162978024993E+003	2.7111331E-001	-2.7037326E+002
3	0	1.403662978012362E+003	2.7069792E-001	-2.7037326E+002
3	0	1.404162977999731E+003	2.7031636E-001	-2.7039093E+002
3	0	1.404662977987100E+003	2.6994535E-001	-2.7041919E+002
3	0	1.405162977974469E+003	2.6957980E-001	-2.7036267E+002
3	0	1.405662977961838E+003	2.6921245E-001	-2.7038385E+002
3	0	1.406162977949207E+003	2.6884210E-001	-2.7038742E+002
3	0	1.406662977936576E+003	2.6847038E-001	-2.7037677E+002
3	0	1.407162977923945E+003	2.6807380E-001	-2.7036972E+002
3	0	1.407662977911314E+003	2.6769227E-001	-2.7039447E+002
3	0	1.408162977898683E+003	2.6734582E-001	-2.7037677E+002
3	0	1.408662977886052E+003	2.6700708E-001	-2.7039447E+002
3	0	1.409162977873420E+003	2.6666200E-001	-2.7036618E+002
3	0	1.409662977860789E+003	2.6631731E-001	-2.7038031E+002
3	0	1.410162977848158E+003	2.6597890E-001	-2.7037326E+002
3	0	1.410662977835527E+003	2.6562899E-001	-2.7039447E+002
3	0	1.411162977822896E+003	2.6526284E-001	-2.7037677E+002
3	0	1.411662977810265E+003	2.6489919E-001	-2.7036972E+002
3	0	1.412162977797634E+003	2.6459140E-001	-2.7036972E+002
3	0	1.412662977785003E+003	2.6428363E-001	-2.7038742E+002
3	0	1.413162977772372E+003	2.6397285E-001	-2.7037677E+002
3	0	1.413662977759741E+003	2.6366436E-001	-2.7037326E+002
3	0	1.414162977747110E+003	2.6335800E-001	-2.7037326E+002
3	0	1.414662977734479E+003	2.6303518E-001	-2.7036267E+002
3	0	1.415162977721848E+003	2.6269457E-001	-2.7039447E+002
3	0	1.415662977709217E+003	2.6236683E-001	-2.7036267E+002
3	0	1.416162977696586E+003	2.6208046E-001	-2.7038031E+002
3	0	1.416662977683955E+003	2.6180756E-001	-2.7035913E+002
3	0	1.417162977671323E+003	2.6152045E-001	-2.7038742E+002
3	0	1.417662977658692E+003	2.6123455E-001	-2.7038031E+002
3	0	1.418162977646061E+003	2.6095548E-001	-2.7036972E+002
3	0	1.418662977633430E+003	2.6066303E-001	-2.7036972E+002
3	0	1.419162977620799E+003	2.6035240E-001	-2.7036267E+002
3	0	1.419662977608168E+003	2.6004577E-001	-2.7038031E+002
3	0	1.420162977595537E+003	2.5978774E-001	-2.7038385E+002
3	0	1.420662977582906E+003	2.5953659E-001	-2.7034851E+002
3	0	1.421162977570275E+003	2.5928089E-001	-2.7037677E+002
3	0	1.421662977557644E+003	2.5902277E-001	-2.7036618E+002
3	0	1.422162977545013E+003	2.5876147E-001	-2.7036267E+002
3	0	1.422662977532382E+003	2.5848746E-001	-2.7037677E+002
3	0	1.423162977519751E+003	2.5820136E-001	-2.7033789E+002
3	0	1.423662977507120E+003	2.5791940E-001	-2.7039093E+002
3	0	1.424162977494489E+003	2.5768563E-001	-2.7035559E+002
3	0	1.424662977481858E+003	2.5745457E-001	-2.7038031E+002
3	0	1.425162977469226E+003	2.5721890E-001	-2.7034143E+002
3	0	1.425662977456595E+003	2.5698656E-001	-2.7036972E+002
3	0	1.426162977443964E+003	2.5675383E-001	-2.7038385E+002
3	0	1.426662977431333E+003	2.5650358E-001	-2.7037326E+002
3	0	1.427162977418702E+003	2.5623721E-001	-2.7035205E+002
3	0	1.427662977406071E+003	2.5597757E-001	-2.7040860E+002
3	0	1.428162977393440E+003	2.5575805E-001	-2.7038031E+002
3	0	1.428662977380809E+003	2.5555167E-001	-2.7038385E+002
3	0	1.429162977368178E+003	2.5533098E-001	-2.7037326E+002
3	0	1.429662977355547E+003	2.5510731E-001	-2.7036267E+002
3	0	1.430162977342916E+003	2.5489402E-001	-2.7036618E+002
3	0	1.430662977330285E+003	2.5466859E-001	-2.7038031E+002
3	0	1.431162977317654E+003	2.5441763E-001	-2.7036267E+002
3	0	1.431662977305023E+003	2.5417525E-001	-2.7038031E+002
3	0	1.432162977292392E+003	2.5397474E-001	-2.7035205E+002
3	0	1.432662977279761E+003	2.5378272E-001	-2.7035205E+002
3	0	1.433162977267129E+003	2.5358185E-001	-2.7038742E+002
3	0	1.433662977254498E+003	2.5338149E-001	-2.7039801E+002
3	0	1.434162977241867E+003	2.5318113E-001	-2.7037326E+002
3	0	1.434662977229236E+003	2.5297779E-001	-2.7037326E+002
3	0	1.435162977216605E+003	2.5274450E-001	-2.7039093E+002
3	0	1.435662977203974E+003	2.5251856E-001	-2.7037677E+002
3	0	1.436162977191343E+003	2.5234333E-001	-2.7034851E+002
3	0	1.436662977178712E+003	2.5216439E-001	-2.7038385E+002
3	0	1.437162977166081E+003	2.5198376E-001	-2.7038385E+002
3	0	1.437662977153450E+003	2.5180784E-001	-2.7040155E+002
3	0	1.438162977140819E+003	2.5162905E-001	-2.7036618E+002
3	0	1.438662977128188E+003	2.5143084E-001	-2.7035559E+002
3	0	1.439162977115557E+003	2.5122049E-001	-2.7040155E+002
3	0	1.439662977102926E+003	2.5101116E-001	-2.7037326E+002
3	0	1.440162977090295E+003	2.5084600E-001	-2.7040155E+002
3	0	1.440662977077664E+003	2.5068897E-001	-2.7038385E+002
3	0	1.441162977065032E+003	2.5052497E-001	-2.7036618E+002
3	0	1.441662977052401E+003	2.5036144E-001	-2.7040860E+002
3	0	1.442162977039770E+003	2.5019324E-001	-2.7035559E+002
3	0	1.442662977027139E+003	2.5001621E-001	-2.7038742E+002
3	0	1.443162977014508E+003	2.4981853E-001	-2.7038385E+002
3	0	1.443662977001877E+003	2.4962384E-001	-2.7038742E+002
3	0	1.444162976989246E+003	2.4947342E-001	-2.7039093E+002
3	0	1.444662976976615E+003	2.4932818E-001	-2.7038385E+002
3	0	1.445162976963984E+003	2.4917960E-001	-2.7037677E+002
3	0	1.445662976951353E+003	2.4902840E-001	-2.7038031E+002
3	0	1.446162976938722E+003	2.4887152E-001	-2.7036618E+002
3	0	1.446662976926091E+003	2.4870384E-001	-2.7036972E+002
3	0	1.447162976913460E+003	2.4851866E-001	-2.7037326E+002
3	0	1.447662976900829E+003	2.4833336E-001	-2.7037677E+002
3	0	1.448162976888198E+003	2.4819168E-001	-2.7037677E+002
3	0	1.448662976875567E+003	2.4805906E-001	-2.7040860E+002
3	0	1.449162976862935E+003	2.4791825E-001	-2.7035559E+002
3	0	1.449662976850304E+003	2.4777599E-001	-2.7036972E+002
3	0	1.450162976837673E+003	2.4763104E-001	-2.7036267E+002
3	0	1.450662976825042E+003	2.4747112E-001	-2.7038031E+002
3	0	1.451162976812411E+003	2.4728729E-001	-2.7040155E+002
3	0	1.451662976799780E+003	2.4711335E-001	-2.7035913E+002
3	0	1.452162976787149E+003	2.4697939E-001	-2.7037326E+002
3	0	1.452662976774518E+003	2.4684706E-001	-2.7039093E+002
3	0	1.453162976761887E+003	2.4671385E-001	-2.7037326E+002
3	0	1.453662976749256E+003	2.4658172E-001	-2.7039093E+002
3	0	1.454162976736625E+003	2.4644808E-001	-2.7035913E+002
3	0	1.454662976723994E+003	2.4630284E-001	-2.7038742E+002
3	0	1.455162976711363E+003	2.4613117E-001	-2.7038031E+002
3	0	1.455662976698732E+003	2.4596849E-001	-2.7036618E+002
3	0	1.456162976686101E+003	2.4584924E-001	-2.7035559E+002
3	0	1.456662976673470E+003	2.4573627E-001	-2.7039093E+002
3	0	1.457162976660838E+003	2.4561907E-001	-2.7038385E+002
3	0	1.457662976648207E+003	2.4549673E-001	-2.7038385E+002
3	0	1.458162976635576E+003	2.4537335E-001	-2.7035913E+002
3	0	1.458662976622945E+003	2.4524386E-001	-2.7038385E+002
3	0	1.459162976610314E+003	2.4508366E-001	-2.7039093E+002
3	0	1.459662976597683E+003	2.4492925E-001	-2.7038031E+002
3	0	1.460162976585052E+003	2.4482155E-001	-2.7037326E+002
3	0	1.460662976572421E+003	2.4471310E-001	-2.7036972E+002
3	0	1.461162976559790E+003	2.4460231E-001	-2.7034851E+002
3	0	1.461662976547159E+003	2.4448617E-001	-2.7037677E+002
3	0	1.462162976534528E+003	2.4437621E-001	-2.7035559E+002
3	0	1.462662976521897E+003	2.4424303E-001	-2.7039093E+002
3	0	1.463162976509266E+003	2.4408427E-001	-2.7036972E+002
3	0	1.463662976496635E+003	2.4393527E-001	-2.7037326E+002
3	0	1.464162976484004E+003	2.4382743E-001	-2.7037677E+002
3	0	1.464662976471373E+003	2.4371783E-001	-2.7037677E+002
3	0	1.465162976458741E+003	2.4360159E-001	-2.7037326E+002
3	0	1.465662976446110E+003	2.4349003E-001	-2.7037677E+002
3	0	1.466162976433479E+003	2.4337648E-001	-2.7036972E+002
3	0	1.466662976420848E+003	2.4325322E-001	-2.7037326E+002
3	0	1.467162976408217E+003	2.4310362E-001	-2.7037326E+002
3	0	1.467662976395586E+003	2.4296798E-001	-2.7036267E+002
3	0	1.468162976382955E+003	2.4286479E-001	-2.7037326E+002
3	0	1.468662976370324E+003	2.4276675E-001	-2.7037326E+002
3	0	1.469162976357693E+003	2.4266061E-001	-2.7037326E+002
3	0	1.469662976345062E+003	2.4255355E-001	-2.7036972E+002
3	0	1.470162976332431E+003	2.4243714E-001	-2.7035205E+002
3	0	1.470662976319800E+003	2.4231204E-001	-2.7039447E+002
3	0	1.471162976307169E+003	2.4217038E-001	-2.7039447E+002
3	0	1.471662976294538E+003	2.4203780E-001	-2.7039093E+002
3	0	1.472162976281907E+003	2.4194559E-001	-2.7035913E+002
3	0	1.472662976269276E+003	2.4185438E-001	-2.7038742E+002
3	0	1.473162976256644E+003	2.4175695E-001	-2.7038385E+002
3	0	1.473662976244013E+003	2.4165820E-001	-2.7037677E+002
3	0	1.474162976231382E+003	2.4156134E-001	-2.7036972E+002
3	0	1.474662976218751E+003	2.4144921E-001	-2.7037677E+002
3	0	1.475162976206120E+003	2.4131498E-001	-2.7038031E+002
3	0	1.475662976193489E+003	2.4118908E-001	-2.7040155E+002
3	0	1.476162976180858E+003	2.4110280E-001	-2.7036618E+002
3	0	1.476662976168227E+003	2.4102016E-001	-2.7036267E+002
3	0	1.477162976155596E+003	2.4093285E-001	-2.7038742E+002
3	0	1.477662976142965E+003	2.4084342E-001	-2.7035559E+002
3	0	1.478162976130334E+003	2.4076015E-001	-2.7037677E+002
3	0	1.478662976117703E+003	2.4065782E-001	-2.7036267E+002
3	0	1.479162976105072E+003	2.4053295E-001	-2.7039093E+002
3	0	1.479662976092441E+003	2.4041089E-001	-2.7038385E+002
3	0	1.480162976079810E+003	2.4033250E-001	-2.7035913E+002
3	0	1.480662976067179E+003	2.4025853E-001	-2.7037326E+002
3	0	1.481162976054547E+003	2.4018021E-001	-2.7041568E+002
3	0	1.481662976041916E+003	2.4009332E-001	-2.7040506E+002
3	0	1.482162976029285E+003	2.4001236E-001	-2.7034497E+002
3	0	1.482662976016654E+003	2.3991236E-001	-2.7038385E+002
3	0	1.483162976004023E+003	2.3979357E-001	-2.7037326E+002
3	0	1.483662975991392E+003	2.3967926E-001	-2.7037326E+002
3	0	1.484162975978761E+003	2.3960905E-001	-2.7034497E+002
3	0	1.484662975966130E+003	2.3953648E-001	-2.7037677E+002
3	0	1.485162975953499E+003	2.3946434E-001	-2.7036972E+002
3	0	1.485662975940868E+003	2.3938155E-001	-2.7037326E+002
3	0	1.486162975928237E+003	2.3930369E-001	-2.7038742E+002
3	0	1.486662975915606E+003	2.3920394E-001	-2.7040155E+002
3	0	1.487162975902975E+003	2.3908730E-001	-2.7038385E+002
3	0	1.487662975890344E+003	2.3897988E-001	-2.7037326E+002
3	0	1.488162975877713E+003	2.3891021E-001	-2.7038385E+002
3	0	1.488662975865082E+003	2.3884194E-001	-2.7038031E+002
3	0	1.489162975852450E+003	2.3876534E-001	-2.7036618E+002
3	0	1.489662975839819E+003	2.3868248E-001	-2.7038031E+002
3	0	1.490162975827188E+003	2.3860353E-001	-2.7038385E+002
3	0	1.490163375827178E+003	2.3852743E-001	-2.7039801E+002