EC-Lab ASCII FILE
Nb header lines : 48                          

Open Circuit Voltage

Run on channel : 1 (SN 81504)
User : 
CE vs. WE compliance from -10 V to 10 V
Electrode connection : standard
Potential control : Ewe
Ewe ctrl range : min = -2.50 V, max = 2.50 V
Safety Limits :
	Do not start on E overload
Acquisition started on : 05/10/2026 08:28:58.550
Loaded Setting File :  C:\PEM-WE_measurements\2026\372_IV_IV IrOx, 5 min Pt, 30 min C, etched cathode\new station\Loopeis new\1,46 V different time gaps closed cell\Loopeis 1,46V_180s_2_PEIS from 65kHz to 10kHz.mps
Saved on :
	File : L_27_Loopeis 1,46V_180s_2_PEIS from 65kHz to 10kHz_06_OCV_C01.mpr
	Directory : C:\PEM-WE_measurements\2026\372_IV_IV IrOx, 5 min Pt, 30 min C, etched cathode\new station\Loopeis new\1,46 V different time gaps closed cell\
	Host : 192.168.0.2
Device : SP-150e (SN .005491)
Address : 192.168.0.91
EC-LAB for windows v11.71 (software)
Internet server v28.00 (firmware)
Command interpretor v14.01 (firmware)
Electrode material : 
Initial state : 
Electrolyte : 
Comments : 
Current amplifier : SP-150eB-20A
Electrode surface area : 0.001 cm²
Characteristic mass : 0.001 g
Equivalent Weight : 0.000 g/eq.
Density : 0.000 g/cm3
Volume (V) : 0.001 cm³
Record Analogic IN 1
Text export
   Mode : Standard
   Time format : Elapsed
Cycle Definition : Charge/Discharge alternance
tR (h:m:s)          0:03:0.0000         
dER/dt (mV/h)       1.0                 
record              <Ewe>               
dER (mV)            10.00               
dtR (s)             0.5000              
E range min (V)     -2.500              
E range max (V)     2.500               

mode	error	time/s	<Ewe/V>	Analog IN 1/V	
3	0	4.958945907754241E+002	1.2921569E+000	6.1121522E-005
3	0	4.963945907627931E+002	1.2987825E+000	8.0207064E-005
3	0	4.968945907501620E+002	1.2872047E+000	-9.1562819E-005
3	0	4.973945907375310E+002	1.2645308E+000	-1.1064836E-004
3	0	4.978945907248999E+002	1.2258682E+000	-3.4306191E-005
3	0	4.983945907122688E+002	1.1574273E+000	-5.3391734E-005
3	0	4.988945906996378E+002	9.4123703E-001	8.0207064E-005
3	0	4.993945906870067E+002	5.2663195E-001	-1.6790499E-004
3	0	4.998945906743757E+002	3.9677504E-001	3.8648941E-006
3	0	5.003945906617446E+002	3.7120301E-001	-9.1562819E-005
3	0	5.008945906491135E+002	3.6712304E-001	2.2950437E-005
3	0	5.013945906364825E+002	3.6684126E-001	3.8648941E-006
3	0	5.018945906238514E+002	3.6708236E-001	8.0207064E-005
3	0	5.023945906112203E+002	3.6732545E-001	-1.5220648E-005
3	0	5.028945905985893E+002	3.6774576E-001	-1.1064836E-004
3	0	5.033945905859582E+002	3.6793995E-001	-3.4306191E-005
3	0	5.038945905733272E+002	3.6801293E-001	1.1837815E-004
3	0	5.043945905606961E+002	3.6806089E-001	-9.1562819E-005
3	0	5.048945905480650E+002	3.6814138E-001	-3.4306191E-005
3	0	5.053945905354340E+002	3.6814171E-001	3.8648941E-006
3	0	5.058945905228029E+002	3.6807281E-001	2.2950437E-005
3	0	5.063945905101718E+002	3.6806822E-001	-1.1064836E-004
3	0	5.068945904975408E+002	3.6839667E-001	3.8648941E-006
3	0	5.073945904849097E+002	3.6865371E-001	8.0207064E-005
3	0	5.078945904722787E+002	3.6881277E-001	3.8648941E-006
3	0	5.083945904596476E+002	3.6899379E-001	2.2950437E-005
3	0	5.088945904470165E+002	3.6926979E-001	-5.3391734E-005
3	0	5.093945904343855E+002	3.6948606E-001	-5.3391734E-005
3	0	5.098945904217544E+002	3.6964861E-001	8.0207064E-005
3	0	5.103945904091233E+002	3.6992267E-001	2.2950437E-005
3	0	5.108945903964923E+002	3.7054262E-001	-3.4306191E-005
3	0	5.113945903838612E+002	3.7112552E-001	2.2950437E-005
3	0	5.118945903712302E+002	3.7159663E-001	6.1121522E-005
3	0	5.123945903585991E+002	3.7198719E-001	2.2950437E-005
3	0	5.128945903459680E+002	3.7233543E-001	4.2035979E-005
3	0	5.133945903333370E+002	3.7257978E-001	9.9292607E-005
3	0	5.138945903207059E+002	3.7270069E-001	-1.4881945E-004
3	0	5.143945903080748E+002	3.7282583E-001	-5.3391734E-005
3	0	5.148945902954438E+002	3.7324625E-001	-1.5220648E-005
3	0	5.153945902828127E+002	3.7360159E-001	-7.2477276E-005
3	0	5.158945902701817E+002	3.7383175E-001	3.8648941E-006
3	0	5.163945902575506E+002	3.7397841E-001	-7.2477276E-005
3	0	5.168945902449195E+002	3.7409791E-001	1.9472031E-004
3	0	5.173945902322885E+002	3.7414029E-001	3.8648941E-006
3	0	5.178945902196574E+002	3.7408894E-001	-1.4881945E-004
3	0	5.183945902070263E+002	3.7404516E-001	8.0207064E-005
3	0	5.188945901943953E+002	3.7432253E-001	-1.2973390E-004
3	0	5.193945901817642E+002	3.7455130E-001	8.0207064E-005
3	0	5.198945901691332E+002	3.7467095E-001	-1.5220648E-005
3	0	5.203945901565021E+002	3.7473071E-001	-9.1562819E-005
3	0	5.208945901438710E+002	3.7479925E-001	4.2035979E-005
3	0	5.213945901312400E+002	3.7472811E-001	-1.2973390E-004
3	0	5.218945901186089E+002	3.7459874E-001	4.2035979E-005
3	0	5.223945901059778E+002	3.7449586E-001	-3.4306191E-005
3	0	5.228945900933468E+002	3.7470359E-001	-1.2973390E-004
3	0	5.233945900807157E+002	3.7484905E-001	4.2035979E-005
3	0	5.238945900680847E+002	3.7487909E-001	-1.4881945E-004
3	0	5.243945900554536E+002	3.7487572E-001	-3.4306191E-005
3	0	5.248945900428225E+002	3.7487406E-001	4.2035979E-005
3	0	5.253945900301915E+002	3.7477225E-001	-1.1064836E-004
3	0	5.258945900175604E+002	3.7455645E-001	-5.3391734E-005
3	0	5.263945900049293E+002	3.7439427E-001	-2.0607607E-004
3	0	5.268945899922983E+002	3.7452355E-001	-7.2477276E-005
3	0	5.273945899796672E+002	3.7460798E-001	-2.0607607E-004
3	0	5.278945899670362E+002	3.7461576E-001	-5.3391734E-005
3	0	5.283945899544051E+002	3.7458923E-001	-5.3391734E-005
3	0	5.288945899417740E+002	3.7462050E-001	-1.6790499E-004
3	0	5.293945899291430E+002	3.7465185E-001	-1.1064836E-004
3	0	5.298945899165119E+002	3.7462994E-001	-9.1562819E-005
3	0	5.303945899038808E+002	3.7471604E-001	-9.1562819E-005
3	0	5.308945898912498E+002	3.7512228E-001	-5.3391734E-005
3	0	5.313945898786187E+002	3.7552094E-001	-1.1064836E-004
3	0	5.318945898659877E+002	3.7585941E-001	2.2950437E-005
3	0	5.323945898533566E+002	3.7610236E-001	3.8648941E-006
3	0	5.328945898407255E+002	3.7628245E-001	-7.2477276E-005
3	0	5.333945898280945E+002	3.7637660E-001	-5.3391734E-005
3	0	5.338945898154634E+002	3.7631324E-001	-1.5220648E-005
3	0	5.343945898028323E+002	3.7626731E-001	-3.4306191E-005
3	0	5.348945897902013E+002	3.7647766E-001	-1.6790499E-004
3	0	5.353945897775702E+002	3.7662506E-001	-3.4306191E-005
3	0	5.358945897649392E+002	3.7667531E-001	-7.2477276E-005
3	0	5.363945897523081E+002	3.7666619E-001	2.2950437E-005
3	0	5.368945897396770E+002	3.7660336E-001	-1.6790499E-004
3	0	5.373945897270460E+002	3.7647241E-001	-1.5220648E-005
3	0	5.378945897144149E+002	3.7628406E-001	-1.4881945E-004
3	0	5.383945897017838E+002	3.7606740E-001	-7.2477276E-005
3	0	5.388945896891528E+002	3.7614307E-001	-3.4306191E-005
3	0	5.393945896765217E+002	3.7617171E-001	4.2035979E-005
3	0	5.398945896638907E+002	3.7611908E-001	-7.2477276E-005
3	0	5.403945896512596E+002	3.7599510E-001	-1.5220648E-005
3	0	5.408945896386285E+002	3.7587827E-001	-5.3391734E-005
3	0	5.413945896259975E+002	3.7568888E-001	-1.1064836E-004
3	0	5.418945896133664E+002	3.7540594E-001	-1.5220648E-005
3	0	5.423945896007353E+002	3.7512124E-001	6.1121522E-005
3	0	5.428945895881043E+002	3.7510994E-001	8.0207064E-005
3	0	5.433945895754732E+002	3.7508494E-001	-1.5220648E-005
3	0	5.438945895628422E+002	3.7498769E-001	-1.2973390E-004
3	0	5.443945895502111E+002	3.7481120E-001	-9.1562819E-005
3	0	5.448945895375800E+002	3.7464336E-001	2.2950437E-005
3	0	5.453945895249490E+002	3.7438399E-001	3.8648941E-006
3	0	5.458945895123179E+002	3.7401843E-001	-5.3391734E-005
3	0	5.463945894996868E+002	3.7373912E-001	-9.1562819E-005
3	0	5.468945894870558E+002	3.7373346E-001	-1.5220648E-005
3	0	5.473945894744247E+002	3.7369657E-001	-9.1562819E-005
3	0	5.478945894617937E+002	3.7358105E-001	3.8648941E-006
3	0	5.483945894491626E+002	3.7343597E-001	-3.4306191E-005
3	0	5.488945894365315E+002	3.7335104E-001	3.8648941E-006
3	0	5.493945894239005E+002	3.7321341E-001	3.8648941E-006
3	0	5.498945894112694E+002	3.7304872E-001	-3.4306191E-005
3	0	5.503945893986383E+002	3.7297389E-001	-1.1064836E-004
3	0	5.508945893860073E+002	3.7323233E-001	-7.2477276E-005
3	0	5.513945893733762E+002	3.7349918E-001	-7.2477276E-005
3	0	5.518945893607452E+002	3.7370536E-001	-5.3391734E-005
3	0	5.523945893481141E+002	3.7381369E-001	-1.2973390E-004
3	0	5.528945893354830E+002	3.7389672E-001	-1.5220648E-005
3	0	5.533945893228520E+002	3.7389839E-001	4.2035979E-005
3	0	5.538945893102209E+002	3.7379229E-001	1.1837815E-004
3	0	5.543945892975898E+002	3.7364125E-001	6.1121522E-005
3	0	5.548945892849588E+002	3.7373343E-001	2.2950437E-005
3	0	5.553945892723277E+002	3.7378490E-001	-5.3391734E-005
3	0	5.558945892596967E+002	3.7375844E-001	-9.1562819E-005
3	0	5.563945892470656E+002	3.7366444E-001	-1.5220648E-005
3	0	5.568945892344345E+002	3.7353328E-001	-1.5220648E-005
3	0	5.573945892218035E+002	3.7336129E-001	-1.5220648E-005
3	0	5.578945892091724E+002	3.7306023E-001	-1.1064836E-004
3	0	5.583945891965413E+002	3.7277818E-001	-1.5220648E-005
3	0	5.588945891839103E+002	3.7275669E-001	-3.4306191E-005
3	0	5.593945891712792E+002	3.7271059E-001	-1.5220648E-005
3	0	5.598945891586482E+002	3.7258914E-001	2.2950437E-005
3	0	5.603945891460171E+002	3.7238759E-001	3.8648941E-006
3	0	5.608945891333860E+002	3.7220067E-001	3.8648941E-006
3	0	5.613945891207550E+002	3.7197754E-001	-3.4306191E-005
3	0	5.618945891081239E+002	3.7162071E-001	-7.2477276E-005
3	0	5.623945890954928E+002	3.7128410E-001	-7.2477276E-005
3	0	5.628945890828618E+002	3.7121782E-001	-2.2516162E-004
3	0	5.633945890702307E+002	3.7113798E-001	-5.3391734E-005
3	0	5.638945890575997E+002	3.7099439E-001	-1.5220648E-005
3	0	5.643945890449686E+002	3.7078771E-001	-3.4306191E-005
3	0	5.648945890323375E+002	3.7055814E-001	-3.4306191E-005
3	0	5.653945890197065E+002	3.7029651E-001	-3.4306191E-005
3	0	5.658945890070754E+002	3.6993301E-001	-5.3391734E-005
3	0	5.663945889944443E+002	3.6957690E-001	4.2035979E-005
3	0	5.668945889818133E+002	3.6948189E-001	-7.2477276E-005
3	0	5.673945889691822E+002	3.6939576E-001	-7.2477276E-005
3	0	5.678945889565512E+002	3.6924353E-001	-7.2477276E-005
3	0	5.683945889439201E+002	3.6905155E-001	-1.5220648E-005
3	0	5.688945889312890E+002	3.6888343E-001	-5.3391734E-005
3	0	5.693945889186580E+002	3.6871764E-001	-2.2516162E-004
3	0	5.698945889060269E+002	3.6849797E-001	-5.3391734E-005
3	0	5.703945888933958E+002	3.6834052E-001	-7.2477276E-005
3	0	5.708945888807648E+002	3.6848602E-001	3.8648941E-006
3	0	5.713945888681337E+002	3.6869171E-001	-3.4306191E-005
3	0	5.718945888555027E+002	3.6887163E-001	-7.2477276E-005
3	0	5.723945888428716E+002	3.6900714E-001	-1.5220648E-005
3	0	5.728945888302405E+002	3.6910221E-001	-5.3391734E-005
3	0	5.733945888176095E+002	3.6911157E-001	-1.1064836E-004
3	0	5.738945888049784E+002	3.6897728E-001	8.0207064E-005
3	0	5.743945887923473E+002	3.6880177E-001	-7.2477276E-005
3	0	5.748945887797163E+002	3.6885557E-001	3.8648941E-006
3	0	5.753945887670852E+002	3.6889315E-001	-9.1562819E-005
3	0	5.758945887544542E+002	3.6885133E-001	-1.4881945E-004
3	0	5.763945887418231E+002	3.6874431E-001	2.2950437E-005
3	0	5.768945887291920E+002	3.6858153E-001	-1.1064836E-004
3	0	5.773945887165610E+002	3.6836478E-001	-3.4306191E-005
3	0	5.778945887039299E+002	3.6805141E-001	3.8648941E-006
3	0	5.783945886912989E+002	3.6771649E-001	-1.5220648E-005
3	0	5.788945886786678E+002	3.6763641E-001	-1.4881945E-004
3	0	5.793945886660367E+002	3.6756089E-001	-3.4306191E-005
3	0	5.798945886534057E+002	3.6742711E-001	-1.1064836E-004
3	0	5.803945886407746E+002	3.6724454E-001	-1.2973390E-004
3	0	5.808945886281435E+002	3.6703917E-001	-1.1064836E-004
3	0	5.813945886155125E+002	3.6676976E-001	-5.3391734E-005
3	0	5.818945886028814E+002	3.6638221E-001	2.2950437E-005
3	0	5.823945885902504E+002	3.6601049E-001	1.3746369E-004
3	0	5.828945885776193E+002	3.6588827E-001	-1.5220648E-005
3	0	5.833945885649882E+002	3.6577365E-001	3.8648941E-006
3	0	5.838945885523572E+002	3.6561239E-001	-1.4881945E-004
3	0	5.843945885397261E+002	3.6541510E-001	6.1121522E-005
3	0	5.848945885270950E+002	3.6521161E-001	-2.4424717E-004
3	0	5.853945885144640E+002	3.6495319E-001	-1.6790499E-004
3	0	5.858945885018329E+002	3.6456677E-001	-5.3391734E-005
3	0	5.863945884892019E+002	3.6420026E-001	-5.3391734E-005
3	0	5.868945884765708E+002	3.6409625E-001	-3.4306191E-005
3	0	5.873945884639397E+002	3.6399847E-001	2.2950437E-005
3	0	5.878945884513087E+002	3.6384520E-001	-5.3391734E-005
3	0	5.883945884386776E+002	3.6364117E-001	4.2035979E-005
3	0	5.888945884260465E+002	3.6344165E-001	1.3746369E-004
3	0	5.893945884134155E+002	3.6324927E-001	2.2950437E-005
3	0	5.898945884007844E+002	3.6303473E-001	-5.3391734E-005
3	0	5.903945883881534E+002	3.6286917E-001	-9.1562819E-005
3	0	5.908945883755223E+002	3.6299053E-001	4.2035979E-005
3	0	5.913945883628912E+002	3.6318275E-001	-2.2516162E-004
3	0	5.918945883502602E+002	3.6335123E-001	-1.1064836E-004
3	0	5.923945883376291E+002	3.6348766E-001	3.8648941E-006
3	0	5.928945883249980E+002	3.6360198E-001	-1.5220648E-005
3	0	5.933945883123670E+002	3.6364153E-001	6.1121522E-005
3	0	5.938945882997359E+002	3.6355355E-001	-1.4881945E-004
3	0	5.943945882871049E+002	3.6339489E-001	3.8648941E-006
3	0	5.948945882744738E+002	3.6344114E-001	-5.3391734E-005
3	0	5.953945882618427E+002	3.6348495E-001	-1.5220648E-005
3	0	5.958945882492117E+002	3.6345643E-001	-1.8699054E-004
3	0	5.963945882365806E+002	3.6337531E-001	2.2950437E-005
3	0	5.968945882239495E+002	3.6326835E-001	8.0207064E-005
3	0	5.973945882113185E+002	3.6308393E-001	3.8648941E-006
3	0	5.978945881986874E+002	3.6279586E-001	-7.2477276E-005
3	0	5.983945881860564E+002	3.6245096E-001	-3.4306191E-005
3	0	5.988945881734253E+002	3.6235595E-001	-1.2973390E-004
3	0	5.993945881607942E+002	3.6228409E-001	-7.2477276E-005
3	0	5.998945881481632E+002	3.6214095E-001	-3.4306191E-005
3	0	6.003945881355321E+002	3.6193240E-001	-7.2477276E-005
3	0	6.008945881229010E+002	3.6170578E-001	-1.6790499E-004
3	0	6.013945881102700E+002	3.6139828E-001	4.2035979E-005
3	0	6.018945880976389E+002	3.6103737E-001	-7.2477276E-005
3	0	6.023945880850079E+002	3.6065710E-001	-5.3391734E-005
3	0	6.028945880723768E+002	3.6050650E-001	-7.2477276E-005
3	0	6.033945880597457E+002	3.6039445E-001	-9.1562819E-005
3	0	6.038945880471147E+002	3.6023316E-001	3.8648941E-006
3	0	6.043945880344836E+002	3.6002293E-001	-1.5220648E-005
3	0	6.048945880218525E+002	3.5979813E-001	-3.4306191E-005
3	0	6.053945880092215E+002	3.5950795E-001	-1.5220648E-005
3	0	6.058945879965904E+002	3.5915232E-001	-5.3391734E-005
3	0	6.063945879839594E+002	3.5877800E-001	-9.1562819E-005
3	0	6.068945879713283E+002	3.5863054E-001	-1.1064836E-004
3	0	6.073945879586972E+002	3.5851112E-001	-3.4306191E-005
3	0	6.078945879460662E+002	3.5835835E-001	-3.4306191E-005
3	0	6.083945879334351E+002	3.5816330E-001	8.0207064E-005
3	0	6.088945879208040E+002	3.5797018E-001	-5.3391734E-005
3	0	6.093945879081730E+002	3.5777429E-001	-9.1562819E-005
3	0	6.098945878955419E+002	3.5751525E-001	-1.5220648E-005
3	0	6.103945878829109E+002	3.5730320E-001	-5.3391734E-005
3	0	6.108945878702798E+002	3.5737884E-001	-1.5220648E-005
3	0	6.113945878576487E+002	3.5753220E-001	-1.5220648E-005
3	0	6.118945878450177E+002	3.5768849E-001	-5.3391734E-005
3	0	6.123945878323866E+002	3.5782173E-001	3.8648941E-006
3	0	6.128945878197555E+002	3.5791773E-001	-5.3391734E-005
3	0	6.133945878071245E+002	3.5793823E-001	3.8648941E-006
3	0	6.138945877944934E+002	3.5784394E-001	-1.5220648E-005
3	0	6.143945877818624E+002	3.5766995E-001	3.8648941E-006
3	0	6.148945877692313E+002	3.5767034E-001	-5.3391734E-005
3	0	6.153945877566002E+002	3.5768747E-001	3.8648941E-006
3	0	6.158945877439692E+002	3.5764989E-001	3.8648941E-006
3	0	6.163945877313381E+002	3.5753021E-001	4.2035979E-005
3	0	6.168945877187070E+002	3.5739321E-001	-9.1562819E-005
3	0	6.173945877060760E+002	3.5718358E-001	2.2950437E-005
3	0	6.178945876934449E+002	3.5684720E-001	-1.2973390E-004
3	0	6.183945876808139E+002	3.5652864E-001	-1.6790499E-004
3	0	6.188945876681828E+002	3.5641676E-001	-1.2973390E-004
3	0	6.193945876555517E+002	3.5630956E-001	4.2035979E-005
3	0	6.198945876429207E+002	3.5617411E-001	-3.4306191E-005
3	0	6.203945876302896E+002	3.5598072E-001	-1.5220648E-005
3	0	6.208945876176585E+002	3.5576868E-001	-7.2477276E-005
3	0	6.213945876050275E+002	3.5552666E-001	-1.5220648E-005
3	0	6.218945875923964E+002	3.5517135E-001	-2.4424717E-004
3	0	6.223945875797654E+002	3.5482228E-001	4.2035979E-005
3	0	6.228945875671343E+002	3.5469130E-001	3.8648941E-006
3	0	6.233945875545032E+002	3.5458115E-001	2.2950437E-005
3	0	6.238945875418722E+002	3.5443082E-001	-7.2477276E-005
3	0	6.243945875292411E+002	3.5422015E-001	-7.2477276E-005
3	0	6.248945875166100E+002	3.5397756E-001	-1.2973390E-004
3	0	6.253945875039790E+002	3.5371876E-001	-5.3391734E-005
3	0	6.258945874913479E+002	3.5338315E-001	3.8648941E-006
3	0	6.263945874787169E+002	3.5303470E-001	-9.1562819E-005
3	0	6.268945874660858E+002	3.5290107E-001	-2.2516162E-004
3	0	6.273945874534547E+002	3.5279611E-001	-9.1562819E-005
3	0	6.278945874408237E+002	3.5265160E-001	4.2035979E-005
3	0	6.283945874281926E+002	3.5247684E-001	-3.4306191E-005
3	0	6.288945874155615E+002	3.5226631E-001	-9.1562819E-005
3	0	6.293945874029305E+002	3.5204610E-001	-1.1064836E-004
3	0	6.298945873902994E+002	3.5179403E-001	-7.2477276E-005
3	0	6.303945873776684E+002	3.5159692E-001	8.0207064E-005
3	0	6.308945873650373E+002	3.5166153E-001	-1.1064836E-004
3	0	6.313945873524062E+002	3.5178271E-001	-9.1562819E-005
3	0	6.318945873397752E+002	3.5193080E-001	3.8648941E-006
3	0	6.323945873271441E+002	3.5203975E-001	4.2035979E-005
3	0	6.328945873145130E+002	3.5213685E-001	-5.3391734E-005
3	0	6.333945873018820E+002	3.5218105E-001	-9.1562819E-005
3	0	6.338945872892509E+002	3.5212472E-001	-1.5220648E-005
3	0	6.343945872766199E+002	3.5200226E-001	-5.3391734E-005
3	0	6.348945872639888E+002	3.5204655E-001	8.0207064E-005
3	0	6.353945872513577E+002	3.5207692E-001	2.2950437E-005
3	0	6.358945872387267E+002	3.5207173E-001	-9.1562819E-005
3	0	6.363945872260956E+002	3.5199386E-001	1.1837815E-004
3	0	6.368945872134645E+002	3.5187572E-001	2.2950437E-005
3	0	6.373945872008335E+002	3.5165438E-001	-1.6790499E-004
3	0	6.378945871882024E+002	3.5135511E-001	1.9472031E-004
3	0	6.383945871755714E+002	3.5102129E-001	9.9292607E-005
3	0	6.388945871629403E+002	3.5088348E-001	8.0207064E-005
3	0	6.393945871503092E+002	3.5077140E-001	-7.2477276E-005
3	0	6.398945871376782E+002	3.5064313E-001	-1.5220648E-005
3	0	6.403945871250471E+002	3.5043469E-001	-7.2477276E-005
3	0	6.408945871124160E+002	3.5019806E-001	-9.1562819E-005
3	0	6.413945870997850E+002	3.4993348E-001	-7.2477276E-005
3	0	6.418945870871539E+002	3.4958994E-001	-1.5220648E-005
3	0	6.423945870745229E+002	3.4924912E-001	2.2950437E-005
3	0	6.428945870618918E+002	3.4909698E-001	-1.8699054E-004
3	0	6.433945870492607E+002	3.4896711E-001	-7.2477276E-005
3	0	6.438945870366297E+002	3.4883031E-001	-1.4881945E-004
3	0	6.443945870239986E+002	3.4862092E-001	-1.2973390E-004
3	0	6.448945870113675E+002	3.4839255E-001	8.0207064E-005
3	0	6.453945869987365E+002	3.4813330E-001	-3.4306191E-005
3	0	6.458945869861054E+002	3.4778824E-001	4.2035979E-005
3	0	6.463945869734744E+002	3.4743965E-001	2.2950437E-005
3	0	6.468945869608433E+002	3.4726134E-001	-5.3391734E-005
3	0	6.473945869482122E+002	3.4711677E-001	-3.4306191E-005
3	0	6.478945869355812E+002	3.4696487E-001	-1.5220648E-005
3	0	6.483945869229501E+002	3.4674430E-001	-5.3391734E-005
3	0	6.488945869103190E+002	3.4652388E-001	-1.1064836E-004
3	0	6.493945868976880E+002	3.4632379E-001	-3.4306191E-005
3	0	6.498945868850569E+002	3.4608147E-001	-3.4306191E-005
3	0	6.503945868724259E+002	3.4587890E-001	-7.2477276E-005
3	0	6.508945868597948E+002	3.4591907E-001	-1.4881945E-004
3	0	6.513945868471637E+002	3.4604225E-001	-9.1562819E-005
3	0	6.518945868345327E+002	3.4619248E-001	-1.1064836E-004
3	0	6.523945868219016E+002	3.4631822E-001	-3.4306191E-005
3	0	6.528945868092706E+002	3.4640604E-001	-1.5220648E-005
3	0	6.533945867966395E+002	3.4643796E-001	3.8648941E-006
3	0	6.538945867840084E+002	3.4636095E-001	6.1121522E-005
3	0	6.543945867713774E+002	3.4624207E-001	-1.4881945E-004
3	0	6.548945867587463E+002	3.4625864E-001	-1.1064836E-004
3	0	6.553945867461152E+002	3.4626660E-001	-7.2477276E-005
3	0	6.558945867334842E+002	3.4624574E-001	-1.6790499E-004
3	0	6.563945867208531E+002	3.4616145E-001	-1.5220648E-005
3	0	6.568945867082221E+002	3.4602901E-001	-5.3391734E-005
3	0	6.573945866955910E+002	3.4585530E-001	3.8648941E-006
3	0	6.578945866829599E+002	3.4557945E-001	4.2035979E-005
3	0	6.583945866703289E+002	3.4527135E-001	-7.2477276E-005
3	0	6.588945866576978E+002	3.4513611E-001	-9.1562819E-005
3	0	6.593945866450667E+002	3.4502262E-001	-7.2477276E-005
3	0	6.598945866324357E+002	3.4489354E-001	2.2950437E-005
3	0	6.603945866198046E+002	3.4470606E-001	3.8648941E-006
3	0	6.608945866071736E+002	3.4450060E-001	4.2035979E-005
3	0	6.613945865945425E+002	3.4425825E-001	-1.1064836E-004
3	0	6.618945865819114E+002	3.4392664E-001	-1.1064836E-004
3	0	6.623945865692804E+002	3.4358475E-001	-3.4306191E-005
3	0	6.628945865566493E+002	3.4342614E-001	6.1121522E-005
3	0	6.633945865440182E+002	3.4329808E-001	-9.1562819E-005
3	0	6.638945865313872E+002	3.4316096E-001	-1.4881945E-004
3	0	6.643945865187561E+002	3.4297010E-001	3.8648941E-006
3	0	6.648945865061251E+002	3.4276420E-001	-1.1064836E-004
3	0	6.653945864934940E+002	3.4251615E-001	-1.5220648E-005
3	0	6.658945864808629E+002	3.4219104E-001	3.8648941E-006
3	0	6.663945864682319E+002	3.4182921E-001	2.2950437E-005
3	0	6.668945864556008E+002	3.4165418E-001	-5.3391734E-005
3	0	6.673945864429697E+002	3.4151933E-001	3.8648941E-006
3	0	6.678945864303387E+002	3.4137529E-001	-5.3391734E-005
3	0	6.683945864177076E+002	3.4119955E-001	-3.4306191E-005
3	0	6.688945864050766E+002	3.4100589E-001	9.9292607E-005
3	0	6.693945863924455E+002	3.4078759E-001	-1.1064836E-004
3	0	6.698945863798144E+002	3.4053504E-001	-7.2477276E-005
3	0	6.703945863671834E+002	3.4032276E-001	8.0207064E-005
3	0	6.708945863545523E+002	3.4032121E-001	-5.3391734E-005
3	0	6.713945863419212E+002	3.4040725E-001	-1.5220648E-005
3	0	6.718945863292902E+002	3.4052724E-001	-3.4306191E-005
3	0	6.723945863166591E+002	3.4064022E-001	-1.5220648E-005
3	0	6.728945863040281E+002	3.4074125E-001	-3.4306191E-005
3	0	6.733945862913970E+002	3.4077913E-001	-1.1064836E-004
3	0	6.738945862787659E+002	3.4073374E-001	3.8648941E-006
3	0	6.743945862661349E+002	3.4062791E-001	-1.2973390E-004
3	0	6.748945862535038E+002	3.4064499E-001	-3.4306191E-005
3	0	6.753945862408727E+002	3.4067798E-001	-1.4881945E-004
3	0	6.753949862408626E+002	3.4064510E-001	-1.5220648E-005