EC-Lab ASCII FILE
Nb header lines : 55                          

Open Circuit Voltage

Run on channel : 1 (SN 81504)
User : 
CE vs. WE compliance from -10 V to 10 V
Electrode connection : standard
Potential control : Ewe
Ewe ctrl range : min = -2.50 V, max = 2.50 V
Safety Limits :
	Do not start on E overload
Acquisition started on : 05/07/2026 17:34:11.611
Loaded Setting File :  C:\PEM-WE_measurements\2026\372_IV_IV IrOx, 5 min Pt, 30 min C, etched cathode\new station\Loopeis new\1,46 V different time gaps open cell\Loopeis 1,46V_60s_4_PEIS from 650Hz to 100Hz.mps
Saved on :
	File : L_14_Loopeis 1,46V_60s_4_PEIS from 650Hz to 100Hz_10_OCV_C01.mpr
	Directory : C:\PEM-WE_measurements\2026\372_IV_IV IrOx, 5 min Pt, 30 min C, etched cathode\new station\Loopeis new\1,46 V different time gaps open cell\
	Host : 192.168.0.2
Device : SP-150e (SN .005491)
Address : 192.168.0.91
EC-LAB for windows v11.71 (software)
Internet server v28.00 (firmware)
Command interpretor v14.01 (firmware)
Electrode material : 
Initial state : 
Electrolyte : 
Comments : 
Current amplifier : SP-150eB-20A
Electrode surface area : 0.001 cm²
Characteristic mass : 0.001 g
Equivalent Weight : 0.000 g/eq.
Density : 0.000 g/cm3
Volume (V) : 0.001 cm³
Record Analogic IN 1
Text export
   Mode : Standard
   Time format : Elapsed
Cycle Definition : Charge/Discharge alternance
External device configuration :
   device type : Temperature Probe
   device name : Other
   Analog IN 1 : 
      unit : T/Â°C
      max : 100.000 at 2.000 V
      min : 0.000 at 1.460 V
tR (h:m:s)          0:01:0.0000         
dER/dt (mV/h)       1.0                 
record              <Ewe>               
dER (mV)            10.00               
dtR (s)             0.5000              
E range min (V)     -2.500              
E range max (V)     2.500               

mode	error	time/s	<Ewe/V>	Analog IN 1/V	
3	0	4.654433947859070E+002	1.2760043E+000	-2.7039447E+002
3	0	4.659433947732759E+002	1.2695385E+000	-2.7038742E+002
3	0	4.664433947606449E+002	1.2326150E+000	-2.7038385E+002
3	0	4.669433947480138E+002	1.1587958E+000	-2.7039093E+002
3	0	4.674433947353828E+002	9.4316369E-001	-2.7036618E+002
3	0	4.679433947227517E+002	4.9411932E-001	-2.7037677E+002
3	0	4.684433947101206E+002	3.5401547E-001	-2.7037326E+002
3	0	4.689433946974896E+002	3.3441776E-001	-2.7038742E+002
3	0	4.694433946848585E+002	3.2560217E-001	-2.7036618E+002
3	0	4.699433946722274E+002	3.1850123E-001	-2.7037326E+002
3	0	4.704433946595964E+002	3.1307250E-001	-2.7035913E+002
3	0	4.709433946469653E+002	3.0891770E-001	-2.7039093E+002
3	0	4.714433946343343E+002	3.0565766E-001	-2.7040155E+002
3	0	4.719433946217032E+002	3.0302152E-001	-2.7036972E+002
3	0	4.724433946090721E+002	3.0084845E-001	-2.7037326E+002
3	0	4.729433945964411E+002	2.9904974E-001	-2.7040155E+002
3	0	4.734433945838100E+002	2.9752004E-001	-2.7038385E+002
3	0	4.739433945711789E+002	2.9617417E-001	-2.7039093E+002
3	0	4.744433945585479E+002	2.9497820E-001	-2.7038385E+002
3	0	4.749433945459168E+002	2.9389888E-001	-2.7036972E+002
3	0	4.754433945332858E+002	2.9290378E-001	-2.7037677E+002
3	0	4.759433945206547E+002	2.9196191E-001	-2.7038031E+002
3	0	4.764433945080236E+002	2.9107025E-001	-2.7037326E+002
3	0	4.769433944953926E+002	2.9025662E-001	-2.7035559E+002
3	0	4.774433944827615E+002	2.8949973E-001	-2.7038742E+002
3	0	4.779433944701304E+002	2.8877622E-001	-2.7040506E+002
3	0	4.784433944574994E+002	2.8808090E-001	-2.7039093E+002
3	0	4.789433944448683E+002	2.8740045E-001	-2.7039447E+002
3	0	4.794433944322373E+002	2.8673497E-001	-2.7037326E+002
3	0	4.799433944196062E+002	2.8605786E-001	-2.7037326E+002
3	0	4.804433944069751E+002	2.8538772E-001	-2.7037677E+002
3	0	4.809433943943441E+002	2.8476852E-001	-2.7038031E+002
3	0	4.814433943817130E+002	2.8417328E-001	-2.7038031E+002
3	0	4.819433943690819E+002	2.8357953E-001	-2.7037677E+002
3	0	4.824433943564509E+002	2.8299478E-001	-2.7038742E+002
3	0	4.829433943438198E+002	2.8242669E-001	-2.7039093E+002
3	0	4.834433943311888E+002	2.8185716E-001	-2.7036618E+002
3	0	4.839433943185577E+002	2.8127187E-001	-2.7037326E+002
3	0	4.844433943059266E+002	2.8067923E-001	-2.7039447E+002
3	0	4.849433942932956E+002	2.8012672E-001	-2.7036618E+002
3	0	4.854433942806645E+002	2.7959099E-001	-2.7037677E+002
3	0	4.859433942680334E+002	2.7906647E-001	-2.7037677E+002
3	0	4.864433942554024E+002	2.7854022E-001	-2.7038385E+002
3	0	4.869433942427713E+002	2.7802050E-001	-2.7038031E+002
3	0	4.874433942301403E+002	2.7749249E-001	-2.7038742E+002
3	0	4.879433942175092E+002	2.7695379E-001	-2.7037677E+002
3	0	4.884433942048781E+002	2.7640641E-001	-2.7040506E+002
3	0	4.889433941922471E+002	2.7589789E-001	-2.7036618E+002
3	0	4.894433941796160E+002	2.7539963E-001	-2.7037677E+002
3	0	4.899433941669849E+002	2.7491459E-001	-2.7038385E+002
3	0	4.904433941543539E+002	2.7443600E-001	-2.7037677E+002
3	0	4.909433941417228E+002	2.7395639E-001	-2.7037326E+002
3	0	4.914433941290918E+002	2.7346906E-001	-2.7036267E+002
3	0	4.919433941164607E+002	2.7296051E-001	-2.7036972E+002
3	0	4.924433941038296E+002	2.7245247E-001	-2.7037677E+002
3	0	4.929433940911986E+002	2.7198905E-001	-2.7038742E+002
3	0	4.934433940785675E+002	2.7152768E-001	-2.7036267E+002
3	0	4.939433940659364E+002	2.7106002E-001	-2.7038742E+002
3	0	4.944433940533054E+002	2.7060193E-001	-2.7038385E+002
3	0	4.949433940406743E+002	2.7014574E-001	-2.7038031E+002
3	0	4.954433940280433E+002	2.6969358E-001	-2.7035913E+002
3	0	4.959433940154122E+002	2.6922840E-001	-2.7039801E+002
3	0	4.964433940027811E+002	2.6875204E-001	-2.7037677E+002
3	0	4.969433939901501E+002	2.6832035E-001	-2.7037677E+002
3	0	4.974433939775190E+002	2.6789612E-001	-2.7037677E+002
3	0	4.979433939648879E+002	2.6747274E-001	-2.7037677E+002
3	0	4.984433939522569E+002	2.6704997E-001	-2.7038385E+002
3	0	4.989433939396258E+002	2.6663083E-001	-2.7040506E+002
3	0	4.994433939269948E+002	2.6620340E-001	-2.7039447E+002
3	0	4.999433939143637E+002	2.6576325E-001	-2.7039093E+002
3	0	5.004433939017326E+002	2.6531902E-001	-2.7038385E+002
3	0	5.009433938891016E+002	2.6491520E-001	-2.7038385E+002
3	0	5.014433938764705E+002	2.6452655E-001	-2.7036267E+002
3	0	5.019433938638394E+002	2.6413810E-001	-2.7038742E+002
3	0	5.024433938512084E+002	2.6375040E-001	-2.7038742E+002
3	0	5.029433938385773E+002	2.6336586E-001	-2.7035913E+002
3	0	5.034433938259463E+002	2.6296383E-001	-2.7038385E+002
3	0	5.039433938133152E+002	2.6255551E-001	-2.7038031E+002
3	0	5.044433938006841E+002	2.6214755E-001	-2.7036618E+002
3	0	5.049433937880531E+002	2.6177967E-001	-2.7038385E+002
3	0	5.054433937754220E+002	2.6141724E-001	-2.7037677E+002
3	0	5.059433937627909E+002	2.6104784E-001	-2.7036618E+002
3	0	5.064433937501599E+002	2.6069057E-001	-2.7037677E+002
3	0	5.069433937375288E+002	2.6033777E-001	-2.7039093E+002
3	0	5.074433937248978E+002	2.5998163E-001	-2.7040155E+002
3	0	5.079433937122667E+002	2.5960714E-001	-2.7038385E+002
3	0	5.084433936996356E+002	2.5923419E-001	-2.7040860E+002
3	0	5.089433936870046E+002	2.5890055E-001	-2.7037677E+002
3	0	5.094433936743735E+002	2.5856572E-001	-2.7039447E+002
3	0	5.099433936617424E+002	2.5823092E-001	-2.7036972E+002
3	0	5.104433936491114E+002	2.5789908E-001	-2.7036972E+002
3	0	5.109433936364803E+002	2.5756633E-001	-2.7036618E+002
3	0	5.114433936238493E+002	2.5723505E-001	-2.7036972E+002
3	0	5.119433936112182E+002	2.5688228E-001	-2.7038031E+002
3	0	5.124433935985871E+002	2.5652611E-001	-2.7038031E+002
3	0	5.129433935859561E+002	2.5621590E-001	-2.7036267E+002
3	0	5.134433935733250E+002	2.5591221E-001	-2.7035913E+002
3	0	5.139433935606939E+002	2.5560471E-001	-2.7039447E+002
3	0	5.144433935480629E+002	2.5529516E-001	-2.7035913E+002
3	0	5.149433935354318E+002	2.5499681E-001	-2.7035559E+002
3	0	5.154433935228008E+002	2.5469369E-001	-2.7034851E+002
3	0	5.159433935101697E+002	2.5437763E-001	-2.7038031E+002
3	0	5.164433934975386E+002	2.5405312E-001	-2.7036972E+002
3	0	5.169433934849076E+002	2.5377232E-001	-2.7036618E+002
3	0	5.174433934722765E+002	2.5349489E-001	-2.7038385E+002
3	0	5.179433934596454E+002	2.5321028E-001	-2.7040506E+002
3	0	5.184433934470144E+002	2.5294194E-001	-2.7036618E+002
3	0	5.189433934343833E+002	2.5266626E-001	-2.7038385E+002
3	0	5.194433934217523E+002	2.5239104E-001	-2.7037677E+002
3	0	5.199433934091212E+002	2.5209492E-001	-2.7037326E+002
3	0	5.204433933964901E+002	2.5179312E-001	-2.7038742E+002
3	0	5.209433933838591E+002	2.5153232E-001	-2.7037326E+002
3	0	5.214433933712280E+002	2.5128138E-001	-2.7036267E+002
3	0	5.219433933585970E+002	2.5102580E-001	-2.7037326E+002
3	0	5.224433933459659E+002	2.5077248E-001	-2.7039093E+002
3	0	5.229433933333348E+002	2.5052634E-001	-2.7036618E+002
3	0	5.234433933207038E+002	2.5027272E-001	-2.7036267E+002
3	0	5.239433933080727E+002	2.4999478E-001	-2.7039447E+002
3	0	5.244433932954416E+002	2.4972321E-001	-2.7038031E+002
3	0	5.249433932828106E+002	2.4948715E-001	-2.7040506E+002
3	0	5.249437932828005E+002	2.4941477E-001	-2.7038031E+002