EC-Lab ASCII FILE
Nb header lines : 55                          

Open Circuit Voltage

Run on channel : 1 (SN 81504)
User : 
CE vs. WE compliance from -10 V to 10 V
Electrode connection : standard
Potential control : Ewe
Ewe ctrl range : min = -2.50 V, max = 2.50 V
Safety Limits :
	Do not start on E overload
Acquisition started on : 05/10/2026 02:27:32.112
Loaded Setting File :  C:\PEM-WE_measurements\2026\372_IV_IV IrOx, 5 min Pt, 30 min C, etched cathode\new station\Loopeis new\1,46 V different time gaps closed cell\Loopeis 1,46V_60s_3_PEIS from 6500Hz to 1000Hz.mps
Saved on :
	File : L_13_Loopeis 1,46V_60s_3_PEIS from 6500Hz to 1000Hz_10_OCV_C01.mpr
	Directory : C:\PEM-WE_measurements\2026\372_IV_IV IrOx, 5 min Pt, 30 min C, etched cathode\new station\Loopeis new\1,46 V different time gaps closed cell\
	Host : 192.168.0.2
Device : SP-150e (SN .005491)
Address : 192.168.0.91
EC-LAB for windows v11.71 (software)
Internet server v28.00 (firmware)
Command interpretor v14.01 (firmware)
Electrode material : 
Initial state : 
Electrolyte : 
Comments : 
Current amplifier : SP-150eB-20A
Electrode surface area : 0.001 cm²
Characteristic mass : 0.001 g
Equivalent Weight : 0.000 g/eq.
Density : 0.000 g/cm3
Volume (V) : 0.001 cm³
Record Analogic IN 1
Text export
   Mode : Standard
   Time format : Elapsed
Cycle Definition : Charge/Discharge alternance
External device configuration :
   device type : Temperature Probe
   device name : Other
   Analog IN 1 : 
      unit : T/Â°C
      max : 100.000 at 2.000 V
      min : 0.000 at 1.460 V
tR (h:m:s)          0:01:0.0000         
dER/dt (mV/h)       1.0                 
record              <Ewe>               
dER (mV)            10.00               
dtR (s)             0.5000              
E range min (V)     -2.500              
E range max (V)     2.500               

mode	error	time/s	<Ewe/V>	Analog IN 1/V	
3	0	4.662133948224800E+002	1.4162161E+000	-2.7038385E+002
3	0	4.667133948098490E+002	1.4070516E+000	-2.7036267E+002
3	0	4.672133947972179E+002	1.4010060E+000	-2.7038031E+002
3	0	4.677133947845869E+002	1.3965979E+000	-2.7039093E+002
3	0	4.682133947719558E+002	1.3930868E+000	-2.7039447E+002
3	0	4.687133947593247E+002	1.3901278E+000	-2.7039093E+002
3	0	4.692133947466937E+002	1.3875666E+000	-2.7036972E+002
3	0	4.697133947340626E+002	1.3852472E+000	-2.7039093E+002
3	0	4.702133947214315E+002	1.3830634E+000	-2.7040155E+002
3	0	4.707133947088005E+002	1.3810219E+000	-2.7038742E+002
3	0	4.712133946961694E+002	1.3792139E+000	-2.7038385E+002
3	0	4.717133946835384E+002	1.3775653E+000	-2.7039801E+002
3	0	4.722133946709073E+002	1.3760309E+000	-2.7039447E+002
3	0	4.727133946582762E+002	1.3746210E+000	-2.7040506E+002
3	0	4.732133946456452E+002	1.3732848E+000	-2.7039093E+002
3	0	4.737133946330141E+002	1.3719862E+000	-2.7036618E+002
3	0	4.742133946203830E+002	1.3706799E+000	-2.7038385E+002
3	0	4.747133946077520E+002	1.3694211E+000	-2.7039447E+002
3	0	4.752133945951209E+002	1.3683040E+000	-2.7038031E+002
3	0	4.757133945824899E+002	1.3672589E+000	-2.7038742E+002
3	0	4.762133945698588E+002	1.3662804E+000	-2.7038031E+002
3	0	4.767133945572277E+002	1.3653693E+000	-2.7036267E+002
3	0	4.772133945445967E+002	1.3645169E+000	-2.7036267E+002
3	0	4.777133945319656E+002	1.3636693E+000	-2.7038742E+002
3	0	4.782133945193345E+002	1.3627892E+000	-2.7036618E+002
3	0	4.787133945067035E+002	1.3619335E+000	-2.7037677E+002
3	0	4.792133944940724E+002	1.3612117E+000	-2.7039447E+002
3	0	4.797133944814414E+002	1.3605587E+000	-2.7040155E+002
3	0	4.802133944688103E+002	1.3599432E+000	-2.7039093E+002
3	0	4.807133944561792E+002	1.3593667E+000	-2.7039093E+002
3	0	4.812133944435482E+002	1.3588074E+000	-2.7036267E+002
3	0	4.817133944309171E+002	1.3582437E+000	-2.7036267E+002
3	0	4.822133944182860E+002	1.3576195E+000	-2.7037326E+002
3	0	4.827133944056550E+002	1.3570073E+000	-2.7036267E+002
3	0	4.832133943930239E+002	1.3565083E+000	-2.7038385E+002
3	0	4.837133943803929E+002	1.3560443E+000	-2.7035205E+002
3	0	4.842133943677618E+002	1.3556111E+000	-2.7040155E+002
3	0	4.847133943551307E+002	1.3551943E+000	-2.7039447E+002
3	0	4.852133943424997E+002	1.3547912E+000	-2.7039093E+002
3	0	4.857133943298686E+002	1.3543531E+000	-2.7037326E+002
3	0	4.862133943172375E+002	1.3538401E+000	-2.7038742E+002
3	0	4.867133943046065E+002	1.3533231E+000	-2.7037326E+002
3	0	4.872133942919754E+002	1.3528965E+000	-2.7040155E+002
3	0	4.877133942793444E+002	1.3525040E+000	-2.7039093E+002
3	0	4.882133942667133E+002	1.3521349E+000	-2.7035913E+002
3	0	4.887133942540822E+002	1.3517628E+000	-2.7036618E+002
3	0	4.892133942414512E+002	1.3513721E+000	-2.7035559E+002
3	0	4.897133942288201E+002	1.3509053E+000	-2.7037326E+002
3	0	4.902133942161890E+002	1.3504589E+000	-2.7038742E+002
3	0	4.907133942035580E+002	1.3500048E+000	-2.7038385E+002
3	0	4.912133941909269E+002	1.3496450E+000	-2.7035913E+002
3	0	4.917133941782959E+002	1.3492779E+000	-2.7036618E+002
3	0	4.922133941656648E+002	1.3489133E+000	-2.7035913E+002
3	0	4.927133941530337E+002	1.3485620E+000	-2.7037677E+002
3	0	4.932133941404027E+002	1.3482131E+000	-2.7036618E+002
3	0	4.937133941277716E+002	1.3478187E+000	-2.7036618E+002
3	0	4.942133941151405E+002	1.3473698E+000	-2.7039093E+002
3	0	4.947133941025095E+002	1.3469176E+000	-2.7037677E+002
3	0	4.952133940898784E+002	1.3465652E+000	-2.7039093E+002
3	0	4.957133940772474E+002	1.3462142E+000	-2.7037326E+002
3	0	4.962133940646163E+002	1.3458903E+000	-2.7037326E+002
3	0	4.967133940519852E+002	1.3455806E+000	-2.7040155E+002
3	0	4.972133940393542E+002	1.3452880E+000	-2.7039093E+002
3	0	4.977133940267231E+002	1.3449632E+000	-2.7038385E+002
3	0	4.982133940140920E+002	1.3445804E+000	-2.7038742E+002
3	0	4.987133940014610E+002	1.3442137E+000	-2.7040155E+002
3	0	4.992133939888299E+002	1.3439449E+000	-2.7037326E+002
3	0	4.997133939761989E+002	1.3436753E+000	-2.7038031E+002
3	0	5.002133939635678E+002	1.3434235E+000	-2.7037677E+002
3	0	5.007133939509367E+002	1.3431876E+000	-2.7038742E+002
3	0	5.012133939383057E+002	1.3429453E+000	-2.7036618E+002
3	0	5.017133939256746E+002	1.3426752E+000	-2.7038031E+002
3	0	5.022133939130435E+002	1.3423288E+000	-2.7038742E+002
3	0	5.027133939004125E+002	1.3419889E+000	-2.7037326E+002
3	0	5.032133938877814E+002	1.3417332E+000	-2.7038385E+002
3	0	5.037133938751504E+002	1.3414655E+000	-2.7036972E+002
3	0	5.042133938625193E+002	1.3412031E+000	-2.7038031E+002
3	0	5.047133938498882E+002	1.3409461E+000	-2.7035913E+002
3	0	5.052133938372572E+002	1.3406876E+000	-2.7035559E+002
3	0	5.057133938246261E+002	1.3403862E+000	-2.7036972E+002
3	0	5.062133938119950E+002	1.3400174E+000	-2.7041214E+002
3	0	5.067133937993640E+002	1.3396415E+000	-2.7038385E+002
3	0	5.072133937867329E+002	1.3393571E+000	-2.7036618E+002
3	0	5.077133937741019E+002	1.3390627E+000	-2.7039447E+002
3	0	5.082133937614708E+002	1.3387781E+000	-2.7038385E+002
3	0	5.087133937488397E+002	1.3384917E+000	-2.7035913E+002
3	0	5.092133937362087E+002	1.3382070E+000	-2.7038031E+002
3	0	5.097133937235776E+002	1.3378724E+000	-2.7036972E+002
3	0	5.102133937109465E+002	1.3374696E+000	-2.7035913E+002
3	0	5.107133936983155E+002	1.3370705E+000	-2.7037677E+002
3	0	5.112133936856844E+002	1.3367605E+000	-2.7038031E+002
3	0	5.117133936730534E+002	1.3364347E+000	-2.7037326E+002
3	0	5.122133936604223E+002	1.3361255E+000	-2.7038031E+002
3	0	5.127133936477912E+002	1.3358240E+000	-2.7036972E+002
3	0	5.132133936351602E+002	1.3355201E+000	-2.7038385E+002
3	0	5.137133936225291E+002	1.3351732E+000	-2.7039447E+002
3	0	5.142133936098980E+002	1.3347501E+000	-2.7038742E+002
3	0	5.147133935972670E+002	1.3343263E+000	-2.7037677E+002
3	0	5.152133935846359E+002	1.3339963E+000	-2.7038031E+002
3	0	5.157133935720049E+002	1.3336576E+000	-2.7035913E+002
3	0	5.162133935593738E+002	1.3333371E+000	-2.7040155E+002
3	0	5.167133935467427E+002	1.3330445E+000	-2.7038742E+002
3	0	5.172133935341117E+002	1.3327456E+000	-2.7037677E+002
3	0	5.177133935214806E+002	1.3324273E+000	-2.7034851E+002
3	0	5.182133935088495E+002	1.3320429E+000	-2.7038031E+002
3	0	5.187133934962185E+002	1.3316729E+000	-2.7039447E+002
3	0	5.192133934835874E+002	1.3313963E+000	-2.7037677E+002
3	0	5.197133934709564E+002	1.3311291E+000	-2.7036972E+002
3	0	5.202133934583253E+002	1.3308717E+000	-2.7037677E+002
3	0	5.207133934456942E+002	1.3306297E+000	-2.7037677E+002
3	0	5.212133934330632E+002	1.3303910E+000	-2.7037677E+002
3	0	5.217133934204321E+002	1.3300924E+000	-2.7037677E+002
3	0	5.222133934078011E+002	1.3297272E+000	-2.7037326E+002
3	0	5.227133933951700E+002	1.3293797E+000	-2.7038742E+002
3	0	5.232133933825389E+002	1.3291178E+000	-2.7035913E+002
3	0	5.237133933699079E+002	1.3288339E+000	-2.7039447E+002
3	0	5.242133933572768E+002	1.3285661E+000	-2.7040506E+002
3	0	5.247133933446457E+002	1.3282961E+000	-2.7038031E+002
3	0	5.252133933320147E+002	1.3280293E+000	-2.7035559E+002
3	0	5.257133933193836E+002	1.3277220E+000	-2.7036972E+002
3	0	5.257137933193735E+002	1.3275248E+000	-2.7037677E+002