EC-Lab ASCII FILE
Nb header lines : 48                          

Open Circuit Voltage

Run on channel : 1 (SN 81504)
User : 
CE vs. WE compliance from -10 V to 10 V
Electrode connection : standard
Potential control : Ewe
Ewe ctrl range : min = -2.50 V, max = 2.50 V
Safety Limits :
	Do not start on E overload
Acquisition started on : 05/07/2026 18:41:54.331
Loaded Setting File :  C:\PEM-WE_measurements\2026\372_IV_IV IrOx, 5 min Pt, 30 min C, etched cathode\new station\Loopeis new\1,46 V different time gaps open cell\Loopeis 1,46V_90s_2_PEIS from 65kHz to 10kHz.mps
Saved on :
	File : L_17_Loopeis 1,46V_90s_2_PEIS from 65kHz to 10kHz_18_OCV_C01.mpr
	Directory : C:\PEM-WE_measurements\2026\372_IV_IV IrOx, 5 min Pt, 30 min C, etched cathode\new station\Loopeis new\1,46 V different time gaps open cell\
	Host : 192.168.0.2
Device : SP-150e (SN .005491)
Address : 192.168.0.91
EC-LAB for windows v11.71 (software)
Internet server v28.00 (firmware)
Command interpretor v14.01 (firmware)
Electrode material : 
Initial state : 
Electrolyte : 
Comments : 
Current amplifier : SP-150eB-20A
Electrode surface area : 0.001 cm²
Characteristic mass : 0.001 g
Equivalent Weight : 0.000 g/eq.
Density : 0.000 g/cm3
Volume (V) : 0.001 cm³
Record Analogic IN 1
Text export
   Mode : Standard
   Time format : Elapsed
Cycle Definition : Charge/Discharge alternance
tR (h:m:s)          0:01:30.0000        
dER/dt (mV/h)       1.0                 
record              <Ewe>               
dER (mV)            10.00               
dtR (s)             0.5000              
E range min (V)     -2.500              
E range max (V)     2.500               

mode	error	time/s	<Ewe/V>	Analog IN 1/V	
3	0	1.127421984754983E+003	1.2716405E+000	2.2950437E-005
3	0	1.127921984742352E+003	1.2585474E+000	6.1121522E-005
3	0	1.128421984729721E+003	1.2063823E+000	-5.3391734E-005
3	0	1.128921984717090E+003	1.1018240E+000	-3.4306191E-005
3	0	1.129421984704459E+003	7.5166410E-001	-9.1562819E-005
3	0	1.129921984691828E+003	4.0005189E-001	-9.1562819E-005
3	0	1.130421984679197E+003	3.2887399E-001	-5.3391734E-005
3	0	1.130921984666566E+003	3.1804463E-001	-1.4881945E-004
3	0	1.131421984653934E+003	3.1038871E-001	2.2950437E-005
3	0	1.131921984641303E+003	3.0423564E-001	4.2035979E-005
3	0	1.132421984628672E+003	2.9946581E-001	4.2035979E-005
3	0	1.132921984616041E+003	2.9576826E-001	-9.1562819E-005
3	0	1.133421984603410E+003	2.9287687E-001	-1.5220648E-005
3	0	1.133921984590779E+003	2.9055995E-001	2.2950437E-005
3	0	1.134421984578148E+003	2.8865886E-001	-1.2973390E-004
3	0	1.134921984565517E+003	2.8704458E-001	-1.5220648E-005
3	0	1.135421984552886E+003	2.8565040E-001	-9.1562819E-005
3	0	1.135921984540255E+003	2.8442606E-001	-7.2477276E-005
3	0	1.136421984527624E+003	2.8330094E-001	8.0207064E-005
3	0	1.136921984514993E+003	2.8226760E-001	2.2950437E-005
3	0	1.137421984502362E+003	2.8132492E-001	-1.5220648E-005
3	0	1.137921984489731E+003	2.8048229E-001	-7.2477276E-005
3	0	1.138421984477100E+003	2.7969289E-001	1.3746369E-004
3	0	1.138921984464469E+003	2.7894765E-001	4.2035979E-005
3	0	1.139421984451837E+003	2.7822506E-001	-9.1562819E-005
3	0	1.139921984439206E+003	2.7753171E-001	-1.8699054E-004
3	0	1.140421984426575E+003	2.7683663E-001	-3.4306191E-005
3	0	1.140921984413944E+003	2.7614266E-001	9.9292607E-005
3	0	1.141421984401313E+003	2.7548209E-001	6.1121522E-005
3	0	1.141921984388682E+003	2.7487269E-001	-1.4881945E-004
3	0	1.142421984376051E+003	2.7428004E-001	1.3746369E-004
3	0	1.142921984363420E+003	2.7369207E-001	-1.5220648E-005
3	0	1.143421984350789E+003	2.7311131E-001	-7.2477276E-005
3	0	1.143921984338158E+003	2.7253348E-001	3.8648941E-006
3	0	1.144421984325527E+003	2.7194706E-001	-1.6790499E-004
3	0	1.144921984312896E+003	2.7134132E-001	-1.1064836E-004
3	0	1.145421984300265E+003	2.7076623E-001	-1.1064836E-004
3	0	1.145921984287634E+003	2.7022392E-001	2.2950437E-005
3	0	1.146421984275003E+003	2.6969489E-001	4.2035979E-005
3	0	1.146921984262372E+003	2.6917359E-001	-1.1064836E-004
3	0	1.147421984249740E+003	2.6864487E-001	-1.2973390E-004
3	0	1.147921984237109E+003	2.6812717E-001	-1.5220648E-005
3	0	1.148421984224478E+003	2.6758674E-001	-1.4881945E-004
3	0	1.148921984211847E+003	2.6703590E-001	-1.5220648E-005
3	0	1.149421984199216E+003	2.6650184E-001	-1.1064836E-004
3	0	1.149921984186585E+003	2.6600763E-001	1.3746369E-004
3	0	1.150421984173954E+003	2.6551354E-001	-1.6790499E-004
3	0	1.150921984161323E+003	2.6501834E-001	-3.4306191E-005
3	0	1.151421984148692E+003	2.6453400E-001	-1.5220648E-005
3	0	1.151921984136061E+003	2.6404721E-001	-1.5220648E-005
3	0	1.152421984123430E+003	2.6355419E-001	-5.3391734E-005
3	0	1.152921984110799E+003	2.6304001E-001	-1.6790499E-004
3	0	1.153421984098168E+003	2.6254803E-001	-9.1562819E-005
3	0	1.153921984085537E+003	2.6208732E-001	-7.2477276E-005
3	0	1.154421984072906E+003	2.6163349E-001	-1.5220648E-005
3	0	1.154921984060275E+003	2.6116905E-001	8.0207064E-005
3	0	1.155421984047643E+003	2.6071769E-001	-2.4424717E-004
3	0	1.155921984035012E+003	2.6026636E-001	-1.5220648E-005
3	0	1.156421984022381E+003	2.5980037E-001	2.2950437E-005
3	0	1.156921984009750E+003	2.5932360E-001	8.0207064E-005
3	0	1.157421983997119E+003	2.5886598E-001	-7.2477276E-005
3	0	1.157921983984488E+003	2.5843361E-001	4.2035979E-005
3	0	1.158421983971857E+003	2.5800943E-001	-3.4306191E-005
3	0	1.158921983959226E+003	2.5757870E-001	-1.4881945E-004
3	0	1.159421983946595E+003	2.5715479E-001	3.8648941E-006
3	0	1.159921983933964E+003	2.5672981E-001	2.2950437E-005
3	0	1.160421983921333E+003	2.5629172E-001	-5.3391734E-005
3	0	1.160921983908702E+003	2.5583529E-001	3.8648941E-006
3	0	1.161421983896071E+003	2.5540790E-001	-7.2477276E-005
3	0	1.161921983883440E+003	2.5501147E-001	-9.1562819E-005
3	0	1.162421983870809E+003	2.5461948E-001	-9.1562819E-005
3	0	1.162921983858178E+003	2.5422591E-001	-9.1562819E-005
3	0	1.163421983845546E+003	2.5382969E-001	9.9292607E-005
3	0	1.163921983832915E+003	2.5343880E-001	-1.5220648E-005
3	0	1.164421983820284E+003	2.5303736E-001	-1.5220648E-005
3	0	1.164921983807653E+003	2.5261232E-001	2.2950437E-005
3	0	1.165421983795022E+003	2.5221288E-001	8.0207064E-005
3	0	1.165921983782391E+003	2.5185180E-001	-9.1562819E-005
3	0	1.166421983769760E+003	2.5148708E-001	-9.1562819E-005
3	0	1.166921983757129E+003	2.5112444E-001	3.8648941E-006
3	0	1.167421983744498E+003	2.5076360E-001	-5.3391734E-005
3	0	1.167921983731867E+003	2.5040454E-001	-5.3391734E-005
3	0	1.168421983719236E+003	2.5001878E-001	-1.5220648E-005
3	0	1.168921983706605E+003	2.4962987E-001	-3.4306191E-005
3	0	1.169421983693974E+003	2.4926646E-001	-1.1064836E-004
3	0	1.169921983681343E+003	2.4893102E-001	-1.4881945E-004
3	0	1.170421983668712E+003	2.4859594E-001	6.1121522E-005
3	0	1.170921983656081E+003	2.4825634E-001	4.2035979E-005
3	0	1.171421983643449E+003	2.4792869E-001	-7.2477276E-005
3	0	1.171921983630818E+003	2.4759063E-001	-1.2973390E-004
3	0	1.172421983618187E+003	2.4724132E-001	-7.2477276E-005
3	0	1.172921983605556E+003	2.4687618E-001	3.8648941E-006
3	0	1.173421983592925E+003	2.4654026E-001	-1.1064836E-004
3	0	1.173921983580294E+003	2.4623063E-001	-1.5220648E-005
3	0	1.174421983567663E+003	2.4592318E-001	2.2950437E-005
3	0	1.174921983555032E+003	2.4562028E-001	-3.4306191E-005
3	0	1.175421983542401E+003	2.4531241E-001	-5.3391734E-005
3	0	1.175921983529770E+003	2.4500228E-001	8.0207064E-005
3	0	1.176421983517139E+003	2.4467123E-001	2.2950437E-005
3	0	1.176921983504508E+003	2.4434073E-001	-7.2477276E-005
3	0	1.177421983491877E+003	2.4402042E-001	-1.1064836E-004
3	0	1.177921983479246E+003	2.4374075E-001	-7.2477276E-005
3	0	1.178421983466615E+003	2.4345782E-001	-3.4306191E-005
3	0	1.178921983453984E+003	2.4318253E-001	-1.5220648E-005
3	0	1.179421983441353E+003	2.4289930E-001	-3.4306191E-005
3	0	1.179921983428721E+003	2.4261764E-001	-5.3391734E-005
3	0	1.180421983416090E+003	2.4231364E-001	-7.2477276E-005
3	0	1.180921983403459E+003	2.4199833E-001	3.8648941E-006
3	0	1.181421983390828E+003	2.4170536E-001	-7.2477276E-005
3	0	1.181921983378197E+003	2.4144991E-001	3.8648941E-006
3	0	1.182421983365566E+003	2.4119073E-001	-1.4881945E-004
3	0	1.182921983352935E+003	2.4093273E-001	-5.3391734E-005
3	0	1.183421983340304E+003	2.4067599E-001	-1.6790499E-004
3	0	1.183921983327673E+003	2.4041946E-001	-7.2477276E-005
3	0	1.184421983315042E+003	2.4015372E-001	-1.5220648E-005
3	0	1.184921983302411E+003	2.3986657E-001	-1.5220648E-005
3	0	1.185421983289780E+003	2.3959751E-001	-7.2477276E-005
3	0	1.185921983277149E+003	2.3937355E-001	-1.2973390E-004
3	0	1.186421983264518E+003	2.3914073E-001	-3.4306191E-005
3	0	1.186921983251887E+003	2.3890921E-001	8.0207064E-005
3	0	1.187421983239256E+003	2.3867172E-001	9.9292607E-005
3	0	1.187921983226624E+003	2.3843718E-001	-7.2477276E-005
3	0	1.188421983213993E+003	2.3818532E-001	3.8648941E-006
3	0	1.188921983201362E+003	2.3792240E-001	-5.3391734E-005
3	0	1.189421983188731E+003	2.3768002E-001	-3.4306191E-005
3	0	1.189921983176100E+003	2.3746815E-001	2.2950437E-005
3	0	1.190421983163469E+003	2.3725358E-001	1.1837815E-004
3	0	1.190921983150838E+003	2.3703916E-001	-9.1562819E-005
3	0	1.191421983138207E+003	2.3682946E-001	3.8648941E-006
3	0	1.191921983125576E+003	2.3661757E-001	-1.6790499E-004
3	0	1.192421983112945E+003	2.3638290E-001	-9.1562819E-005
3	0	1.192921983100314E+003	2.3612840E-001	-5.3391734E-005
3	0	1.193421983087683E+003	2.3590338E-001	-7.2477276E-005
3	0	1.193921983075052E+003	2.3571207E-001	3.8648941E-006
3	0	1.194421983062421E+003	2.3551969E-001	-9.1562819E-005
3	0	1.194921983049790E+003	2.3532899E-001	-7.2477276E-005
3	0	1.195421983037159E+003	2.3513919E-001	-9.1562819E-005
3	0	1.195921983024527E+003	2.3493768E-001	1.1837815E-004
3	0	1.196421983011896E+003	2.3472276E-001	3.8648941E-006
3	0	1.196921982999265E+003	2.3449112E-001	-1.6790499E-004
3	0	1.197421982986634E+003	2.3428060E-001	-5.3391734E-005
3	0	1.197921982974003E+003	2.3410645E-001	6.1121522E-005
3	0	1.198421982961372E+003	2.3393363E-001	-5.3391734E-005
3	0	1.198921982948741E+003	2.3374996E-001	6.1121522E-005
3	0	1.199421982936110E+003	2.3356566E-001	4.2035979E-005
3	0	1.199921982923479E+003	2.3338507E-001	-9.1562819E-005
3	0	1.200421982910848E+003	2.3318395E-001	9.9292607E-005
3	0	1.200921982898217E+003	2.3296976E-001	-7.2477276E-005
3	0	1.201421982885586E+003	2.3277083E-001	-5.3391734E-005
3	0	1.201921982872955E+003	2.3261082E-001	3.8648941E-006
3	0	1.202421982860324E+003	2.3244874E-001	-5.3391734E-005
3	0	1.202921982847693E+003	2.3228160E-001	-3.4306191E-005
3	0	1.203421982835062E+003	2.3212166E-001	-1.8699054E-004
3	0	1.203921982822430E+003	2.3195307E-001	-5.3391734E-005
3	0	1.204421982809799E+003	2.3176920E-001	-5.3391734E-005
3	0	1.204921982797168E+003	2.3156478E-001	1.1837815E-004
3	0	1.205421982784537E+003	2.3138326E-001	-1.5220648E-005
3	0	1.205921982771906E+003	2.3124269E-001	-9.1562819E-005
3	0	1.206421982759275E+003	2.3109125E-001	6.1121522E-005
3	0	1.206921982746644E+003	2.3094290E-001	4.2035979E-005
3	0	1.207421982734013E+003	2.3079655E-001	-9.1562819E-005
3	0	1.207921982721382E+003	2.3064493E-001	-3.4306191E-005
3	0	1.208421982708751E+003	2.3048143E-001	-5.3391734E-005
3	0	1.208921982696120E+003	2.3029967E-001	-7.2477276E-005
3	0	1.209421982683489E+003	2.3013285E-001	-9.1562819E-005
3	0	1.209921982670858E+003	2.3000030E-001	-1.1064836E-004
3	0	1.210421982658227E+003	2.2986208E-001	6.1121522E-005
3	0	1.210921982645596E+003	2.2972159E-001	-1.2973390E-004
3	0	1.211421982632965E+003	2.2958568E-001	-1.5220648E-005
3	0	1.211921982620333E+003	2.2944559E-001	-5.3391734E-005
3	0	1.212421982607702E+003	2.2928351E-001	-1.5220648E-005
3	0	1.212921982595071E+003	2.2911185E-001	-7.2477276E-005
3	0	1.213421982582440E+003	2.2895376E-001	-1.1064836E-004
3	0	1.213921982569809E+003	2.2883034E-001	-3.4306191E-005
3	0	1.214421982557178E+003	2.2871092E-001	-1.2973390E-004
3	0	1.214921982544547E+003	2.2858146E-001	-7.2477276E-005
3	0	1.215421982531916E+003	2.2845833E-001	-7.2477276E-005
3	0	1.215921982519285E+003	2.2832458E-001	-5.3391734E-005
3	0	1.216421982506654E+003	2.2817820E-001	2.2950437E-005
3	0	1.216921982494023E+003	2.2801085E-001	-1.1064836E-004
3	0	1.216922382494013E+003	2.2785956E-001	-1.1064836E-004