EC-Lab ASCII FILE
Nb header lines : 48                          

Open Circuit Voltage

Run on channel : 1 (SN 81504)
User : 
CE vs. WE compliance from -10 V to 10 V
Electrode connection : standard
Potential control : Ewe
Ewe ctrl range : min = -2.50 V, max = 2.50 V
Safety Limits :
	Do not start on E overload
Acquisition started on : 05/07/2026 14:16:32.051
Loaded Setting File :  C:\PEM-WE_measurements\2026\372_IV_IV IrOx, 5 min Pt, 30 min C, etched cathode\new station\Loopeis new\1,46 V different time gaps open cell\Loopeis 1,46V_30s_2_PEIS from 65kHz to 10kHz.mps
Saved on :
	File : L_02_Loopeis 1,46V_30s_2_PEIS from 65kHz to 10kHz_18_OCV_C01.mpr
	Directory : C:\PEM-WE_measurements\2026\372_IV_IV IrOx, 5 min Pt, 30 min C, etched cathode\new station\Loopeis new\1,46 V different time gaps open cell\
	Host : 192.168.0.2
Device : SP-150e (SN .005491)
Address : 192.168.0.91
EC-LAB for windows v11.71 (software)
Internet server v28.00 (firmware)
Command interpretor v14.01 (firmware)
Electrode material : 
Initial state : 
Electrolyte : 
Comments : 
Current amplifier : SP-150eB-20A
Electrode surface area : 0.001 cm²
Characteristic mass : 0.001 g
Equivalent Weight : 0.000 g/eq.
Density : 0.000 g/cm3
Volume (V) : 0.001 cm³
Record Analogic IN 1
Text export
   Mode : Standard
   Time format : Elapsed
Cycle Definition : Charge/Discharge alternance
tR (h:m:s)          0:00:30.0000        
dER/dt (mV/h)       1.0                 
record              <Ewe>               
dER (mV)            10.00               
dtR (s)             0.5000              
E range min (V)     -2.500              
E range max (V)     2.500               

mode	error	time/s	<Ewe/V>	Analog IN 1/V	
3	0	6.472699734360358E+002	1.2560289E+000	-5.3391734E-005
3	0	6.477699734234047E+002	1.2308730E+000	-1.5220648E-005
3	0	6.482699734107737E+002	1.1226132E+000	-2.0607607E-004
3	0	6.487699733981426E+002	7.2801691E-001	4.2035979E-005
3	0	6.492699733855115E+002	3.9228570E-001	4.2035979E-005
3	0	6.497699733728805E+002	3.3681089E-001	-9.1562819E-005
3	0	6.502699733602494E+002	3.2668117E-001	8.0207064E-005
3	0	6.507699733476184E+002	3.1933224E-001	-1.5220648E-005
3	0	6.512699733349873E+002	3.1358182E-001	-3.4306191E-005
3	0	6.517699733223562E+002	3.0927530E-001	8.0207064E-005
3	0	6.522699733097252E+002	3.0598843E-001	3.8648941E-006
3	0	6.527699732970941E+002	3.0343008E-001	8.0207064E-005
3	0	6.532699732844630E+002	3.0139801E-001	-5.3391734E-005
3	0	6.537699732718320E+002	2.9970682E-001	6.1121522E-005
3	0	6.542699732592009E+002	2.9827788E-001	8.0207064E-005
3	0	6.547699732465699E+002	2.9704013E-001	-7.2477276E-005
3	0	6.552699732339388E+002	2.9594451E-001	3.8648941E-006
3	0	6.557699732213077E+002	2.9494274E-001	-1.4881945E-004
3	0	6.562699732086767E+002	2.9402238E-001	-9.1562819E-005
3	0	6.567699731960456E+002	2.9317865E-001	9.9292607E-005
3	0	6.572699731834146E+002	2.9241344E-001	3.8648941E-006
3	0	6.577699731707835E+002	2.9167843E-001	-5.3391734E-005
3	0	6.582699731581524E+002	2.9097429E-001	-3.4306191E-005
3	0	6.587699731455214E+002	2.9030442E-001	-5.3391734E-005
3	0	6.592699731328903E+002	2.8966326E-001	-1.4881945E-004
3	0	6.597699731202592E+002	2.8903130E-001	-1.5220648E-005
3	0	6.602699731076282E+002	2.8840402E-001	-7.2477276E-005
3	0	6.607699730949971E+002	2.8780246E-001	-9.1562819E-005
3	0	6.612699730823661E+002	2.8723526E-001	-9.1562819E-005
3	0	6.617699730697350E+002	2.8666416E-001	-3.4306191E-005
3	0	6.622699730571039E+002	2.8610134E-001	-1.1064836E-004
3	0	6.627699730444729E+002	2.8555819E-001	-7.2477276E-005
3	0	6.632699730318418E+002	2.8501320E-001	-3.4306191E-005
3	0	6.637699730192107E+002	2.8446287E-001	-1.4881945E-004
3	0	6.642699730065797E+002	2.8390118E-001	-9.1562819E-005
3	0	6.647699729939486E+002	2.8336111E-001	-5.3391734E-005
3	0	6.652699729813176E+002	2.8285930E-001	-9.1562819E-005
3	0	6.657699729686865E+002	2.8234974E-001	-9.1562819E-005
3	0	6.662699729560554E+002	2.8184533E-001	1.1837815E-004
3	0	6.667699729434244E+002	2.8133884E-001	-5.3391734E-005
3	0	6.672699729307933E+002	2.8084940E-001	4.2035979E-005
3	0	6.677699729181622E+002	2.8033996E-001	6.1121522E-005
3	0	6.682699729055312E+002	2.7981654E-001	1.5654923E-004
3	0	6.687699728929001E+002	2.7931085E-001	-3.4306191E-005
3	0	6.692699728802691E+002	2.7884474E-001	-1.2973390E-004
3	0	6.697699728676380E+002	2.7836922E-001	2.2950437E-005
3	0	6.702699728550069E+002	2.7789232E-001	-1.1064836E-004
3	0	6.707699728423759E+002	2.7742782E-001	-9.1562819E-005
3	0	6.712699728297448E+002	2.7695274E-001	-9.1562819E-005
3	0	6.717699728171137E+002	2.7647734E-001	-3.4306191E-005
3	0	6.722699728044827E+002	2.7598315E-001	-3.4306191E-005
3	0	6.727699727918516E+002	2.7550814E-001	-9.1562819E-005
3	0	6.732699727792206E+002	2.7506787E-001	4.2035979E-005
3	0	6.737699727665895E+002	2.7462590E-001	-1.2973390E-004
3	0	6.742699727539584E+002	2.7418920E-001	4.2035979E-005
3	0	6.747699727413274E+002	2.7375254E-001	-9.1562819E-005
3	0	6.752699727286963E+002	2.7332383E-001	-1.5220648E-005
3	0	6.757699727160652E+002	2.7286682E-001	4.2035979E-005
3	0	6.762699727034342E+002	2.7240849E-001	-9.1562819E-005
3	0	6.767699726908031E+002	2.7197194E-001	-5.3391734E-005
3	0	6.767703726907930E+002	2.7184784E-001	-1.5220648E-005