EC-Lab ASCII FILE
Nb header lines : 55                          

Open Circuit Voltage

Run on channel : 1 (SN 81504)
User : 
CE vs. WE compliance from -10 V to 10 V
Electrode connection : standard
Potential control : Ewe
Ewe ctrl range : min = -2.50 V, max = 2.50 V
Safety Limits :
	Do not start on E overload
Acquisition started on : 05/10/2026 06:49:56.074
Loaded Setting File :  C:\PEM-WE_measurements\2026\372_IV_IV IrOx, 5 min Pt, 30 min C, etched cathode\new station\Loopeis new\1,46 V different time gaps closed cell\Loopeis 1,46V_120s_4_PEIS from 650Hz to 100Hz.mps
Saved on :
	File : L_24_Loopeis 1,46V_120s_4_PEIS from 650Hz to 100Hz_12_OCV_C01.mpr
	Directory : C:\PEM-WE_measurements\2026\372_IV_IV IrOx, 5 min Pt, 30 min C, etched cathode\new station\Loopeis new\1,46 V different time gaps closed cell\
	Host : 192.168.0.2
Device : SP-150e (SN .005491)
Address : 192.168.0.91
EC-LAB for windows v11.71 (software)
Internet server v28.00 (firmware)
Command interpretor v14.01 (firmware)
Electrode material : 
Initial state : 
Electrolyte : 
Comments : 
Current amplifier : SP-150eB-20A
Electrode surface area : 0.001 cm²
Characteristic mass : 0.001 g
Equivalent Weight : 0.000 g/eq.
Density : 0.000 g/cm3
Volume (V) : 0.001 cm³
Record Analogic IN 1
Text export
   Mode : Standard
   Time format : Elapsed
Cycle Definition : Charge/Discharge alternance
External device configuration :
   device type : Temperature Probe
   device name : Other
   Analog IN 1 : 
      unit : T/Â°C
      max : 100.000 at 2.000 V
      min : 0.000 at 1.460 V
tR (h:m:s)          0:02:0.0000         
dER/dt (mV/h)       1.0                 
record              <Ewe>               
dER (mV)            10.00               
dtR (s)             0.5000              
E range min (V)     -2.500              
E range max (V)     2.500               

mode	error	time/s	<Ewe/V>	Analog IN 1/V	
3	0	8.723819879227813E+002	1.1233519E+000	-2.7038742E+002
3	0	8.728819879101502E+002	1.2587528E+000	-2.7038385E+002
3	0	8.733819878975191E+002	1.2562289E+000	-2.7037677E+002
3	0	8.738819878848881E+002	1.2473986E+000	-2.7040506E+002
3	0	8.743819878722570E+002	1.2299145E+000	-2.7041568E+002
3	0	8.748819878596260E+002	1.2000676E+000	-2.7038385E+002
3	0	8.753819878469949E+002	1.1504915E+000	-2.7039801E+002
3	0	8.758819878343638E+002	1.0592892E+000	-2.7040155E+002
3	0	8.763819878217328E+002	8.0507672E-001	-2.7038385E+002
3	0	8.768819878091017E+002	5.2837014E-001	-2.7039801E+002
3	0	8.773819877964706E+002	4.2454720E-001	-2.7037677E+002
3	0	8.778819877838396E+002	3.9115319E-001	-2.7038031E+002
3	0	8.783819877712085E+002	3.8193059E-001	-2.7036618E+002
3	0	8.788819877585775E+002	3.7869647E-001	-2.7038742E+002
3	0	8.793819877459464E+002	3.7673801E-001	-2.7038031E+002
3	0	8.798819877333153E+002	3.7476432E-001	-2.7036267E+002
3	0	8.803819877206843E+002	3.7286597E-001	-2.7038031E+002
3	0	8.808819877080532E+002	3.7143892E-001	-2.7039093E+002
3	0	8.813819876954221E+002	3.7096840E-001	-2.7037677E+002
3	0	8.818819876827911E+002	3.7043229E-001	-2.7038385E+002
3	0	8.823819876701600E+002	3.6990637E-001	-2.7038031E+002
3	0	8.828819876575290E+002	3.6944619E-001	-2.7038742E+002
3	0	8.833819876448979E+002	3.6901432E-001	-2.7039093E+002
3	0	8.838819876322668E+002	3.6849681E-001	-2.7039801E+002
3	0	8.843819876196358E+002	3.6786950E-001	-2.7037326E+002
3	0	8.848819876070047E+002	3.6757571E-001	-2.7038742E+002
3	0	8.853819875943736E+002	3.6789393E-001	-2.7037677E+002
3	0	8.858819875817426E+002	3.6802500E-001	-2.7038031E+002
3	0	8.863819875691115E+002	3.6800584E-001	-2.7036972E+002
3	0	8.868819875564805E+002	3.6796859E-001	-2.7037677E+002
3	0	8.873819875438494E+002	3.6792615E-001	-2.7037677E+002
3	0	8.878819875312183E+002	3.6774594E-001	-2.7040155E+002
3	0	8.883819875185873E+002	3.6731127E-001	-2.7038031E+002
3	0	8.888819875059562E+002	3.6711967E-001	-2.7038742E+002
3	0	8.893819874933251E+002	3.6756870E-001	-2.7039447E+002
3	0	8.898819874806941E+002	3.6782438E-001	-2.7035559E+002
3	0	8.903819874680630E+002	3.6792791E-001	-2.7038742E+002
3	0	8.908819874554320E+002	3.6792189E-001	-2.7038031E+002
3	0	8.913819874428009E+002	3.6788359E-001	-2.7037677E+002
3	0	8.918819874301698E+002	3.6769748E-001	-2.7035913E+002
3	0	8.923819874175388E+002	3.6732507E-001	-2.7035205E+002
3	0	8.928819874049077E+002	3.6720452E-001	-2.7037326E+002
3	0	8.933819873922766E+002	3.6761424E-001	-2.7039447E+002
3	0	8.938819873796456E+002	3.6787507E-001	-2.7039447E+002
3	0	8.943819873670145E+002	3.6796838E-001	-2.7038031E+002
3	0	8.948819873543835E+002	3.6802423E-001	-2.7038385E+002
3	0	8.953819873417524E+002	3.6805847E-001	-2.7039801E+002
3	0	8.958819873291213E+002	3.6812761E-001	-2.7038385E+002
3	0	8.963819873164903E+002	3.6806256E-001	-2.7035913E+002
3	0	8.968819873038592E+002	3.6834407E-001	-2.7037326E+002
3	0	8.973819872912281E+002	3.6930621E-001	-2.7038385E+002
3	0	8.978819872785971E+002	3.7018144E-001	-2.7037677E+002
3	0	8.983819872659660E+002	3.7100241E-001	-2.7036972E+002
3	0	8.988819872533350E+002	3.7180600E-001	-2.7036972E+002
3	0	8.993819872407039E+002	3.7251717E-001	-2.7036618E+002
3	0	8.998819872280728E+002	3.7309742E-001	-2.7039447E+002
3	0	9.003819872154418E+002	3.7341505E-001	-2.7038385E+002
3	0	9.008819872028107E+002	3.7384799E-001	-2.7038742E+002
3	0	9.013819871901796E+002	3.7474793E-001	-2.7038742E+002
3	0	9.018819871775486E+002	3.7542212E-001	-2.7036618E+002
3	0	9.023819871649175E+002	3.7586570E-001	-2.7038385E+002
3	0	9.028819871522865E+002	3.7618053E-001	-2.7039093E+002
3	0	9.033819871396554E+002	3.7638497E-001	-2.7040506E+002
3	0	9.038819871270243E+002	3.7638342E-001	-2.7039447E+002
3	0	9.043819871143933E+002	3.7615865E-001	-2.7037326E+002
3	0	9.048819871017622E+002	3.7612280E-001	-2.7035559E+002
3	0	9.053819870891311E+002	3.7658659E-001	-2.7036618E+002
3	0	9.058819870765001E+002	3.7687486E-001	-2.7038031E+002
3	0	9.063819870638690E+002	3.7698525E-001	-2.7040860E+002
3	0	9.068819870512380E+002	3.7692329E-001	-2.7038385E+002
3	0	9.073819870386069E+002	3.7676832E-001	-2.7037677E+002
3	0	9.078819870259758E+002	3.7647119E-001	-2.7039093E+002
3	0	9.083819870133448E+002	3.7587842E-001	-2.7038031E+002
3	0	9.088819870007137E+002	3.7549880E-001	-2.7037326E+002
3	0	9.093819869880826E+002	3.7563339E-001	-2.7038742E+002
3	0	9.098819869754516E+002	3.7560081E-001	-2.7037326E+002
3	0	9.103819869628205E+002	3.7542111E-001	-2.7037326E+002
3	0	9.108819869501895E+002	3.7515968E-001	-2.7039447E+002
3	0	9.113819869375584E+002	3.7487122E-001	-2.7036618E+002
3	0	9.118819869249273E+002	3.7437066E-001	-2.7035559E+002
3	0	9.123819869122963E+002	3.7369266E-001	-2.7035205E+002
3	0	9.128819868996652E+002	3.7319133E-001	-2.7036267E+002
3	0	9.133819868870341E+002	3.7318376E-001	-2.7038031E+002
3	0	9.138819868744031E+002	3.7305894E-001	-2.7040506E+002
3	0	9.143819868617720E+002	3.7281406E-001	-2.7037326E+002
3	0	9.148819868491410E+002	3.7247020E-001	-2.7036618E+002
3	0	9.153819868365099E+002	3.7213603E-001	-2.7040155E+002
3	0	9.158819868238788E+002	3.7180367E-001	-2.7040506E+002
3	0	9.163819868112478E+002	3.7142360E-001	-2.7038031E+002
3	0	9.168819867986167E+002	3.7131578E-001	-2.7037326E+002
3	0	9.173819867859856E+002	3.7181741E-001	-2.7036972E+002
3	0	9.178819867733546E+002	3.7224740E-001	-2.7038742E+002
3	0	9.183819867607235E+002	3.7264791E-001	-2.7040506E+002
3	0	9.188819867480925E+002	3.7300235E-001	-2.7035205E+002
3	0	9.193819867354614E+002	3.7331012E-001	-2.7037677E+002
3	0	9.198819867228303E+002	3.7334394E-001	-2.7038742E+002
3	0	9.203819867101993E+002	3.7316114E-001	-2.7038385E+002
3	0	9.208819866975682E+002	3.7314236E-001	-2.7037677E+002
3	0	9.213819866849371E+002	3.7354359E-001	-2.7040155E+002
3	0	9.218819866723061E+002	3.7376642E-001	-2.7036267E+002
3	0	9.223819866596750E+002	3.7383974E-001	-2.7038742E+002
3	0	9.228819866470440E+002	3.7378681E-001	-2.7036618E+002
3	0	9.233819866344129E+002	3.7363744E-001	-2.7036267E+002
3	0	9.238819866217818E+002	3.7332463E-001	-2.7041568E+002
3	0	9.243819866091508E+002	3.7279281E-001	-2.7038742E+002
3	0	9.248819865965197E+002	3.7240165E-001	-2.7036267E+002
3	0	9.253819865838886E+002	3.7246370E-001	-2.7037326E+002
3	0	9.258819865712576E+002	3.7239590E-001	-2.7038031E+002
3	0	9.263819865586265E+002	3.7219119E-001	-2.7037326E+002
3	0	9.268819865459955E+002	3.7188578E-001	-2.7039093E+002
3	0	9.273819865333644E+002	3.7149262E-001	-2.7036618E+002
3	0	9.278819865207333E+002	3.7096438E-001	-2.7038385E+002
3	0	9.283819865081023E+002	3.7028712E-001	-2.7034497E+002
3	0	9.288819864954712E+002	3.6970279E-001	-2.7040155E+002
3	0	9.293819864828401E+002	3.6960965E-001	-2.7038031E+002
3	0	9.298819864702091E+002	3.6940587E-001	-2.7036972E+002
3	0	9.303819864575780E+002	3.6906153E-001	-2.7037677E+002
3	0	9.308819864449470E+002	3.6864972E-001	-2.7037677E+002
3	0	9.313819864323159E+002	3.6816192E-001	-2.7039447E+002
3	0	9.318819864196848E+002	3.6752245E-001	-2.7035559E+002
3	0	9.323819864070538E+002	3.6673650E-001	-2.7037677E+002
3	0	9.328819863944227E+002	3.6617914E-001	-2.7038742E+002
3	0	9.333819863817916E+002	3.6605206E-001	-2.7038031E+002
3	0	9.338819863691606E+002	3.6581784E-001	-2.7038031E+002
3	0	9.343819863565295E+002	3.6548078E-001	-2.7039801E+002
3	0	9.348819863438985E+002	3.6508444E-001	-2.7038385E+002
3	0	9.353819863312674E+002	3.6465970E-001	-2.7038742E+002
3	0	9.358819863186363E+002	3.6419922E-001	-2.7038385E+002
3	0	9.363819863060053E+002	3.6376312E-001	-2.7036618E+002
3	0	9.368819862933742E+002	3.6355355E-001	-2.7039801E+002
3	0	9.373819862807431E+002	3.6387894E-001	-2.7038031E+002
3	0	9.378819862681121E+002	3.6417821E-001	-2.7037677E+002
3	0	9.383819862554810E+002	3.6445445E-001	-2.7035559E+002
3	0	9.388819862428500E+002	3.6468011E-001	-2.7038031E+002
3	0	9.393819862302189E+002	3.6484492E-001	-2.7036618E+002
3	0	9.398819862175878E+002	3.6479560E-001	-2.7039093E+002
3	0	9.403819862049568E+002	3.6459869E-001	-2.7038742E+002
3	0	9.408819861923257E+002	3.6447185E-001	-2.7037677E+002
3	0	9.413819861796947E+002	3.6472180E-001	-2.7035205E+002
3	0	9.418819861670636E+002	3.6482474E-001	-2.7038031E+002
3	0	9.423819861544325E+002	3.6481142E-001	-2.7038385E+002
3	0	9.428819861418015E+002	3.6463463E-001	-2.7036618E+002
3	0	9.433819861291704E+002	3.6442694E-001	-2.7037326E+002
3	0	9.438819861165393E+002	3.6404932E-001	-2.7039093E+002
3	0	9.443819861039083E+002	3.6352700E-001	-2.7038031E+002
3	0	9.448819860912772E+002	3.6315492E-001	-2.7039801E+002
3	0	9.453819860786462E+002	3.6316860E-001	-2.7038742E+002
3	0	9.458819860660151E+002	3.6305434E-001	-2.7037677E+002
3	0	9.463819860533840E+002	3.6285403E-001	-2.7035205E+002
3	0	9.468819860407530E+002	3.6256057E-001	-2.7038385E+002
3	0	9.473819860281219E+002	3.6221173E-001	-2.7034851E+002
3	0	9.478819860154908E+002	3.6173612E-001	-2.7036267E+002
3	0	9.483819860028598E+002	3.6110079E-001	-2.7038031E+002
3	0	9.488819859902287E+002	3.6061588E-001	-2.7036972E+002
3	0	9.493819859775977E+002	3.6051878E-001	-2.7038031E+002
3	0	9.498819859649666E+002	3.6033583E-001	-2.7035559E+002
3	0	9.503819859523355E+002	3.6002582E-001	-2.7037677E+002
3	0	9.508819859397045E+002	3.5963383E-001	-2.7036972E+002
3	0	9.513819859270734E+002	3.5920548E-001	-2.7035559E+002
3	0	9.518819859144423E+002	3.5865900E-001	-2.7037677E+002
3	0	9.523819859018113E+002	3.5801089E-001	-2.7035559E+002
3	0	9.528819858891802E+002	3.5749254E-001	-2.7040860E+002
3	0	9.533819858765492E+002	3.5738945E-001	-2.7039801E+002
3	0	9.538819858639181E+002	3.5722563E-001	-2.7036972E+002
3	0	9.543819858512870E+002	3.5698807E-001	-2.7035559E+002
3	0	9.548819858386560E+002	3.5662970E-001	-2.7036972E+002
3	0	9.553819858260249E+002	3.5626015E-001	-2.7037326E+002
3	0	9.558819858133938E+002	3.5581577E-001	-2.7039801E+002
3	0	9.563819858007628E+002	3.5532647E-001	-2.7038385E+002
3	0	9.568819857881317E+002	3.5510799E-001	-2.7035559E+002
3	0	9.573819857755007E+002	3.5529613E-001	-2.7035559E+002
3	0	9.578819857628696E+002	3.5548663E-001	-2.7039801E+002
3	0	9.583819857502385E+002	3.5569105E-001	-2.7040155E+002
3	0	9.588819857376075E+002	3.5583800E-001	-2.7037326E+002
3	0	9.593819857249764E+002	3.5595956E-001	-2.7041214E+002
3	0	9.598819857123453E+002	3.5595477E-001	-2.7036618E+002
3	0	9.603819856997143E+002	3.5578385E-001	-2.7035205E+002
3	0	9.608819856870832E+002	3.5565615E-001	-2.7036972E+002
3	0	9.613819856744522E+002	3.5585025E-001	-2.7039801E+002
3	0	9.618819856618211E+002	3.5593712E-001	-2.7037326E+002
3	0	9.623819856491900E+002	3.5593861E-001	-2.7038385E+002
3	0	9.628819856365590E+002	3.5579842E-001	-2.7037326E+002
3	0	9.633819856239279E+002	3.5564819E-001	-2.7038031E+002
3	0	9.638819856112968E+002	3.5535854E-001	-2.7036618E+002
3	0	9.643819855986658E+002	3.5494667E-001	-2.7036618E+002
3	0	9.648819855860347E+002	3.5464108E-001	-2.7037326E+002
3	0	9.653819855734037E+002	3.5466889E-001	-2.7039093E+002
3	0	9.658819855607726E+002	3.5462284E-001	-2.7036618E+002
3	0	9.663819855481415E+002	3.5448030E-001	-2.7038031E+002
3	0	9.668819855355105E+002	3.5421079E-001	-2.7037677E+002
3	0	9.673819855228794E+002	3.5391083E-001	-2.7038742E+002
3	0	9.678819855102483E+002	3.5345516E-001	-2.7040155E+002
3	0	9.683819854976173E+002	3.5287920E-001	-2.7038385E+002
3	0	9.688819854849862E+002	3.5246211E-001	-2.7036972E+002
3	0	9.693819854723552E+002	3.5233080E-001	-2.7037326E+002
3	0	9.698819854597241E+002	3.5214549E-001	-2.7039447E+002
3	0	9.703819854470930E+002	3.5191941E-001	-2.7038031E+002
3	0	9.708819854344620E+002	3.5160637E-001	-2.7039093E+002
3	0	9.713819854218309E+002	3.5125878E-001	-2.7034851E+002
3	0	9.718819854091998E+002	3.5082150E-001	-2.7039447E+002
3	0	9.723819853965688E+002	3.5026798E-001	-2.7036267E+002
3	0	9.728819853839377E+002	3.4982699E-001	-2.7038742E+002
3	0	9.733819853713067E+002	3.4968802E-001	-2.7037326E+002
3	0	9.738819853586756E+002	3.4947425E-001	-2.7040860E+002
3	0	9.743819853460445E+002	3.4922042E-001	-2.7036972E+002
3	0	9.748819853334135E+002	3.4886932E-001	-2.7037677E+002
3	0	9.753819853207824E+002	3.4852153E-001	-2.7036267E+002
3	0	9.758819853081513E+002	3.4814048E-001	-2.7036618E+002
3	0	9.763819852955203E+002	3.4773630E-001	-2.7040506E+002
3	0	9.768819852828892E+002	3.4753439E-001	-2.7038742E+002
3	0	9.773819852702582E+002	3.4770411E-001	-2.7035559E+002
3	0	9.778819852576271E+002	3.4788373E-001	-2.7039447E+002
3	0	9.783819852449960E+002	3.4806597E-001	-2.7039447E+002
3	0	9.788819852323650E+002	3.4819204E-001	-2.7036972E+002
3	0	9.793819852197339E+002	3.4827155E-001	-2.7038031E+002
3	0	9.798819852071028E+002	3.4825695E-001	-2.7037677E+002
3	0	9.803819851944718E+002	3.4811446E-001	-2.7037326E+002
3	0	9.808819851818407E+002	3.4803495E-001	-2.7038385E+002
3	0	9.813819851692097E+002	3.4819391E-001	-2.7036618E+002
3	0	9.818819851565786E+002	3.4827870E-001	-2.7038742E+002
3	0	9.823819851439475E+002	3.4827840E-001	-2.7037677E+002
3	0	9.828819851313165E+002	3.4815198E-001	-2.7038385E+002
3	0	9.833819851186854E+002	3.4799656E-001	-2.7039093E+002
3	0	9.838819851060543E+002	3.4774077E-001	-2.7039093E+002
3	0	9.843819850934233E+002	3.4733817E-001	-2.7035913E+002
3	0	9.848819850807922E+002	3.4701023E-001	-2.7036618E+002
3	0	9.853819850681612E+002	3.4696117E-001	-2.7038031E+002
3	0	9.858819850555301E+002	3.4685555E-001	-2.7035913E+002
3	0	9.863819850428990E+002	3.4669682E-001	-2.7038031E+002
3	0	9.868819850302680E+002	3.4643942E-001	-2.7040506E+002
3	0	9.873819850176369E+002	3.4616932E-001	-2.7038031E+002
3	0	9.878819850050058E+002	3.4577668E-001	-2.7039801E+002
3	0	9.883819849923748E+002	3.4528533E-001	-2.7038385E+002
3	0	9.888819849797437E+002	3.4488407E-001	-2.7036618E+002
3	0	9.893819849671127E+002	3.4476998E-001	-2.7038031E+002
3	0	9.898819849544816E+002	3.4460750E-001	-2.7039093E+002
3	0	9.903819849418505E+002	3.4440422E-001	-2.7038385E+002
3	0	9.908819849292195E+002	3.4411860E-001	-2.7037326E+002
3	0	9.913819849165884E+002	3.4366345E-001	-2.7038742E+002
3	0	9.918819849039573E+002	3.4335074E-001	-2.7039801E+002
3	0	9.919075849033106E+002	3.4316805E-001	-2.7038742E+002