EC-Lab ASCII FILE
Nb header lines : 48                          

Open Circuit Voltage

Run on channel : 1 (SN 81504)
User : 
CE vs. WE compliance from -10 V to 10 V
Electrode connection : standard
Potential control : Ewe
Ewe ctrl range : min = -2.50 V, max = 2.50 V
Safety Limits :
	Do not start on E overload
Acquisition started on : 05/07/2026 18:41:54.331
Loaded Setting File :  C:\PEM-WE_measurements\2026\372_IV_IV IrOx, 5 min Pt, 30 min C, etched cathode\new station\Loopeis new\1,46 V different time gaps open cell\Loopeis 1,46V_90s_2_PEIS from 65kHz to 10kHz.mps
Saved on :
	File : L_17_Loopeis 1,46V_90s_2_PEIS from 65kHz to 10kHz_04_OCV_C01.mpr
	Directory : C:\PEM-WE_measurements\2026\372_IV_IV IrOx, 5 min Pt, 30 min C, etched cathode\new station\Loopeis new\1,46 V different time gaps open cell\
	Host : 192.168.0.2
Device : SP-150e (SN .005491)
Address : 192.168.0.91
EC-LAB for windows v11.71 (software)
Internet server v28.00 (firmware)
Command interpretor v14.01 (firmware)
Electrode material : 
Initial state : 
Electrolyte : 
Comments : 
Current amplifier : SP-150eB-20A
Electrode surface area : 0.001 cm²
Characteristic mass : 0.001 g
Equivalent Weight : 0.000 g/eq.
Density : 0.000 g/cm3
Volume (V) : 0.001 cm³
Record Analogic IN 1
Text export
   Mode : Standard
   Time format : Elapsed
Cycle Definition : Charge/Discharge alternance
tR (h:m:s)          0:01:30.0000        
dER/dt (mV/h)       1.0                 
record              <Ewe>               
dER (mV)            10.00               
dtR (s)             0.5000              
E range min (V)     -2.500              
E range max (V)     2.500               

mode	error	time/s	<Ewe/V>	Analog IN 1/V	
3	0	1.810333987421473E+002	1.0577431E+000	9.9292607E-005
3	0	1.815333987295162E+002	1.2184998E+000	-5.3391734E-005
3	0	1.820333987168851E+002	1.1737034E+000	-9.1562819E-005
3	0	1.825333987042541E+002	1.0804018E+000	-5.3391734E-005
3	0	1.830333986916230E+002	7.6374263E-001	-1.5220648E-005
3	0	1.835333986789919E+002	3.9226666E-001	2.2950437E-005
3	0	1.840333986663609E+002	3.1140873E-001	-1.5220648E-005
3	0	1.845333986537298E+002	3.0104098E-001	3.8648941E-006
3	0	1.850333986410988E+002	2.9388720E-001	-1.5220648E-005
3	0	1.855333986284677E+002	2.8794327E-001	3.8648941E-006
3	0	1.860333986158366E+002	2.8328693E-001	-1.1064836E-004
3	0	1.865333986032056E+002	2.7969584E-001	-1.5220648E-005
3	0	1.870333985905745E+002	2.7688372E-001	-7.2477276E-005
3	0	1.875333985779434E+002	2.7462214E-001	-1.4881945E-004
3	0	1.880333985653124E+002	2.7276507E-001	2.2950437E-005
3	0	1.885333985526813E+002	2.7119875E-001	-5.3391734E-005
3	0	1.890333985400503E+002	2.6983765E-001	-2.4424717E-004
3	0	1.895333985274192E+002	2.6863027E-001	-9.1562819E-005
3	0	1.900333985147881E+002	2.6754877E-001	-7.2477276E-005
3	0	1.905333985021571E+002	2.6660275E-001	2.2950437E-005
3	0	1.910333984895260E+002	2.6574793E-001	-1.1064836E-004
3	0	1.915333984768949E+002	2.6494467E-001	-5.3391734E-005
3	0	1.920333984642639E+002	2.6419511E-001	-3.4306191E-005
3	0	1.925333984516328E+002	2.6348165E-001	-1.5220648E-005
3	0	1.930333984390018E+002	2.6278993E-001	-1.5220648E-005
3	0	1.935333984263707E+002	2.6210487E-001	-9.1562819E-005
3	0	1.940333984137396E+002	2.6143807E-001	-7.2477276E-005
3	0	1.945333984011086E+002	2.6082227E-001	6.1121522E-005
3	0	1.950333983884775E+002	2.6023251E-001	2.2950437E-005
3	0	1.955333983758464E+002	2.5965023E-001	-3.4306191E-005
3	0	1.960333983632154E+002	2.5908622E-001	-2.2516162E-004
3	0	1.965333983505843E+002	2.5852177E-001	-7.2477276E-005
3	0	1.970333983379533E+002	2.5795680E-001	6.1121522E-005
3	0	1.975333983253222E+002	2.5737530E-001	-3.4306191E-005
3	0	1.980333983126911E+002	2.5680166E-001	-5.3391734E-005
3	0	1.985333983000601E+002	2.5627404E-001	-1.1064836E-004
3	0	1.990333982874290E+002	2.5576019E-001	-1.1064836E-004
3	0	1.995333982747979E+002	2.5524721E-001	-3.4306191E-005
3	0	2.000333982621669E+002	2.5474194E-001	-1.1064836E-004
3	0	2.005333982495358E+002	2.5424317E-001	-1.4881945E-004
3	0	2.010333982369048E+002	2.5373134E-001	-1.2973390E-004
3	0	2.015333982242737E+002	2.5320175E-001	-9.1562819E-005
3	0	2.020333982116426E+002	2.5267401E-001	-2.0607607E-004
3	0	2.025333981990116E+002	2.5218478E-001	-5.3391734E-005
3	0	2.030333981863805E+002	2.5170395E-001	6.1121522E-005
3	0	2.035333981737494E+002	2.5122404E-001	-1.5220648E-005
3	0	2.040333981611184E+002	2.5074357E-001	-3.4306191E-005
3	0	2.045333981484873E+002	2.5026929E-001	-1.1064836E-004
3	0	2.050333981358563E+002	2.4978434E-001	-1.6790499E-004
3	0	2.055333981232252E+002	2.4928577E-001	-1.1064836E-004
3	0	2.060333981105941E+002	2.4879017E-001	-1.5220648E-005
3	0	2.065333980979631E+002	2.4833499E-001	-2.0607607E-004
3	0	2.070333980853320E+002	2.4788243E-001	-1.1064836E-004
3	0	2.075333980727009E+002	2.4742357E-001	1.1837815E-004
3	0	2.080333980600699E+002	2.4697101E-001	4.2035979E-005
3	0	2.085333980474388E+002	2.4652511E-001	2.2950437E-005
3	0	2.090333980348078E+002	2.4606781E-001	-1.6790499E-004
3	0	2.095333980221767E+002	2.4560936E-001	2.2950437E-005
3	0	2.100333980095456E+002	2.4514933E-001	-5.3391734E-005
3	0	2.105333979969146E+002	2.4472313E-001	-3.4306191E-005
3	0	2.110333979842835E+002	2.4430345E-001	6.1121522E-005
3	0	2.115333979716524E+002	2.4388151E-001	3.8648941E-006
3	0	2.120333979590214E+002	2.4346116E-001	-1.5220648E-005
3	0	2.125333979463903E+002	2.4304610E-001	1.5654923E-004
3	0	2.130333979337593E+002	2.4262440E-001	-3.4306191E-005
3	0	2.135333979211282E+002	2.4217543E-001	-1.2973390E-004
3	0	2.140333979084971E+002	2.4174218E-001	4.2035979E-005
3	0	2.145333978958661E+002	2.4134296E-001	-7.2477276E-005
3	0	2.150333978832350E+002	2.4094962E-001	-5.3391734E-005
3	0	2.155333978706039E+002	2.4056217E-001	-5.3391734E-005
3	0	2.160333978579729E+002	2.4017394E-001	-9.1562819E-005
3	0	2.165333978453418E+002	2.3978876E-001	-9.1562819E-005
3	0	2.170333978327108E+002	2.3939329E-001	-5.3391734E-005
3	0	2.175333978200797E+002	2.3897591E-001	8.0207064E-005
3	0	2.180333978074486E+002	2.3857252E-001	2.2950437E-005
3	0	2.185333977948176E+002	2.3821005E-001	-1.5220648E-005
3	0	2.190333977821865E+002	2.3784876E-001	2.2950437E-005
3	0	2.195333977695554E+002	2.3748510E-001	-3.4306191E-005
3	0	2.200333977569244E+002	2.3712140E-001	-5.3391734E-005
3	0	2.205333977442933E+002	2.3676161E-001	-1.5220648E-005
3	0	2.210333977316623E+002	2.3638758E-001	-1.1064836E-004
3	0	2.215333977190312E+002	2.3599979E-001	-5.3391734E-005
3	0	2.220333977064001E+002	2.3562767E-001	-9.1562819E-005
3	0	2.225333976937691E+002	2.3530008E-001	1.3746369E-004
3	0	2.230333976811380E+002	2.3496620E-001	-3.4306191E-005
3	0	2.235333976685070E+002	2.3463006E-001	-9.1562819E-005
3	0	2.240333976558759E+002	2.3430036E-001	2.2950437E-005
3	0	2.245333976432448E+002	2.3397069E-001	-1.5220648E-005
3	0	2.250333976306138E+002	2.3362650E-001	3.8648941E-006
3	0	2.255333976179827E+002	2.3326774E-001	-3.4306191E-005
3	0	2.260333976053516E+002	2.3292169E-001	4.2035979E-005
3	0	2.265333975927206E+002	2.3261102E-001	2.2950437E-005
3	0	2.270333975800895E+002	2.3230632E-001	-1.4881945E-004
3	0	2.275333975674585E+002	2.3200141E-001	6.1121522E-005
3	0	2.280333975548274E+002	2.3169549E-001	2.2950437E-005
3	0	2.285333975421963E+002	2.3138773E-001	3.8648941E-006
3	0	2.290333975295653E+002	2.3106986E-001	-1.6790499E-004
3	0	2.295333975169342E+002	2.3074242E-001	-9.1562819E-005
3	0	2.300333975043031E+002	2.3042582E-001	2.2950437E-005
3	0	2.305333974916721E+002	2.3014064E-001	2.2950437E-005
3	0	2.310333974790410E+002	2.2985782E-001	3.8648941E-006
3	0	2.315333974664100E+002	2.2958063E-001	-5.3391734E-005
3	0	2.320333974537789E+002	2.2930111E-001	6.1121522E-005
3	0	2.325333974411478E+002	2.2902445E-001	-1.2973390E-004
3	0	2.330333974285168E+002	2.2873171E-001	-1.8699054E-004
3	0	2.335333974158857E+002	2.2841756E-001	2.2950437E-005
3	0	2.340333974032546E+002	2.2811395E-001	-5.3391734E-005
3	0	2.345333973906236E+002	2.2785199E-001	-7.2477276E-005
3	0	2.350333973779925E+002	2.2759534E-001	3.8648941E-006
3	0	2.355333973653615E+002	2.2733063E-001	-1.4881945E-004
3	0	2.360333973527304E+002	2.2706981E-001	-5.3391734E-005
3	0	2.365333973400993E+002	2.2681187E-001	-1.2973390E-004
3	0	2.370333973274683E+002	2.2654371E-001	3.8648941E-006
3	0	2.375333973148372E+002	2.2625057E-001	-5.3391734E-005
3	0	2.380333973022061E+002	2.2597378E-001	-5.3391734E-005
3	0	2.385333972895751E+002	2.2574157E-001	-1.6790499E-004
3	0	2.390333972769440E+002	2.2550920E-001	-3.4306191E-005
3	0	2.395333972643130E+002	2.2527471E-001	-5.3391734E-005
3	0	2.400333972516819E+002	2.2504008E-001	-7.2477276E-005
3	0	2.405333972390508E+002	2.2481546E-001	-3.4306191E-005
3	0	2.410333972264198E+002	2.2457418E-001	4.2035979E-005
3	0	2.415333972137887E+002	2.2431314E-001	-1.1064836E-004
3	0	2.420333972011576E+002	2.2406097E-001	3.8648941E-006
3	0	2.425333971885266E+002	2.2385074E-001	-7.2477276E-005
3	0	2.430333971758955E+002	2.2364223E-001	-5.3391734E-005
3	0	2.435333971632645E+002	2.2342712E-001	-1.5220648E-005
3	0	2.440333971506334E+002	2.2321296E-001	-9.1562819E-005
3	0	2.445333971380023E+002	2.2300331E-001	-1.1064836E-004
3	0	2.450333971253713E+002	2.2277910E-001	9.9292607E-005
3	0	2.455333971127402E+002	2.2253218E-001	4.2035979E-005
3	0	2.460333971001091E+002	2.2230735E-001	-1.2973390E-004
3	0	2.465333970874781E+002	2.2211507E-001	-9.1562819E-005
3	0	2.470333970748470E+002	2.2191761E-001	8.0207064E-005
3	0	2.475333970622160E+002	2.2172518E-001	-1.5220648E-005
3	0	2.480333970495849E+002	2.2152440E-001	-1.5220648E-005
3	0	2.485333970369538E+002	2.2133136E-001	-3.4306191E-005
3	0	2.490333970243228E+002	2.2112562E-001	-7.2477276E-005
3	0	2.495333970116917E+002	2.2090720E-001	-9.1562819E-005
3	0	2.500333969990606E+002	2.2069269E-001	2.2950437E-005
3	0	2.505333969864296E+002	2.2051978E-001	-7.2477276E-005
3	0	2.510333969737985E+002	2.2034107E-001	-1.5220648E-005
3	0	2.515333969611675E+002	2.2016060E-001	8.0207064E-005
3	0	2.520333969485364E+002	2.1997860E-001	-1.2973390E-004
3	0	2.525333969359053E+002	2.1980275E-001	-9.1562819E-005
3	0	2.530333969232743E+002	2.1961445E-001	-2.0607607E-004
3	0	2.535333969106432E+002	2.1940584E-001	3.8648941E-006
3	0	2.540333968980121E+002	2.1920101E-001	-3.4306191E-005
3	0	2.545333968853811E+002	2.1904001E-001	-7.2477276E-005
3	0	2.550333968727500E+002	2.1887717E-001	-5.3391734E-005
3	0	2.555333968601190E+002	2.1870337E-001	-3.4306191E-005
3	0	2.560333968474879E+002	2.1853548E-001	-1.1064836E-004
3	0	2.565333968348568E+002	2.1837538E-001	3.8648941E-006
3	0	2.570333968222258E+002	2.1820152E-001	2.2950437E-005
3	0	2.575333968095947E+002	2.1800032E-001	-1.2973390E-004
3	0	2.580333967969636E+002	2.1781290E-001	-7.2477276E-005
3	0	2.585333967843326E+002	2.1766764E-001	-9.1562819E-005
3	0	2.590333967717015E+002	2.1751647E-001	3.8648941E-006
3	0	2.595333967590705E+002	2.1736607E-001	-3.4306191E-005
3	0	2.600333967464394E+002	2.1721989E-001	3.8648941E-006
3	0	2.605333967338083E+002	2.1707799E-001	3.8648941E-006
3	0	2.610333967211773E+002	2.1691632E-001	-1.1064836E-004
3	0	2.615333967085462E+002	2.1673411E-001	-3.4306191E-005
3	0	2.620333966959151E+002	2.1656202E-001	-3.4306191E-005
3	0	2.625333966832841E+002	2.1643209E-001	-1.5220648E-005
3	0	2.630333966706530E+002	2.1629259E-001	-5.3391734E-005
3	0	2.635333966580220E+002	2.1615504E-001	-5.3391734E-005
3	0	2.640333966453909E+002	2.1601515E-001	-9.1562819E-005
3	0	2.645333966327598E+002	2.1588197E-001	4.2035979E-005
3	0	2.650333966201288E+002	2.1573746E-001	-9.1562819E-005
3	0	2.655333966074977E+002	2.1557018E-001	-1.5220648E-005
3	0	2.660333965948666E+002	2.1540944E-001	-1.2973390E-004
3	0	2.665333965822356E+002	2.1529135E-001	-1.4881945E-004
3	0	2.670333965696045E+002	2.1516903E-001	-9.1562819E-005
3	0	2.675333965569735E+002	2.1504286E-001	-1.5220648E-005
3	0	2.680333965443424E+002	2.1491493E-001	-1.2973390E-004
3	0	2.685333965317113E+002	2.1479119E-001	-1.5220648E-005
3	0	2.690333965190803E+002	2.1465211E-001	3.8648941E-006
3	0	2.695333965064492E+002	2.1449733E-001	-7.2477276E-005
3	0	2.700333964938181E+002	2.1434198E-001	-3.4306191E-005
3	0	2.705333964811871E+002	2.1423188E-001	-1.1064836E-004
3	0	2.705679964803130E+002	2.1416453E-001	-2.0607607E-004