EC-Lab ASCII FILE
Nb header lines : 55                          

Open Circuit Voltage

Run on channel : 1 (SN 81504)
User : 
CE vs. WE compliance from -10 V to 10 V
Electrode connection : standard
Potential control : Ewe
Ewe ctrl range : min = -2.50 V, max = 2.50 V
Safety Limits :
	Do not start on E overload
Acquisition started on : 05/10/2026 06:22:15.566
Loaded Setting File :  C:\PEM-WE_measurements\2026\372_IV_IV IrOx, 5 min Pt, 30 min C, etched cathode\new station\Loopeis new\1,46 V different time gaps closed cell\Loopeis 1,46V_120s_3_PEIS from 6500Hz to 1000Hz.mps
Saved on :
	File : L_23_Loopeis 1,46V_120s_3_PEIS from 6500Hz to 1000Hz_20_OCV_C01.mpr
	Directory : C:\PEM-WE_measurements\2026\372_IV_IV IrOx, 5 min Pt, 30 min C, etched cathode\new station\Loopeis new\1,46 V different time gaps closed cell\
	Host : 192.168.0.2
Device : SP-150e (SN .005491)
Address : 192.168.0.91
EC-LAB for windows v11.71 (software)
Internet server v28.00 (firmware)
Command interpretor v14.01 (firmware)
Electrode material : 
Initial state : 
Electrolyte : 
Comments : 
Current amplifier : SP-150eB-20A
Electrode surface area : 0.001 cm²
Characteristic mass : 0.001 g
Equivalent Weight : 0.000 g/eq.
Density : 0.000 g/cm3
Volume (V) : 0.001 cm³
Record Analogic IN 1
Text export
   Mode : Standard
   Time format : Elapsed
Cycle Definition : Charge/Discharge alternance
External device configuration :
   device type : Temperature Probe
   device name : Other
   Analog IN 1 : 
      unit : T/Â°C
      max : 100.000 at 2.000 V
      min : 0.000 at 1.460 V
tR (h:m:s)          0:02:0.0000         
dER/dt (mV/h)       1.0                 
record              <Ewe>               
dER (mV)            10.00               
dtR (s)             0.5000              
E range min (V)     -2.500              
E range max (V)     2.500               

mode	error	time/s	<Ewe/V>	Analog IN 1/V	
3	0	1.537043578019220E+003	1.1251346E+000	-2.7038742E+002
3	0	1.537543578006589E+003	1.2591978E+000	-2.7035559E+002
3	0	1.538043577993958E+003	1.2577642E+000	-2.7040506E+002
3	0	1.538543577981327E+003	1.2512641E+000	-2.7036618E+002
3	0	1.539043577968696E+003	1.2377625E+000	-2.7038742E+002
3	0	1.539543577956065E+003	1.2142289E+000	-2.7038742E+002
3	0	1.540043577943434E+003	1.1754428E+000	-2.7036972E+002
3	0	1.540543577930803E+003	1.1080269E+000	-2.7036972E+002
3	0	1.541043577918172E+003	9.4213098E-001	-2.7037677E+002
3	0	1.541543577905541E+003	6.0453880E-001	-2.7039801E+002
3	0	1.542043577892910E+003	4.5806506E-001	-2.7038742E+002
3	0	1.542543577880278E+003	4.0823218E-001	-2.7037326E+002
3	0	1.543043577867647E+003	3.9320856E-001	-2.7035559E+002
3	0	1.543543577855016E+003	3.8760945E-001	-2.7037677E+002
3	0	1.544043577842385E+003	3.8425934E-001	-2.7037677E+002
3	0	1.544543577829754E+003	3.8133988E-001	-2.7037326E+002
3	0	1.545043577817123E+003	3.7860739E-001	-2.7038385E+002
3	0	1.545543577804492E+003	3.7669513E-001	-2.7036618E+002
3	0	1.546043577791861E+003	3.7571406E-001	-2.7036972E+002
3	0	1.546543577779230E+003	3.7471730E-001	-2.7037677E+002
3	0	1.547043577766599E+003	3.7356725E-001	-2.7040155E+002
3	0	1.547543577753968E+003	3.7255663E-001	-2.7037677E+002
3	0	1.548043577741337E+003	3.7178099E-001	-2.7037677E+002
3	0	1.548543577728706E+003	3.7084839E-001	-2.7036267E+002
3	0	1.549043577716075E+003	3.6998183E-001	-2.7038385E+002
3	0	1.549543577703444E+003	3.6978230E-001	-2.7038031E+002
3	0	1.550043577690813E+003	3.7028846E-001	-2.7038742E+002
3	0	1.550543577678181E+003	3.7071466E-001	-2.7038742E+002
3	0	1.551043577665550E+003	3.7103266E-001	-2.7036618E+002
3	0	1.551543577652919E+003	3.7151414E-001	-2.7039447E+002
3	0	1.552043577640288E+003	3.7208295E-001	-2.7039093E+002
3	0	1.552543577627657E+003	3.7249747E-001	-2.7037326E+002
3	0	1.553043577615026E+003	3.7281197E-001	-2.7040860E+002
3	0	1.553543577602395E+003	3.7357616E-001	-2.7035559E+002
3	0	1.554043577589764E+003	3.7475041E-001	-2.7039801E+002
3	0	1.554543577577133E+003	3.7561733E-001	-2.7038031E+002
3	0	1.555043577564502E+003	3.7616116E-001	-2.7039093E+002
3	0	1.555543577551871E+003	3.7661377E-001	-2.7038385E+002
3	0	1.556043577539240E+003	3.7705487E-001	-2.7036267E+002
3	0	1.556543577526609E+003	3.7720028E-001	-2.7039093E+002
3	0	1.557043577513978E+003	3.7720260E-001	-2.7038031E+002
3	0	1.557543577501347E+003	3.7758794E-001	-2.7035205E+002
3	0	1.558043577488716E+003	3.7843099E-001	-2.7036267E+002
3	0	1.558543577476084E+003	3.7901163E-001	-2.7036972E+002
3	0	1.559043577463453E+003	3.7925404E-001	-2.7039447E+002
3	0	1.559543577450822E+003	3.7948078E-001	-2.7039801E+002
3	0	1.560043577438191E+003	3.7950116E-001	-2.7040860E+002
3	0	1.560543577425560E+003	3.7944943E-001	-2.7036972E+002
3	0	1.561043577412929E+003	3.7914866E-001	-2.7039447E+002
3	0	1.561543577400298E+003	3.7931573E-001	-2.7038031E+002
3	0	1.562043577387667E+003	3.7988675E-001	-2.7037677E+002
3	0	1.562543577375036E+003	3.8021725E-001	-2.7039093E+002
3	0	1.563043577362405E+003	3.8022426E-001	-2.7036972E+002
3	0	1.563543577349774E+003	3.8016811E-001	-2.7035913E+002
3	0	1.564043577337143E+003	3.8012251E-001	-2.7037677E+002
3	0	1.564543577324512E+003	3.7983763E-001	-2.7036267E+002
3	0	1.565043577311881E+003	3.7930021E-001	-2.7040860E+002
3	0	1.565543577299250E+003	3.7917936E-001	-2.7034497E+002
3	0	1.566043577286619E+003	3.7950280E-001	-2.7037677E+002
3	0	1.566543577273987E+003	3.7958995E-001	-2.7038742E+002
3	0	1.567043577261356E+003	3.7942705E-001	-2.7037677E+002
3	0	1.567543577248725E+003	3.7919399E-001	-2.7038385E+002
3	0	1.568043577236094E+003	3.7898964E-001	-2.7038742E+002
3	0	1.568543577223463E+003	3.7853718E-001	-2.7038031E+002
3	0	1.569043577210832E+003	3.7800130E-001	-2.7037326E+002
3	0	1.569543577198201E+003	3.7793481E-001	-2.7037677E+002
3	0	1.570043577185570E+003	3.7841406E-001	-2.7040506E+002
3	0	1.570543577172939E+003	3.7884772E-001	-2.7036972E+002
3	0	1.571043577160308E+003	3.7914652E-001	-2.7038742E+002
3	0	1.571543577147677E+003	3.7947628E-001	-2.7038742E+002
3	0	1.572043577135046E+003	3.7988275E-001	-2.7039093E+002
3	0	1.572543577122415E+003	3.8012472E-001	-2.7038385E+002
3	0	1.573043577109784E+003	3.8022721E-001	-2.7037326E+002
3	0	1.573543577097153E+003	3.8068721E-001	-2.7038385E+002
3	0	1.574043577084522E+003	3.8152447E-001	-2.7038742E+002
3	0	1.574543577071890E+003	3.8211507E-001	-2.7037326E+002
3	0	1.575043577059259E+003	3.8239497E-001	-2.7037326E+002
3	0	1.575543577046628E+003	3.8254696E-001	-2.7036267E+002
3	0	1.576043577033997E+003	3.8266772E-001	-2.7038385E+002
3	0	1.576543577021366E+003	3.8253811E-001	-2.7039447E+002
3	0	1.577043577008735E+003	3.8217798E-001	-2.7038385E+002
3	0	1.577543576996104E+003	3.8213786E-001	-2.7039447E+002
3	0	1.578043576983473E+003	3.8251969E-001	-2.7038385E+002
3	0	1.578543576970842E+003	3.8271144E-001	-2.7036618E+002
3	0	1.579043576958211E+003	3.8263226E-001	-2.7035205E+002
3	0	1.579543576945580E+003	3.8247210E-001	-2.7035205E+002
3	0	1.580043576932949E+003	3.8223150E-001	-2.7038385E+002
3	0	1.580543576920318E+003	3.8179135E-001	-2.7037326E+002
3	0	1.581043576907687E+003	3.8120782E-001	-2.7039801E+002
3	0	1.581543576895056E+003	3.8093868E-001	-2.7037326E+002
3	0	1.582043576882425E+003	3.8108730E-001	-2.7039447E+002
3	0	1.582543576869793E+003	3.8103539E-001	-2.7037677E+002
3	0	1.583043576857162E+003	3.8069943E-001	-2.7038385E+002
3	0	1.583543576844531E+003	3.8029417E-001	-2.7038031E+002
3	0	1.584043576831900E+003	3.7983903E-001	-2.7036972E+002
3	0	1.584543576819269E+003	3.7922311E-001	-2.7037326E+002
3	0	1.585043576806638E+003	3.7844840E-001	-2.7038031E+002
3	0	1.585543576794007E+003	3.7803274E-001	-2.7036267E+002
3	0	1.586043576781376E+003	3.7796822E-001	-2.7038385E+002
3	0	1.586543576768745E+003	3.7776047E-001	-2.7039447E+002
3	0	1.587043576756114E+003	3.7729982E-001	-2.7040155E+002
3	0	1.587543576743483E+003	3.7684387E-001	-2.7038742E+002
3	0	1.588043576730852E+003	3.7634563E-001	-2.7039093E+002
3	0	1.588543576718221E+003	3.7564439E-001	-2.7036972E+002
3	0	1.589043576705590E+003	3.7486070E-001	-2.7037326E+002
3	0	1.589543576692959E+003	3.7448072E-001	-2.7038742E+002
3	0	1.590043576680328E+003	3.7459904E-001	-2.7040506E+002
3	0	1.590543576667696E+003	3.7466919E-001	-2.7036972E+002
3	0	1.591043576655065E+003	3.7462392E-001	-2.7037677E+002
3	0	1.591543576642434E+003	3.7460738E-001	-2.7038385E+002
3	0	1.592043576629803E+003	3.7465593E-001	-2.7040155E+002
3	0	1.592543576617172E+003	3.7464604E-001	-2.7039093E+002
3	0	1.593043576604541E+003	3.7458107E-001	-2.7039801E+002
3	0	1.593543576591910E+003	3.7476417E-001	-2.7036267E+002
3	0	1.594043576579279E+003	3.7528577E-001	-2.7037677E+002
3	0	1.594543576566648E+003	3.7559265E-001	-2.7037677E+002
3	0	1.595043576554017E+003	3.7567037E-001	-2.7039801E+002
3	0	1.595543576541386E+003	3.7565976E-001	-2.7038031E+002
3	0	1.596043576528755E+003	3.7558064E-001	-2.7039801E+002
3	0	1.596543576516124E+003	3.7529439E-001	-2.7037326E+002
3	0	1.597043576503493E+003	3.7486166E-001	-2.7037326E+002
3	0	1.597543576490862E+003	3.7467781E-001	-2.7038031E+002
3	0	1.598043576478231E+003	3.7481993E-001	-2.7035559E+002
3	0	1.598543576465599E+003	3.7478912E-001	-2.7035913E+002
3	0	1.599043576452968E+003	3.7453699E-001	-2.7039447E+002
3	0	1.599543576440337E+003	3.7423912E-001	-2.7036972E+002
3	0	1.600043576427706E+003	3.7392122E-001	-2.7039801E+002
3	0	1.600543576415075E+003	3.7343842E-001	-2.7038742E+002
3	0	1.601043576402444E+003	3.7280872E-001	-2.7039093E+002
3	0	1.601543576389813E+003	3.7242019E-001	-2.7040506E+002
3	0	1.602043576377182E+003	3.7237787E-001	-2.7035913E+002
3	0	1.602543576364551E+003	3.7219319E-001	-2.7039447E+002
3	0	1.603043576351920E+003	3.7179551E-001	-2.7036267E+002
3	0	1.603543576339289E+003	3.7141618E-001	-2.7036267E+002
3	0	1.604043576326658E+003	3.7100855E-001	-2.7037677E+002
3	0	1.604543576314027E+003	3.7045687E-001	-2.7036972E+002
3	0	1.605043576301396E+003	3.6975476E-001	-2.7038742E+002
3	0	1.605543576288765E+003	3.6933142E-001	-2.7039447E+002
3	0	1.606043576276134E+003	3.6926311E-001	-2.7036618E+002
3	0	1.606543576263502E+003	3.6907414E-001	-2.7036972E+002
3	0	1.607043576250871E+003	3.6866316E-001	-2.7038385E+002
3	0	1.607543576238240E+003	3.6823323E-001	-2.7040506E+002
3	0	1.608043576225609E+003	3.6778709E-001	-2.7037326E+002
3	0	1.608543576212978E+003	3.6719540E-001	-2.7040155E+002
3	0	1.609043576200347E+003	3.6651847E-001	-2.7037677E+002
3	0	1.609543576187716E+003	3.6616898E-001	-2.7036618E+002
3	0	1.610043576175085E+003	3.6620641E-001	-2.7038385E+002
3	0	1.610543576162454E+003	3.6621162E-001	-2.7039093E+002
3	0	1.611043576149823E+003	3.6614731E-001	-2.7037677E+002
3	0	1.611543576137192E+003	3.6616436E-001	-2.7038031E+002
3	0	1.612043576124561E+003	3.6625051E-001	-2.7040506E+002
3	0	1.612543576111930E+003	3.6617717E-001	-2.7040506E+002
3	0	1.613043576099299E+003	3.6605710E-001	-2.7035559E+002
3	0	1.613543576086668E+003	3.6617157E-001	-2.7038031E+002
3	0	1.614043576074037E+003	3.6656910E-001	-2.7040155E+002
3	0	1.614543576061405E+003	3.6677638E-001	-2.7038742E+002
3	0	1.615043576048774E+003	3.6679852E-001	-2.7037326E+002
3	0	1.615543576036143E+003	3.6673635E-001	-2.7039093E+002
3	0	1.616043576023512E+003	3.6661544E-001	-2.7039447E+002
3	0	1.616543576010881E+003	3.6633471E-001	-2.7037326E+002
3	0	1.617043575998250E+003	3.6598203E-001	-2.7036618E+002
3	0	1.617543575985619E+003	3.6577126E-001	-2.7039801E+002
3	0	1.618043575972988E+003	3.6589813E-001	-2.7035205E+002
3	0	1.618543575960357E+003	3.6587217E-001	-2.7038742E+002
3	0	1.619043575947726E+003	3.6565125E-001	-2.7037326E+002
3	0	1.619543575935095E+003	3.6535493E-001	-2.7037326E+002
3	0	1.620043575922464E+003	3.6507586E-001	-2.7036618E+002
3	0	1.620543575909833E+003	3.6456320E-001	-2.7037677E+002
3	0	1.621043575897202E+003	3.6400333E-001	-2.7038385E+002
3	0	1.621543575884571E+003	3.6368656E-001	-2.7037677E+002
3	0	1.622043575871940E+003	3.6368385E-001	-2.7040155E+002
3	0	1.622543575859308E+003	3.6354825E-001	-2.7039093E+002
3	0	1.623043575846677E+003	3.6320421E-001	-2.7039801E+002
3	0	1.623543575834046E+003	3.6284351E-001	-2.7036618E+002
3	0	1.624043575821415E+003	3.6247972E-001	-2.7038031E+002
3	0	1.624543575808784E+003	3.6195713E-001	-2.7039801E+002
3	0	1.625043575796153E+003	3.6134294E-001	-2.7035559E+002
3	0	1.625543575783522E+003	3.6094192E-001	-2.7039093E+002
3	0	1.626043575770891E+003	3.6085823E-001	-2.7036267E+002
3	0	1.626543575758260E+003	3.6068138E-001	-2.7036618E+002
3	0	1.627043575745629E+003	3.6037856E-001	-2.7039093E+002
3	0	1.627543575732998E+003	3.6001003E-001	-2.7035913E+002
3	0	1.628043575720367E+003	3.5963351E-001	-2.7038385E+002
3	0	1.628543575707736E+003	3.5909975E-001	-2.7037326E+002
3	0	1.629043575695105E+003	3.5850745E-001	-2.7038742E+002
3	0	1.629543575682474E+003	3.5811204E-001	-2.7038742E+002
3	0	1.630043575669843E+003	3.5811183E-001	-2.7039093E+002
3	0	1.630543575657211E+003	3.5810322E-001	-2.7036267E+002
3	0	1.631043575644580E+003	3.5802570E-001	-2.7038742E+002
3	0	1.631543575631949E+003	3.5799983E-001	-2.7037677E+002
3	0	1.632043575619318E+003	3.5805011E-001	-2.7038742E+002
3	0	1.632543575606687E+003	3.5799775E-001	-2.7040506E+002
3	0	1.633043575594056E+003	3.5788763E-001	-2.7039093E+002
3	0	1.633543575581425E+003	3.5799509E-001	-2.7037677E+002
3	0	1.634043575568794E+003	3.5834306E-001	-2.7036618E+002
3	0	1.634543575556163E+003	3.5857862E-001	-2.7036618E+002
3	0	1.635043575543532E+003	3.5863373E-001	-2.7039093E+002
3	0	1.635543575530901E+003	3.5864192E-001	-2.7037326E+002
3	0	1.636043575518270E+003	3.5858351E-001	-2.7038742E+002
3	0	1.636543575505639E+003	3.5834998E-001	-2.7039093E+002
3	0	1.637043575493008E+003	3.5795388E-001	-2.7038742E+002
3	0	1.637543575480377E+003	3.5773808E-001	-2.7037677E+002
3	0	1.638043575467746E+003	3.5780811E-001	-2.7040506E+002
3	0	1.638543575455114E+003	3.5775742E-001	-2.7038385E+002
3	0	1.639043575442483E+003	3.5755658E-001	-2.7034497E+002
3	0	1.639543575429852E+003	3.5732722E-001	-2.7036618E+002
3	0	1.640043575417221E+003	3.5709557E-001	-2.7035205E+002
3	0	1.640543575404590E+003	3.5669675E-001	-2.7037677E+002
3	0	1.641043575391959E+003	3.5623148E-001	-2.7037677E+002
3	0	1.641543575379328E+003	3.5590929E-001	-2.7036972E+002
3	0	1.642043575366697E+003	3.5585836E-001	-2.7038031E+002
3	0	1.642543575354066E+003	3.5572416E-001	-2.7038742E+002
3	0	1.643043575341435E+003	3.5545599E-001	-2.7039801E+002
3	0	1.643543575328804E+003	3.5511985E-001	-2.7038031E+002
3	0	1.644043575316173E+003	3.5479471E-001	-2.7036972E+002
3	0	1.644543575303542E+003	3.5433343E-001	-2.7037326E+002
3	0	1.645043575290911E+003	3.5376927E-001	-2.7036972E+002
3	0	1.645543575278280E+003	3.5340914E-001	-2.7038385E+002
3	0	1.646043575265649E+003	3.5333505E-001	-2.7040506E+002
3	0	1.646543575253017E+003	3.5319361E-001	-2.7038385E+002
3	0	1.647043575240386E+003	3.5292694E-001	-2.7038031E+002
3	0	1.647543575227755E+003	3.5261795E-001	-2.7039093E+002
3	0	1.648043575215124E+003	3.5229191E-001	-2.7036618E+002
3	0	1.648543575202493E+003	3.5182694E-001	-2.7037326E+002
3	0	1.649043575189862E+003	3.5127270E-001	-2.7038385E+002
3	0	1.649543575177231E+003	3.5092846E-001	-2.7035559E+002
3	0	1.650043575164600E+003	3.5088611E-001	-2.7038031E+002
3	0	1.650543575151969E+003	3.5084152E-001	-2.7039093E+002
3	0	1.651043575139338E+003	3.5076034E-001	-2.7037677E+002
3	0	1.651543575126707E+003	3.5072333E-001	-2.7037677E+002
3	0	1.652043575114076E+003	3.5072929E-001	-2.7039801E+002
3	0	1.652543575101445E+003	3.5072863E-001	-2.7036972E+002
3	0	1.653043575088814E+003	3.5064107E-001	-2.7038742E+002
3	0	1.653543575076183E+003	3.5073471E-001	-2.7038742E+002
3	0	1.654043575063552E+003	3.5110509E-001	-2.7034851E+002
3	0	1.654543575050920E+003	3.5138920E-001	-2.7037677E+002
3	0	1.655043575038289E+003	3.5150221E-001	-2.7039447E+002
3	0	1.655543575025658E+003	3.5153803E-001	-2.7035913E+002
3	0	1.656043575013027E+003	3.5150823E-001	-2.7040155E+002
3	0	1.656543575000396E+003	3.5133532E-001	-2.7039447E+002
3	0	1.656568174999775E+003	3.5119984E-001	-2.7040860E+002