EC-Lab ASCII FILE
Nb header lines : 55                          

Open Circuit Voltage

Run on channel : 1 (SN 81504)
User : 
CE vs. WE compliance from -10 V to 10 V
Electrode connection : standard
Potential control : Ewe
Ewe ctrl range : min = -2.50 V, max = 2.50 V
Safety Limits :
	Do not start on E overload
Acquisition started on : 05/07/2026 21:45:35.104
Loaded Setting File :  C:\PEM-WE_measurements\2026\372_IV_IV IrOx, 5 min Pt, 30 min C, etched cathode\new station\Loopeis new\1,46 V different time gaps open cell\Loopeis 1,46V_120s_4_PEIS from 650Hz to 100Hz.mps
Saved on :
	File : L_24_Loopeis 1,46V_120s_4_PEIS from 650Hz to 100Hz_12_OCV_C01.mpr
	Directory : C:\PEM-WE_measurements\2026\372_IV_IV IrOx, 5 min Pt, 30 min C, etched cathode\new station\Loopeis new\1,46 V different time gaps open cell\
	Host : 192.168.0.2
Device : SP-150e (SN .005491)
Address : 192.168.0.91
EC-LAB for windows v11.71 (software)
Internet server v28.00 (firmware)
Command interpretor v14.01 (firmware)
Electrode material : 
Initial state : 
Electrolyte : 
Comments : 
Current amplifier : SP-150eB-20A
Electrode surface area : 0.001 cm²
Characteristic mass : 0.001 g
Equivalent Weight : 0.000 g/eq.
Density : 0.000 g/cm3
Volume (V) : 0.001 cm³
Record Analogic IN 1
Text export
   Mode : Standard
   Time format : Elapsed
Cycle Definition : Charge/Discharge alternance
External device configuration :
   device type : Temperature Probe
   device name : Other
   Analog IN 1 : 
      unit : T/Â°C
      max : 100.000 at 2.000 V
      min : 0.000 at 1.460 V
tR (h:m:s)          0:02:0.0000         
dER/dt (mV/h)       1.0                 
record              <Ewe>               
dER (mV)            10.00               
dtR (s)             0.5000              
E range min (V)     -2.500              
E range max (V)     2.500               

mode	error	time/s	<Ewe/V>	Analog IN 1/V	
3	0	8.726179879339907E+002	9.5276105E-001	-2.7038031E+002
3	0	8.731179879213596E+002	1.1445279E+000	-2.7039447E+002
3	0	8.736179879087285E+002	8.3598763E-001	-2.7038385E+002
3	0	8.741179878960975E+002	4.1808215E-001	-2.7038385E+002
3	0	8.746179878834664E+002	3.2147872E-001	-2.7038742E+002
3	0	8.751179878708354E+002	3.1020018E-001	-2.7038031E+002
3	0	8.756179878582043E+002	3.0350450E-001	-2.7038742E+002
3	0	8.761179878455732E+002	2.9785448E-001	-2.7038385E+002
3	0	8.766179878329422E+002	2.9341599E-001	-2.7038031E+002
3	0	8.771179878203111E+002	2.8994763E-001	-2.7041568E+002
3	0	8.776179878076800E+002	2.8720346E-001	-2.7038385E+002
3	0	8.781179877950490E+002	2.8498641E-001	-2.7038385E+002
3	0	8.786179877824179E+002	2.8314731E-001	-2.7037326E+002
3	0	8.791179877697869E+002	2.8157899E-001	-2.7038031E+002
3	0	8.796179877571558E+002	2.8021842E-001	-2.7038031E+002
3	0	8.801179877445247E+002	2.7905574E-001	-2.7040860E+002
3	0	8.806179877318937E+002	2.7802584E-001	-2.7039447E+002
3	0	8.811179877192626E+002	2.7709672E-001	-2.7039093E+002
3	0	8.816179877066315E+002	2.7623475E-001	-2.7040155E+002
3	0	8.821179876940005E+002	2.7543810E-001	-2.7037326E+002
3	0	8.826179876813694E+002	2.7468535E-001	-2.7036618E+002
3	0	8.831179876687384E+002	2.7395004E-001	-2.7036618E+002
3	0	8.836179876561073E+002	2.7323896E-001	-2.7038031E+002
3	0	8.841179876434762E+002	2.7258202E-001	-2.7038031E+002
3	0	8.846179876308452E+002	2.7197865E-001	-2.7038031E+002
3	0	8.851179876182141E+002	2.7138570E-001	-2.7036267E+002
3	0	8.856179876055830E+002	2.7081141E-001	-2.7036618E+002
3	0	8.861179875929520E+002	2.7023795E-001	-2.7036267E+002
3	0	8.866179875803209E+002	2.6967567E-001	-2.7034851E+002
3	0	8.871179875676899E+002	2.6910311E-001	-2.7038031E+002
3	0	8.876179875550588E+002	2.6852733E-001	-2.7039447E+002
3	0	8.881179875424277E+002	2.6799133E-001	-2.7039093E+002
3	0	8.886179875297967E+002	2.6747948E-001	-2.7038385E+002
3	0	8.891179875171656E+002	2.6697299E-001	-2.7037326E+002
3	0	8.896179875045345E+002	2.6646513E-001	-2.7039093E+002
3	0	8.901179874919035E+002	2.6597127E-001	-2.7038742E+002
3	0	8.906179874792724E+002	2.6547015E-001	-2.7038031E+002
3	0	8.911179874666414E+002	2.6495275E-001	-2.7037326E+002
3	0	8.916179874540103E+002	2.6443139E-001	-2.7038385E+002
3	0	8.921179874413792E+002	2.6395220E-001	-2.7039093E+002
3	0	8.926179874287482E+002	2.6349455E-001	-2.7036972E+002
3	0	8.931179874161171E+002	2.6302987E-001	-2.7039447E+002
3	0	8.936179874034860E+002	2.6257190E-001	-2.7037677E+002
3	0	8.941179873908550E+002	2.6211593E-001	-2.7042273E+002
3	0	8.946179873782239E+002	2.6164788E-001	-2.7040506E+002
3	0	8.951179873655929E+002	2.6117209E-001	-2.7036618E+002
3	0	8.956179873529618E+002	2.6068392E-001	-2.7037326E+002
3	0	8.961179873403307E+002	2.6023585E-001	-2.7038385E+002
3	0	8.966179873276997E+002	2.5980255E-001	-2.7037326E+002
3	0	8.971179873150686E+002	2.5937402E-001	-2.7038385E+002
3	0	8.976179873024375E+002	2.5894243E-001	-2.7036972E+002
3	0	8.981179872898065E+002	2.5852069E-001	-2.7036972E+002
3	0	8.986179872771754E+002	2.5809592E-001	-2.7037326E+002
3	0	8.991179872645444E+002	2.5764540E-001	-2.7035913E+002
3	0	8.996179872519133E+002	2.5718993E-001	-2.7036972E+002
3	0	9.001179872392822E+002	2.5678033E-001	-2.7036972E+002
3	0	9.006179872266512E+002	2.5638217E-001	-2.7039093E+002
3	0	9.011179872140201E+002	2.5598693E-001	-2.7039093E+002
3	0	9.016179872013890E+002	2.5558850E-001	-2.7039447E+002
3	0	9.021179871887580E+002	2.5520143E-001	-2.7035205E+002
3	0	9.026179871761269E+002	2.5480911E-001	-2.7037326E+002
3	0	9.031179871634959E+002	2.5439796E-001	-2.7039447E+002
3	0	9.036179871508648E+002	2.5397295E-001	-2.7036267E+002
3	0	9.041179871382337E+002	2.5359061E-001	-2.7039447E+002
3	0	9.046179871256027E+002	2.5322041E-001	-2.7038742E+002
3	0	9.051179871129716E+002	2.5285861E-001	-2.7036267E+002
3	0	9.056179871003405E+002	2.5248539E-001	-2.7036972E+002
3	0	9.061179870877095E+002	2.5211772E-001	-2.7038742E+002
3	0	9.066179870750784E+002	2.5175226E-001	-2.7036972E+002
3	0	9.071179870624474E+002	2.5135630E-001	-2.7036972E+002
3	0	9.076179870498163E+002	2.5096175E-001	-2.7039447E+002
3	0	9.081179870371852E+002	2.5060609E-001	-2.7040155E+002
3	0	9.086179870245542E+002	2.5027043E-001	-2.7037326E+002
3	0	9.091179870119231E+002	2.4993251E-001	-2.7037326E+002
3	0	9.096179869992920E+002	2.4959549E-001	-2.7037677E+002
3	0	9.101179869866610E+002	2.4926546E-001	-2.7038031E+002
3	0	9.106179869740299E+002	2.4892347E-001	-2.7036972E+002
3	0	9.111179869613989E+002	2.4856199E-001	-2.7037677E+002
3	0	9.116179869487678E+002	2.4819382E-001	-2.7035559E+002
3	0	9.121179869361367E+002	2.4787465E-001	-2.7037677E+002
3	0	9.126179869235057E+002	2.4756634E-001	-2.7038742E+002
3	0	9.131179869108746E+002	2.4725585E-001	-2.7038385E+002
3	0	9.136179868982435E+002	2.4694085E-001	-2.7039447E+002
3	0	9.141179868856125E+002	2.4664088E-001	-2.7036267E+002
3	0	9.146179868729814E+002	2.4633358E-001	-2.7036972E+002
3	0	9.151179868603504E+002	2.4599935E-001	-2.7036972E+002
3	0	9.156179868477193E+002	2.4566470E-001	-2.7038742E+002
3	0	9.161179868350882E+002	2.4537262E-001	-2.7036618E+002
3	0	9.166179868224572E+002	2.4509284E-001	-2.7039447E+002
3	0	9.171179868098261E+002	2.4480768E-001	-2.7038385E+002
3	0	9.176179867971950E+002	2.4452162E-001	-2.7038385E+002
3	0	9.181179867845640E+002	2.4424469E-001	-2.7037326E+002
3	0	9.186179867719329E+002	2.4395411E-001	-2.7037326E+002
3	0	9.191179867593019E+002	2.4364991E-001	-2.7037326E+002
3	0	9.196179867466708E+002	2.4333537E-001	-2.7035559E+002
3	0	9.201179867340397E+002	2.4306408E-001	-2.7038385E+002
3	0	9.206179867214087E+002	2.4281056E-001	-2.7035913E+002
3	0	9.211179867087776E+002	2.4255389E-001	-2.7036972E+002
3	0	9.216179866961465E+002	2.4229369E-001	-2.7037677E+002
3	0	9.221179866835155E+002	2.4204005E-001	-2.7037677E+002
3	0	9.226179866708844E+002	2.4176854E-001	-2.7038385E+002
3	0	9.231179866582534E+002	2.4148045E-001	-2.7038742E+002
3	0	9.236179866456223E+002	2.4118702E-001	-2.7038385E+002
3	0	9.241179866329912E+002	2.4093810E-001	-2.7037677E+002
3	0	9.246179866203602E+002	2.4070789E-001	-2.7038385E+002
3	0	9.251179866077291E+002	2.4047513E-001	-2.7041214E+002
3	0	9.256179865950980E+002	2.4023750E-001	-2.7039093E+002
3	0	9.261179865824670E+002	2.4000303E-001	-2.7039093E+002
3	0	9.266179865698359E+002	2.3975690E-001	-2.7039093E+002
3	0	9.271179865572049E+002	2.3949596E-001	-2.7036618E+002
3	0	9.276179865445738E+002	2.3921773E-001	-2.7037326E+002
3	0	9.281179865319427E+002	2.3898827E-001	-2.7037326E+002
3	0	9.286179865193117E+002	2.3876815E-001	-2.7038742E+002
3	0	9.291179865066806E+002	2.3854756E-001	-2.7037326E+002
3	0	9.296179864940495E+002	2.3832846E-001	-2.7038031E+002
3	0	9.301179864814185E+002	2.3811293E-001	-2.7038385E+002
3	0	9.306179864687874E+002	2.3788989E-001	-2.7035913E+002
3	0	9.311179864561564E+002	2.3764797E-001	-2.7039093E+002
3	0	9.316179864435253E+002	2.3739859E-001	-2.7037326E+002
3	0	9.321179864308942E+002	2.3718968E-001	-2.7038742E+002
3	0	9.326179864182632E+002	2.3699811E-001	-2.7036618E+002
3	0	9.331179864056321E+002	2.3679996E-001	-2.7039093E+002
3	0	9.336179863930010E+002	2.3660253E-001	-2.7038742E+002
3	0	9.341179863803700E+002	2.3640762E-001	-2.7036972E+002
3	0	9.346179863677389E+002	2.3620035E-001	-2.7037326E+002
3	0	9.351179863551079E+002	2.3597762E-001	-2.7038385E+002
3	0	9.356179863424768E+002	2.3574549E-001	-2.7036972E+002
3	0	9.361179863298457E+002	2.3556563E-001	-2.7038031E+002
3	0	9.366179863172147E+002	2.3539793E-001	-2.7040860E+002
3	0	9.371179863045836E+002	2.3521815E-001	-2.7038385E+002
3	0	9.376179862919525E+002	2.3503616E-001	-2.7039093E+002
3	0	9.381179862793215E+002	2.3485424E-001	-2.7038742E+002
3	0	9.386179862666904E+002	2.3466732E-001	-2.7036972E+002
3	0	9.391179862540594E+002	2.3445743E-001	-2.7038031E+002
3	0	9.396179862414283E+002	2.3424485E-001	-2.7038385E+002
3	0	9.401179862287972E+002	2.3407255E-001	-2.7036267E+002
3	0	9.406179862161662E+002	2.3390937E-001	-2.7037326E+002
3	0	9.411179862035351E+002	2.3374388E-001	-2.7040155E+002
3	0	9.416179861909040E+002	2.3357423E-001	-2.7036267E+002
3	0	9.421179861782730E+002	2.3340851E-001	-2.7038742E+002
3	0	9.426179861656419E+002	2.3323412E-001	-2.7038031E+002
3	0	9.431179861530109E+002	2.3304625E-001	-2.7036972E+002
3	0	9.436179861403798E+002	2.3284443E-001	-2.7036972E+002
3	0	9.441179861277487E+002	2.3268144E-001	-2.7036267E+002
3	0	9.446179861151177E+002	2.3253521E-001	-2.7036972E+002
3	0	9.451179861024866E+002	2.3238419E-001	-2.7036618E+002
3	0	9.456179860898555E+002	2.3222914E-001	-2.7037326E+002
3	0	9.461179860772245E+002	2.3207730E-001	-2.7041214E+002
3	0	9.466179860645934E+002	2.3191923E-001	-2.7036972E+002
3	0	9.471179860519624E+002	2.3173371E-001	-2.7038742E+002
3	0	9.476179860393313E+002	2.3153709E-001	-2.7036972E+002
3	0	9.481179860267002E+002	2.3137999E-001	-2.7038742E+002
3	0	9.486179860140692E+002	2.3123546E-001	-2.7036618E+002
3	0	9.491179860014381E+002	2.3108922E-001	-2.7038031E+002
3	0	9.496179859888071E+002	2.3094612E-001	-2.7038385E+002
3	0	9.501179859761760E+002	2.3080626E-001	-2.7036267E+002
3	0	9.506179859635449E+002	2.3065414E-001	-2.7036972E+002
3	0	9.511179859509139E+002	2.3048471E-001	-2.7038031E+002
3	0	9.516179859382828E+002	2.3030999E-001	-2.7038742E+002
3	0	9.521179859256517E+002	2.3016784E-001	-2.7036972E+002
3	0	9.526179859130207E+002	2.3004328E-001	-2.7038385E+002
3	0	9.531179859003896E+002	2.2990757E-001	-2.7037677E+002
3	0	9.536179858877586E+002	2.2977781E-001	-2.7039801E+002
3	0	9.541179858751275E+002	2.2964603E-001	-2.7034143E+002
3	0	9.546179858624964E+002	2.2950958E-001	-2.7038742E+002
3	0	9.551179858498654E+002	2.2934908E-001	-2.7038742E+002
3	0	9.556179858372343E+002	2.2918056E-001	-2.7038742E+002
3	0	9.561179858246032E+002	2.2905654E-001	-2.7037326E+002
3	0	9.566179858119722E+002	2.2894281E-001	-2.7039447E+002
3	0	9.571179857993411E+002	2.2882481E-001	-2.7036972E+002
3	0	9.576179857867101E+002	2.2870250E-001	-2.7036972E+002
3	0	9.581179857740790E+002	2.2858268E-001	-2.7038385E+002
3	0	9.586179857614479E+002	2.2845018E-001	-2.7039447E+002
3	0	9.591179857488169E+002	2.2829576E-001	-2.7038385E+002
3	0	9.596179857361858E+002	2.2813770E-001	-2.7038031E+002
3	0	9.601179857235547E+002	2.2801839E-001	-2.7035205E+002
3	0	9.606179857109237E+002	2.2791578E-001	-2.7039093E+002
3	0	9.611179856982926E+002	2.2780490E-001	-2.7036972E+002
3	0	9.616179856856616E+002	2.2769041E-001	-2.7037326E+002
3	0	9.621179856730305E+002	2.2758177E-001	-2.7038031E+002
3	0	9.626179856603994E+002	2.2745855E-001	-2.7034497E+002
3	0	9.631179856477684E+002	2.2731608E-001	-2.7037677E+002
3	0	9.636179856351373E+002	2.2716445E-001	-2.7038742E+002
3	0	9.641179856225062E+002	2.2704957E-001	-2.7036267E+002
3	0	9.646179856098752E+002	2.2695555E-001	-2.7038031E+002
3	0	9.651179855972441E+002	2.2685497E-001	-2.7037677E+002
3	0	9.656179855846131E+002	2.2675507E-001	-2.7040860E+002
3	0	9.661179855719820E+002	2.2664799E-001	-2.7036267E+002
3	0	9.666179855593509E+002	2.2652970E-001	-2.7037677E+002
3	0	9.671179855467199E+002	2.2638841E-001	-2.7036972E+002
3	0	9.676179855340888E+002	2.2624250E-001	-2.7036972E+002
3	0	9.681179855214577E+002	2.2613578E-001	-2.7039093E+002
3	0	9.686179855088267E+002	2.2604291E-001	-2.7038385E+002
3	0	9.691179854961956E+002	2.2594777E-001	-2.7041214E+002
3	0	9.696179854835646E+002	2.2584693E-001	-2.7038031E+002
3	0	9.701179854709335E+002	2.2575320E-001	-2.7038031E+002
3	0	9.706179854583024E+002	2.2564240E-001	-2.7037326E+002
3	0	9.711179854456714E+002	2.2551709E-001	-2.7035913E+002
3	0	9.716179854330403E+002	2.2538099E-001	-2.7036618E+002
3	0	9.721179854204092E+002	2.2528525E-001	-2.7037677E+002
3	0	9.726179854077782E+002	2.2520071E-001	-2.7037326E+002
3	0	9.731179853951471E+002	2.2510889E-001	-2.7038385E+002
3	0	9.736179853825161E+002	2.2501554E-001	-2.7035913E+002
3	0	9.741179853698850E+002	2.2493553E-001	-2.7038385E+002
3	0	9.746179853572539E+002	2.2483124E-001	-2.7038742E+002
3	0	9.751179853446229E+002	2.2471014E-001	-2.7038742E+002
3	0	9.756179853319918E+002	2.2457740E-001	-2.7038385E+002
3	0	9.761179853193607E+002	2.2448416E-001	-2.7038385E+002
3	0	9.766179853067297E+002	2.2440702E-001	-2.7038031E+002
3	0	9.771179852940986E+002	2.2432823E-001	-2.7037326E+002
3	0	9.776179852814676E+002	2.2424315E-001	-2.7039801E+002
3	0	9.781179852688365E+002	2.2415473E-001	-2.7036618E+002
3	0	9.786179852562054E+002	2.2406034E-001	-2.7039093E+002
3	0	9.791179852435744E+002	2.2394550E-001	-2.7037326E+002
3	0	9.796179852309433E+002	2.2381842E-001	-2.7035205E+002
3	0	9.801179852183122E+002	2.2373126E-001	-2.7036618E+002
3	0	9.806179852056812E+002	2.2366232E-001	-2.7038742E+002
3	0	9.811179851930501E+002	2.2358969E-001	-2.7038031E+002
3	0	9.816179851804191E+002	2.2351520E-001	-2.7036972E+002
3	0	9.821179851677880E+002	2.2343531E-001	-2.7040860E+002
3	0	9.826179851551569E+002	2.2334711E-001	-2.7036267E+002
3	0	9.831179851425259E+002	2.2322994E-001	-2.7038031E+002
3	0	9.836179851298948E+002	2.2310938E-001	-2.7038385E+002
3	0	9.841179851172637E+002	2.2303075E-001	-2.7040155E+002
3	0	9.846179851046327E+002	2.2296470E-001	-2.7039801E+002
3	0	9.851179850920016E+002	2.2289073E-001	-2.7037326E+002
3	0	9.856179850793706E+002	2.2280821E-001	-2.7038031E+002
3	0	9.861179850667395E+002	2.2273012E-001	-2.7039801E+002
3	0	9.866179850541084E+002	2.2263956E-001	-2.7036972E+002
3	0	9.871179850414774E+002	2.2252728E-001	-2.7038031E+002
3	0	9.876179850288463E+002	2.2240390E-001	-2.7039093E+002
3	0	9.881179850162152E+002	2.2232315E-001	-2.7037677E+002
3	0	9.886179850035842E+002	2.2225243E-001	-2.7037677E+002
3	0	9.891179849909531E+002	2.2218268E-001	-2.7034497E+002
3	0	9.896179849783221E+002	2.2210358E-001	-2.7038031E+002
3	0	9.901179849656910E+002	2.2202784E-001	-2.7037326E+002
3	0	9.906179849530599E+002	2.2194093E-001	-2.7039801E+002
3	0	9.911179849404289E+002	2.2183776E-001	-2.7038031E+002
3	0	9.916179849277978E+002	2.2172312E-001	-2.7038031E+002
3	0	9.921179849151667E+002	2.2164941E-001	-2.7037326E+002
3	0	9.921435849145200E+002	2.2162466E-001	-2.7037677E+002