EC-Lab ASCII FILE
Nb header lines : 55                          

Open Circuit Voltage

Run on channel : 1 (SN 81504)
User : 
CE vs. WE compliance from -10 V to 10 V
Electrode connection : standard
Potential control : Ewe
Ewe ctrl range : min = -2.50 V, max = 2.50 V
Safety Limits :
	Do not start on E overload
Acquisition started on : 05/10/2026 06:49:56.074
Loaded Setting File :  C:\PEM-WE_measurements\2026\372_IV_IV IrOx, 5 min Pt, 30 min C, etched cathode\new station\Loopeis new\1,46 V different time gaps closed cell\Loopeis 1,46V_120s_4_PEIS from 650Hz to 100Hz.mps
Saved on :
	File : L_24_Loopeis 1,46V_120s_4_PEIS from 650Hz to 100Hz_14_OCV_C01.mpr
	Directory : C:\PEM-WE_measurements\2026\372_IV_IV IrOx, 5 min Pt, 30 min C, etched cathode\new station\Loopeis new\1,46 V different time gaps closed cell\
	Host : 192.168.0.2
Device : SP-150e (SN .005491)
Address : 192.168.0.91
EC-LAB for windows v11.71 (software)
Internet server v28.00 (firmware)
Command interpretor v14.01 (firmware)
Electrode material : 
Initial state : 
Electrolyte : 
Comments : 
Current amplifier : SP-150eB-20A
Electrode surface area : 0.001 cm²
Characteristic mass : 0.001 g
Equivalent Weight : 0.000 g/eq.
Density : 0.000 g/cm3
Volume (V) : 0.001 cm³
Record Analogic IN 1
Text export
   Mode : Standard
   Time format : Elapsed
Cycle Definition : Charge/Discharge alternance
External device configuration :
   device type : Temperature Probe
   device name : Other
   Analog IN 1 : 
      unit : T/Â°C
      max : 100.000 at 2.000 V
      min : 0.000 at 1.460 V
tR (h:m:s)          0:02:0.0000         
dER/dt (mV/h)       1.0                 
record              <Ewe>               
dER (mV)            10.00               
dtR (s)             0.5000              
E range min (V)     -2.500              
E range max (V)     2.500               

mode	error	time/s	<Ewe/V>	Analog IN 1/V	
3	0	1.037408183753869E+003	1.2909153E+000	-2.7036972E+002
3	0	1.037908183741238E+003	1.2975378E+000	-2.7038385E+002
3	0	1.038408183728607E+003	1.2940335E+000	-2.7035205E+002
3	0	1.038908183715976E+003	1.2850798E+000	-2.7040860E+002
3	0	1.039408183703345E+003	1.2692689E+000	-2.7038742E+002
3	0	1.039908183690713E+003	1.2440422E+000	-2.7039093E+002
3	0	1.040408183678082E+003	1.2047508E+000	-2.7036267E+002
3	0	1.040908183665451E+003	1.1392708E+000	-2.7036267E+002
3	0	1.041408183652820E+003	9.8369694E-001	-2.7036972E+002
3	0	1.041908183640189E+003	6.3312215E-001	-2.7036972E+002
3	0	1.042408183627558E+003	4.8052552E-001	-2.7038742E+002
3	0	1.042908183614927E+003	4.3067235E-001	-2.7038742E+002
3	0	1.043408183602296E+003	4.1565764E-001	-2.7035559E+002
3	0	1.043908183589665E+003	4.0983465E-001	-2.7038385E+002
3	0	1.044408183577034E+003	4.0604034E-001	-2.7037326E+002
3	0	1.044908183564403E+003	4.0343845E-001	-2.7040155E+002
3	0	1.045408183551772E+003	4.0196809E-001	-2.7035205E+002
3	0	1.045908183539141E+003	4.0041000E-001	-2.7038385E+002
3	0	1.046408183526510E+003	3.9912590E-001	-2.7036618E+002
3	0	1.046908183513879E+003	3.9796764E-001	-2.7039447E+002
3	0	1.047408183501248E+003	3.9693791E-001	-2.7037677E+002
3	0	1.047908183488616E+003	3.9592811E-001	-2.7038031E+002
3	0	1.048408183475985E+003	3.9488056E-001	-2.7038385E+002
3	0	1.048908183463354E+003	3.9420635E-001	-2.7037326E+002
3	0	1.049408183450723E+003	3.9420885E-001	-2.7037326E+002
3	0	1.049908183438092E+003	3.9392990E-001	-2.7040155E+002
3	0	1.050408183425461E+003	3.9371178E-001	-2.7037326E+002
3	0	1.050908183412830E+003	3.9347225E-001	-2.7037677E+002
3	0	1.051408183400199E+003	3.9323962E-001	-2.7035913E+002
3	0	1.051908183387568E+003	3.9278534E-001	-2.7038031E+002
3	0	1.052408183374937E+003	3.9219314E-001	-2.7033789E+002
3	0	1.052908183362306E+003	3.9198500E-001	-2.7037326E+002
3	0	1.053408183349675E+003	3.9230651E-001	-2.7036618E+002
3	0	1.053908183337044E+003	3.9229420E-001	-2.7037677E+002
3	0	1.054408183324413E+003	3.9230156E-001	-2.7038742E+002
3	0	1.054908183311782E+003	3.9220461E-001	-2.7039447E+002
3	0	1.055408183299151E+003	3.9207086E-001	-2.7036267E+002
3	0	1.055908183286519E+003	3.9187783E-001	-2.7036618E+002
3	0	1.056408183273888E+003	3.9159274E-001	-2.7036972E+002
3	0	1.056908183261257E+003	3.9167538E-001	-2.7038031E+002
3	0	1.057408183248626E+003	3.9237472E-001	-2.7039447E+002
3	0	1.057908183235995E+003	3.9287221E-001	-2.7037326E+002
3	0	1.058408183223364E+003	3.9347872E-001	-2.7037677E+002
3	0	1.058908183210733E+003	3.9409819E-001	-2.7037326E+002
3	0	1.059408183198102E+003	3.9470595E-001	-2.7038031E+002
3	0	1.059908183185471E+003	3.9525422E-001	-2.7036618E+002
3	0	1.060408183172840E+003	3.9553404E-001	-2.7038385E+002
3	0	1.060908183160209E+003	3.9599550E-001	-2.7035913E+002
3	0	1.061408183147578E+003	3.9695942E-001	-2.7038031E+002
3	0	1.061908183134947E+003	3.9756945E-001	-2.7038031E+002
3	0	1.062408183122316E+003	3.9811325E-001	-2.7038031E+002
3	0	1.062908183109685E+003	3.9852768E-001	-2.7041568E+002
3	0	1.063408183097054E+003	3.9875424E-001	-2.7037326E+002
3	0	1.063908183084422E+003	3.9852139E-001	-2.7038031E+002
3	0	1.064408183071791E+003	3.9870903E-001	-2.7036972E+002
3	0	1.064908183059160E+003	3.9903665E-001	-2.7037326E+002
3	0	1.065408183046529E+003	3.9969188E-001	-2.7037677E+002
3	0	1.065908183033898E+003	4.0005663E-001	-2.7038031E+002
3	0	1.066408183021267E+003	4.0010813E-001	-2.7036972E+002
3	0	1.066908183008636E+003	4.0012425E-001	-2.7036618E+002
3	0	1.067408182996005E+003	4.0008971E-001	-2.7039447E+002
3	0	1.067908182983374E+003	3.9981487E-001	-2.7037677E+002
3	0	1.068408182970743E+003	3.9925486E-001	-2.7037677E+002
3	0	1.068908182958112E+003	3.9897001E-001	-2.7037326E+002
3	0	1.069408182945481E+003	3.9925817E-001	-2.7038031E+002
3	0	1.069908182932850E+003	3.9936945E-001	-2.7037677E+002
3	0	1.070408182920219E+003	3.9918256E-001	-2.7036972E+002
3	0	1.070908182907588E+003	3.9890724E-001	-2.7039447E+002
3	0	1.071408182894957E+003	3.9853883E-001	-2.7039447E+002
3	0	1.071908182882325E+003	3.9803761E-001	-2.7036618E+002
3	0	1.072408182869694E+003	3.9736724E-001	-2.7036972E+002
3	0	1.072908182857063E+003	3.9693466E-001	-2.7035913E+002
3	0	1.073408182844432E+003	3.9704564E-001	-2.7035913E+002
3	0	1.073908182831801E+003	3.9701083E-001	-2.7036267E+002
3	0	1.074408182819170E+003	3.9671379E-001	-2.7036267E+002
3	0	1.074908182806539E+003	3.9635307E-001	-2.7037677E+002
3	0	1.075408182793908E+003	3.9597228E-001	-2.7038742E+002
3	0	1.075908182781277E+003	3.9535141E-001	-2.7038031E+002
3	0	1.076408182768646E+003	3.9465603E-001	-2.7035913E+002
3	0	1.076908182756015E+003	3.9441219E-001	-2.7036618E+002
3	0	1.077408182743384E+003	3.9477780E-001	-2.7038385E+002
3	0	1.077908182730753E+003	3.9506957E-001	-2.7037326E+002
3	0	1.078408182718122E+003	3.9527729E-001	-2.7038031E+002
3	0	1.078908182705491E+003	3.9553732E-001	-2.7040860E+002
3	0	1.079408182692860E+003	3.9587492E-001	-2.7035913E+002
3	0	1.079908182680228E+003	3.9598712E-001	-2.7035913E+002
3	0	1.080408182667597E+003	3.9589754E-001	-2.7036618E+002
3	0	1.080908182654966E+003	3.9602309E-001	-2.7039093E+002
3	0	1.081408182642335E+003	3.9660946E-001	-2.7035913E+002
3	0	1.081908182629704E+003	3.9700904E-001	-2.7039093E+002
3	0	1.082408182617073E+003	3.9711839E-001	-2.7037677E+002
3	0	1.082908182604442E+003	3.9712027E-001	-2.7037326E+002
3	0	1.083408182591811E+003	3.9706203E-001	-2.7036972E+002
3	0	1.083908182579180E+003	3.9679426E-001	-2.7036267E+002
3	0	1.084408182566549E+003	3.9636564E-001	-2.7036618E+002
3	0	1.084908182553918E+003	3.9610383E-001	-2.7037326E+002
3	0	1.085408182541287E+003	3.9635018E-001	-2.7039093E+002
3	0	1.085908182528656E+003	3.9645907E-001	-2.7037677E+002
3	0	1.086408182516025E+003	3.9631557E-001	-2.7039801E+002
3	0	1.086908182503394E+003	3.9611521E-001	-2.7036267E+002
3	0	1.087408182490763E+003	3.9582765E-001	-2.7036972E+002
3	0	1.087908182478131E+003	3.9524472E-001	-2.7039447E+002
3	0	1.088408182465500E+003	3.9452279E-001	-2.7040155E+002
3	0	1.088908182452869E+003	3.9411959E-001	-2.7038031E+002
3	0	1.089408182440238E+003	3.9416331E-001	-2.7035913E+002
3	0	1.089908182427607E+003	3.9404565E-001	-2.7036267E+002
3	0	1.090408182414976E+003	3.9368516E-001	-2.7036618E+002
3	0	1.090908182402345E+003	3.9326686E-001	-2.7037677E+002
3	0	1.091408182389714E+003	3.9285505E-001	-2.7038385E+002
3	0	1.091908182377083E+003	3.9225572E-001	-2.7039447E+002
3	0	1.092408182364452E+003	3.9149225E-001	-2.7036972E+002
3	0	1.092908182351821E+003	3.9094934E-001	-2.7037677E+002
3	0	1.093408182339190E+003	3.9087617E-001	-2.7039801E+002
3	0	1.093908182326559E+003	3.9070961E-001	-2.7036972E+002
3	0	1.094408182313928E+003	3.9031637E-001	-2.7038385E+002
3	0	1.094908182301297E+003	3.8990405E-001	-2.7037677E+002
3	0	1.095408182288666E+003	3.8947940E-001	-2.7040506E+002
3	0	1.095908182276034E+003	3.8887274E-001	-2.7038031E+002
3	0	1.096408182263403E+003	3.8827640E-001	-2.7037326E+002
3	0	1.096908182250772E+003	3.8797036E-001	-2.7039801E+002
3	0	1.097408182238141E+003	3.8826966E-001	-2.7038031E+002
3	0	1.097908182225510E+003	3.8864401E-001	-2.7036972E+002
3	0	1.098408182212879E+003	3.8906136E-001	-2.7038742E+002
3	0	1.098908182200248E+003	3.8964799E-001	-2.7035559E+002
3	0	1.099408182187617E+003	3.9207000E-001	-2.7038742E+002
3	0	1.099908182174986E+003	3.9611232E-001	-2.7039447E+002
3	0	1.100408182162355E+003	3.9596340E-001	-2.7038385E+002
3	0	1.100908182149724E+003	3.9495730E-001	-2.7036972E+002
3	0	1.101408182137093E+003	3.9452130E-001	-2.7036618E+002
3	0	1.101908182124462E+003	3.9476344E-001	-2.7037677E+002
3	0	1.102408182111831E+003	3.9940551E-001	-2.7038742E+002
3	0	1.102908182099200E+003	4.0213028E-001	-2.7039093E+002
3	0	1.103408182086569E+003	4.0304258E-001	-2.7035205E+002
3	0	1.103908182073938E+003	4.0292752E-001	-2.7035559E+002
3	0	1.104408182061306E+003	4.0322763E-001	-2.7038742E+002
3	0	1.104908182048675E+003	4.0392998E-001	-2.7039447E+002
3	0	1.105408182036044E+003	4.0511012E-001	-2.7036972E+002
3	0	1.105908182023413E+003	4.0552789E-001	-2.7039447E+002
3	0	1.106408182010782E+003	4.0529799E-001	-2.7036267E+002
3	0	1.106908181998151E+003	4.0461722E-001	-2.7037677E+002
3	0	1.107408181985520E+003	4.0369719E-001	-2.7036267E+002
3	0	1.107908181972889E+003	4.0275139E-001	-2.7038385E+002
3	0	1.108408181960258E+003	4.0183970E-001	-2.7036618E+002
3	0	1.108908181947627E+003	4.0080157E-001	-2.7038031E+002
3	0	1.109408181934996E+003	4.0025187E-001	-2.7040155E+002
3	0	1.109908181922365E+003	3.9974654E-001	-2.7039447E+002
3	0	1.110408181909734E+003	3.9901456E-001	-2.7036972E+002
3	0	1.110908181897103E+003	3.9818928E-001	-2.7038385E+002
3	0	1.111408181884472E+003	3.9745870E-001	-2.7036972E+002
3	0	1.111908181871841E+003	3.9646298E-001	-2.7035913E+002
3	0	1.112408181859209E+003	3.9526147E-001	-2.7037677E+002
3	0	1.112908181846578E+003	3.9425468E-001	-2.7038385E+002
3	0	1.113408181833947E+003	3.9370194E-001	-2.7036618E+002
3	0	1.113908181821316E+003	3.9309874E-001	-2.7037326E+002
3	0	1.114408181808685E+003	3.9235213E-001	-2.7034851E+002
3	0	1.114908181796054E+003	3.9155558E-001	-2.7035205E+002
3	0	1.115408181783423E+003	3.9082065E-001	-2.7036267E+002
3	0	1.115908181770792E+003	3.8994855E-001	-2.7037677E+002
3	0	1.116408181758161E+003	3.8892159E-001	-2.7038385E+002
3	0	1.116908181745530E+003	3.8813734E-001	-2.7038742E+002
3	0	1.117408181732899E+003	3.8791257E-001	-2.7038031E+002
3	0	1.117908181720268E+003	3.8770312E-001	-2.7037326E+002
3	0	1.118408181707637E+003	3.8740197E-001	-2.7038031E+002
3	0	1.118908181695006E+003	3.8666016E-001	-2.7039447E+002
3	0	1.119408181682375E+003	3.8609976E-001	-2.7037677E+002
3	0	1.119908181669744E+003	3.8551441E-001	-2.7036972E+002
3	0	1.120408181657112E+003	3.8493252E-001	-2.7040506E+002
3	0	1.120908181644481E+003	3.8466752E-001	-2.7039801E+002
3	0	1.121408181631850E+003	3.8480115E-001	-2.7036618E+002
3	0	1.121908181619219E+003	3.8485086E-001	-2.7038031E+002
3	0	1.122408181606588E+003	3.8468063E-001	-2.7038385E+002
3	0	1.122908181593957E+003	3.8444930E-001	-2.7038742E+002
3	0	1.123408181581326E+003	3.8418043E-001	-2.7037326E+002
3	0	1.123908181568695E+003	3.8372475E-001	-2.7036972E+002
3	0	1.124408181556064E+003	3.8311878E-001	-2.7040506E+002
3	0	1.124908181543433E+003	3.8270211E-001	-2.7037677E+002
3	0	1.125408181530802E+003	3.8267186E-001	-2.7036267E+002
3	0	1.125908181518171E+003	3.8255438E-001	-2.7035913E+002
3	0	1.126408181505540E+003	3.8223988E-001	-2.7037677E+002
3	0	1.126908181492909E+003	3.8187513E-001	-2.7038031E+002
3	0	1.127408181480278E+003	3.8152757E-001	-2.7036618E+002
3	0	1.127908181467647E+003	3.8100716E-001	-2.7038031E+002
3	0	1.128408181455015E+003	3.8032740E-001	-2.7038031E+002
3	0	1.128908181442384E+003	3.7978208E-001	-2.7037677E+002
3	0	1.129408181429753E+003	3.7964091E-001	-2.7035559E+002
3	0	1.129908181417122E+003	3.7944573E-001	-2.7036618E+002
3	0	1.130408181404491E+003	3.7902132E-001	-2.7037677E+002
3	0	1.130908181391860E+003	3.7855434E-001	-2.7038742E+002
3	0	1.131408181379229E+003	3.7808692E-001	-2.7036267E+002
3	0	1.131908181366598E+003	3.7753871E-001	-2.7039093E+002
3	0	1.132408181353967E+003	3.7688473E-001	-2.7038031E+002
3	0	1.132908181341336E+003	3.7634718E-001	-2.7039093E+002
3	0	1.133408181328705E+003	3.7619397E-001	-2.7037677E+002
3	0	1.133908181316074E+003	3.7601617E-001	-2.7038031E+002
3	0	1.134408181303443E+003	3.7567228E-001	-2.7038742E+002
3	0	1.134908181290812E+003	3.7526500E-001	-2.7036267E+002
3	0	1.135408181278181E+003	3.7481731E-001	-2.7036972E+002
3	0	1.135908181265550E+003	3.7429571E-001	-2.7035913E+002
3	0	1.136408181252918E+003	3.7369335E-001	-2.7037326E+002
3	0	1.136908181240287E+003	3.7328219E-001	-2.7035913E+002
3	0	1.137408181227656E+003	3.7326503E-001	-2.7035205E+002
3	0	1.137908181215025E+003	3.7328503E-001	-2.7041568E+002
3	0	1.138408181202394E+003	3.7324208E-001	-2.7038385E+002
3	0	1.138908181189763E+003	3.7324491E-001	-2.7037326E+002
3	0	1.139408181177132E+003	3.7325907E-001	-2.7039447E+002
3	0	1.139908181164501E+003	3.7321693E-001	-2.7035913E+002
3	0	1.140408181151870E+003	3.7303343E-001	-2.7036972E+002
3	0	1.140908181139239E+003	3.7298808E-001	-2.7035913E+002
3	0	1.141408181126608E+003	3.7323785E-001	-2.7035913E+002
3	0	1.141908181113977E+003	3.7339216E-001	-2.7040155E+002
3	0	1.142408181101346E+003	3.7335926E-001	-2.7036972E+002
3	0	1.142908181088715E+003	3.7325948E-001	-2.7038031E+002
3	0	1.143408181076084E+003	3.7311414E-001	-2.7040155E+002
3	0	1.143908181063453E+003	3.7282792E-001	-2.7036618E+002
3	0	1.144408181050821E+003	3.7245104E-001	-2.7037677E+002
3	0	1.144908181038190E+003	3.7217730E-001	-2.7039093E+002
3	0	1.145408181025559E+003	3.7221777E-001	-2.7038031E+002
3	0	1.145908181012928E+003	3.7217322E-001	-2.7036267E+002
3	0	1.146408181000297E+003	3.7195912E-001	-2.7038385E+002
3	0	1.146908180987666E+003	3.7168244E-001	-2.7039801E+002
3	0	1.147408180975035E+003	3.7139893E-001	-2.7036972E+002
3	0	1.147908180962404E+003	3.7096244E-001	-2.7038742E+002
3	0	1.148408180949773E+003	3.7043530E-001	-2.7039093E+002
3	0	1.148908180937142E+003	3.7007961E-001	-2.7036972E+002
3	0	1.149408180924511E+003	3.7003559E-001	-2.7034497E+002
3	0	1.149908180911880E+003	3.6994886E-001	-2.7039801E+002
3	0	1.150408180899249E+003	3.6971325E-001	-2.7038031E+002
3	0	1.150908180886618E+003	3.6940882E-001	-2.7035913E+002
3	0	1.151408180873987E+003	3.6911452E-001	-2.7038385E+002
3	0	1.151908180861356E+003	3.6868915E-001	-2.7039447E+002
3	0	1.152408180848724E+003	3.6813000E-001	-2.7037326E+002
3	0	1.152908180836093E+003	3.6772144E-001	-2.7039093E+002
3	0	1.153408180823462E+003	3.6763373E-001	-2.7038031E+002
3	0	1.153908180810831E+003	3.6749852E-001	-2.7036267E+002
3	0	1.154408180798200E+003	3.6722091E-001	-2.7036267E+002
3	0	1.154908180785569E+003	3.6690211E-001	-2.7036618E+002
3	0	1.155408180772938E+003	3.6657581E-001	-2.7037326E+002
3	0	1.155908180760307E+003	3.6615390E-001	-2.7039093E+002
3	0	1.156408180747676E+003	3.6561754E-001	-2.7037677E+002
3	0	1.156908180735045E+003	3.6523268E-001	-2.7038385E+002
3	0	1.156908580735035E+003	3.6519313E-001	-2.7037326E+002