EC-Lab ASCII FILE
Nb header lines : 48                          

Open Circuit Voltage

Run on channel : 1 (SN 81504)
User : 
CE vs. WE compliance from -10 V to 10 V
Electrode connection : standard
Potential control : Ewe
Ewe ctrl range : min = -2.50 V, max = 2.50 V
Safety Limits :
	Do not start on E overload
Acquisition started on : 05/07/2026 20:50:15.926
Loaded Setting File :  C:\PEM-WE_measurements\2026\372_IV_IV IrOx, 5 min Pt, 30 min C, etched cathode\new station\Loopeis new\1,46 V different time gaps open cell\Loopeis 1,46V_120s_2_PEIS from 65kHz to 10kHz.mps
Saved on :
	File : L_22_Loopeis 1,46V_120s_2_PEIS from 65kHz to 10kHz_20_OCV_C01.mpr
	Directory : C:\PEM-WE_measurements\2026\372_IV_IV IrOx, 5 min Pt, 30 min C, etched cathode\new station\Loopeis new\1,46 V different time gaps open cell\
	Host : 192.168.0.2
Device : SP-150e (SN .005491)
Address : 192.168.0.91
EC-LAB for windows v11.71 (software)
Internet server v28.00 (firmware)
Command interpretor v14.01 (firmware)
Electrode material : 
Initial state : 
Electrolyte : 
Comments : 
Current amplifier : SP-150eB-20A
Electrode surface area : 0.001 cm²
Characteristic mass : 0.001 g
Equivalent Weight : 0.000 g/eq.
Density : 0.000 g/cm3
Volume (V) : 0.001 cm³
Record Analogic IN 1
Text export
   Mode : Standard
   Time format : Elapsed
Cycle Definition : Charge/Discharge alternance
tR (h:m:s)          0:02:0.0000         
dER/dt (mV/h)       1.0                 
record              <Ewe>               
dER (mV)            10.00               
dtR (s)             0.5000              
E range min (V)     -2.500              
E range max (V)     2.500               

mode	error	time/s	<Ewe/V>	Analog IN 1/V	
3	0	1.534313177890217E+003	9.5397609E-001	-7.2477276E-005
3	0	1.534813177877586E+003	1.1521558E+000	-1.2973390E-004
3	0	1.535313177864955E+003	8.7479937E-001	-1.2973390E-004
3	0	1.535813177852324E+003	4.3586326E-001	2.2950437E-005
3	0	1.536313177839693E+003	3.2343978E-001	-1.2973390E-004
3	0	1.536813177827062E+003	3.1076685E-001	-3.4306191E-005
3	0	1.537313177814431E+003	3.0398187E-001	2.2950437E-005
3	0	1.537813177801800E+003	2.9822999E-001	-1.4881945E-004
3	0	1.538313177789169E+003	2.9369083E-001	-9.1562819E-005
3	0	1.538813177776537E+003	2.9015803E-001	2.2950437E-005
3	0	1.539313177763906E+003	2.8740081E-001	4.2035979E-005
3	0	1.539813177751275E+003	2.8518760E-001	3.8648941E-006
3	0	1.540313177738644E+003	2.8336227E-001	-1.5220648E-005
3	0	1.540813177726013E+003	2.8182587E-001	4.2035979E-005
3	0	1.541313177713382E+003	2.8049701E-001	2.2950437E-005
3	0	1.541813177700751E+003	2.7932516E-001	-1.2973390E-004
3	0	1.542313177688120E+003	2.7826184E-001	-1.8699054E-004
3	0	1.542813177675489E+003	2.7730185E-001	-7.2477276E-005
3	0	1.543313177662858E+003	2.7644512E-001	-5.3391734E-005
3	0	1.543813177650227E+003	2.7566284E-001	-1.4881945E-004
3	0	1.544313177637596E+003	2.7491760E-001	8.0207064E-005
3	0	1.544813177624965E+003	2.7422512E-001	3.8648941E-006
3	0	1.545313177612334E+003	2.7355474E-001	-1.6790499E-004
3	0	1.545813177599703E+003	2.7289143E-001	-5.3391734E-005
3	0	1.546313177587072E+003	2.7223566E-001	-7.2477276E-005
3	0	1.546813177574440E+003	2.7159882E-001	2.2950437E-005
3	0	1.547313177561809E+003	2.7102157E-001	3.8648941E-006
3	0	1.547813177549178E+003	2.7046016E-001	6.1121522E-005
3	0	1.548313177536547E+003	2.6989764E-001	8.0207064E-005
3	0	1.548813177523916E+003	2.6935071E-001	-1.5220648E-005
3	0	1.549313177511285E+003	2.6880687E-001	-3.4306191E-005
3	0	1.549813177498654E+003	2.6825866E-001	1.1837815E-004
3	0	1.550313177486023E+003	2.6769239E-001	-1.4881945E-004
3	0	1.550813177473392E+003	2.6714110E-001	-1.6790499E-004
3	0	1.551313177460761E+003	2.6663420E-001	-7.2477276E-005
3	0	1.551813177448130E+003	2.6612881E-001	-1.5220648E-005
3	0	1.552313177435499E+003	2.6562718E-001	-1.1064836E-004
3	0	1.552813177422868E+003	2.6513171E-001	-1.5220648E-005
3	0	1.553313177410237E+003	2.6464230E-001	-5.3391734E-005
3	0	1.553813177397606E+003	2.6414409E-001	-7.2477276E-005
3	0	1.554313177384975E+003	2.6363027E-001	6.1121522E-005
3	0	1.554813177372343E+003	2.6313198E-001	2.2950437E-005
3	0	1.555313177359712E+003	2.6266605E-001	-1.5220648E-005
3	0	1.555813177347081E+003	2.6220441E-001	4.2035979E-005
3	0	1.556313177334450E+003	2.6174906E-001	-3.4306191E-005
3	0	1.556813177321819E+003	2.6128849E-001	-1.5220648E-005
3	0	1.557313177309188E+003	2.6083639E-001	8.0207064E-005
3	0	1.557813177296557E+003	2.6036832E-001	-1.1064836E-004
3	0	1.558313177283926E+003	2.5988460E-001	-1.4881945E-004
3	0	1.558813177271295E+003	2.5942636E-001	2.2950437E-005
3	0	1.559313177258664E+003	2.5900289E-001	-1.5220648E-005
3	0	1.559813177246033E+003	2.5857174E-001	-5.3391734E-005
3	0	1.560313177233402E+003	2.5814530E-001	8.0207064E-005
3	0	1.560813177220771E+003	2.5771999E-001	8.0207064E-005
3	0	1.561313177208140E+003	2.5729799E-001	-7.2477276E-005
3	0	1.561813177195509E+003	2.5685835E-001	-3.4306191E-005
3	0	1.562313177182878E+003	2.5640774E-001	6.1121522E-005
3	0	1.562813177170246E+003	2.5597855E-001	-1.1064836E-004
3	0	1.563313177157615E+003	2.5558320E-001	4.2035979E-005
3	0	1.563813177144984E+003	2.5519004E-001	-3.4306191E-005
3	0	1.564313177132353E+003	2.5479576E-001	-5.3391734E-005
3	0	1.564813177119722E+003	2.5440881E-001	-1.5220648E-005
3	0	1.565313177107091E+003	2.5401706E-001	-1.5220648E-005
3	0	1.565813177094460E+003	2.5361007E-001	-1.4881945E-004
3	0	1.566313177081829E+003	2.5318787E-001	-3.4306191E-005
3	0	1.566813177069198E+003	2.5278622E-001	-7.2477276E-005
3	0	1.567313177056567E+003	2.5241497E-001	6.1121522E-005
3	0	1.567813177043936E+003	2.5204918E-001	8.0207064E-005
3	0	1.568313177031305E+003	2.5168335E-001	-3.4306191E-005
3	0	1.568813177018674E+003	2.5131476E-001	-9.1562819E-005
3	0	1.569313177006043E+003	2.5094661E-001	3.8648941E-006
3	0	1.569813176993412E+003	2.5057369E-001	-1.2973390E-004
3	0	1.570313176980781E+003	2.5017482E-001	2.2950437E-005
3	0	1.570813176968149E+003	2.4980062E-001	-1.2973390E-004
3	0	1.571313176955518E+003	2.4946459E-001	-7.2477276E-005
3	0	1.571813176942887E+003	2.4913359E-001	-7.2477276E-005
3	0	1.572313176930256E+003	2.4879622E-001	-1.5220648E-005
3	0	1.572813176917625E+003	2.4846075E-001	-3.4306191E-005
3	0	1.573313176904994E+003	2.4812426E-001	-7.2477276E-005
3	0	1.573813176892363E+003	2.4777873E-001	-5.3391734E-005
3	0	1.574313176879732E+003	2.4741036E-001	8.0207064E-005
3	0	1.574813176867101E+003	2.4706295E-001	-7.2477276E-005
3	0	1.575313176854470E+003	2.4675579E-001	-7.2477276E-005
3	0	1.575813176841839E+003	2.4645533E-001	-5.3391734E-005
3	0	1.576313176829208E+003	2.4614578E-001	-9.1562819E-005
3	0	1.576813176816577E+003	2.4584389E-001	-5.3391734E-005
3	0	1.577313176803946E+003	2.4553967E-001	-1.1064836E-004
3	0	1.577813176791315E+003	2.4522015E-001	-1.5220648E-005
3	0	1.578313176778684E+003	2.4487804E-001	8.0207064E-005
3	0	1.578813176766052E+003	2.4456297E-001	9.9292607E-005
3	0	1.579313176753421E+003	2.4427843E-001	-1.5220648E-005
3	0	1.579813176740790E+003	2.4400277E-001	3.8648941E-006
3	0	1.580313176728159E+003	2.4372257E-001	-3.4306191E-005
3	0	1.580813176715528E+003	2.4343713E-001	-5.3391734E-005
3	0	1.581313176702897E+003	2.4316287E-001	-9.1562819E-005
3	0	1.581813176690266E+003	2.4286722E-001	9.9292607E-005
3	0	1.582313176677635E+003	2.4255423E-001	-7.2477276E-005
3	0	1.582813176665004E+003	2.4225858E-001	2.2950437E-005
3	0	1.583313176652373E+003	2.4200517E-001	-3.4306191E-005
3	0	1.583813176639742E+003	2.4175130E-001	-5.3391734E-005
3	0	1.584313176627111E+003	2.4149242E-001	-1.5220648E-005
3	0	1.584813176614480E+003	2.4123831E-001	-9.1562819E-005
3	0	1.585313176601849E+003	2.4097817E-001	-9.1562819E-005
3	0	1.585813176589218E+003	2.4070697E-001	-1.4881945E-004
3	0	1.586313176576587E+003	2.4041858E-001	-1.5220648E-005
3	0	1.586813176563955E+003	2.4015003E-001	-1.6790499E-004
3	0	1.587313176551324E+003	2.3991959E-001	-1.5220648E-005
3	0	1.587813176538693E+003	2.3969008E-001	1.1837815E-004
3	0	1.588313176526062E+003	2.3945639E-001	-1.2973390E-004
3	0	1.588813176513431E+003	2.3922044E-001	-5.3391734E-005
3	0	1.589313176500800E+003	2.3898575E-001	-3.4306191E-005
3	0	1.589813176488169E+003	2.3873162E-001	-7.2477276E-005
3	0	1.590313176475538E+003	2.3845884E-001	3.8648941E-006
3	0	1.590813176462907E+003	2.3821369E-001	4.2035979E-005
3	0	1.591313176450276E+003	2.3800230E-001	-3.4306191E-005
3	0	1.591813176437645E+003	2.3779388E-001	3.8648941E-006
3	0	1.592313176425014E+003	2.3757994E-001	-1.1064836E-004
3	0	1.592813176412383E+003	2.3736231E-001	-5.3391734E-005
3	0	1.593313176399752E+003	2.3714764E-001	8.0207064E-005
3	0	1.593813176387121E+003	2.3692000E-001	-1.4881945E-004
3	0	1.594313176374490E+003	2.3666702E-001	2.2950437E-005
3	0	1.594813176361859E+003	2.3644115E-001	-7.2477276E-005
3	0	1.595313176349227E+003	2.3624551E-001	-1.5220648E-005
3	0	1.595813176336596E+003	2.3605242E-001	-1.5220648E-005
3	0	1.596313176323965E+003	2.3586026E-001	-7.2477276E-005
3	0	1.596813176311334E+003	2.3567186E-001	-7.2477276E-005
3	0	1.597313176298703E+003	2.3547938E-001	2.2950437E-005
3	0	1.597813176286072E+003	2.3526998E-001	-9.1562819E-005
3	0	1.598313176273441E+003	2.3503907E-001	-5.3391734E-005
3	0	1.598813176260810E+003	2.3482418E-001	2.2950437E-005
3	0	1.599313176248179E+003	2.3465075E-001	6.1121522E-005
3	0	1.599813176235548E+003	2.3447801E-001	-1.1064836E-004
3	0	1.600313176222917E+003	2.3430312E-001	-1.4881945E-004
3	0	1.600813176210286E+003	2.3412804E-001	8.0207064E-005
3	0	1.601313176197655E+003	2.3394239E-001	8.0207064E-005
3	0	1.601813176185024E+003	2.3374085E-001	-1.2973390E-004
3	0	1.602313176172393E+003	2.3351835E-001	-9.1562819E-005
3	0	1.602813176159762E+003	2.3332247E-001	-7.2477276E-005
3	0	1.603313176147130E+003	2.3316398E-001	-7.2477276E-005
3	0	1.603813176134499E+003	2.3300888E-001	-1.1064836E-004
3	0	1.604313176121868E+003	2.3284256E-001	-3.4306191E-005
3	0	1.604813176109237E+003	2.3267893E-001	-3.4306191E-005
3	0	1.605313176096606E+003	2.3251149E-001	2.2950437E-005
3	0	1.605813176083975E+003	2.3233123E-001	-7.2477276E-005
3	0	1.606313176071344E+003	2.3213539E-001	-3.4306191E-005
3	0	1.606813176058713E+003	2.3194772E-001	-1.5220648E-005
3	0	1.607313176046082E+003	2.3179786E-001	6.1121522E-005
3	0	1.607813176033451E+003	2.3165272E-001	-7.2477276E-005
3	0	1.608313176020820E+003	2.3149416E-001	-5.3391734E-005
3	0	1.608813176008189E+003	2.3133683E-001	-3.4306191E-005
3	0	1.609313175995558E+003	2.3117958E-001	-7.2477276E-005
3	0	1.609813175982927E+003	2.3100409E-001	3.8648941E-006
3	0	1.610313175970296E+003	2.3080844E-001	2.2950437E-005
3	0	1.610813175957665E+003	2.3063062E-001	-1.1064836E-004
3	0	1.611313175945033E+003	2.3049569E-001	-1.1064836E-004
3	0	1.611813175932402E+003	2.3035939E-001	-1.6790499E-004
3	0	1.612313175919771E+003	2.3021820E-001	-1.2973390E-004
3	0	1.612813175907140E+003	2.3007751E-001	9.9292607E-005
3	0	1.613313175894509E+003	2.2993800E-001	-5.3391734E-005
3	0	1.613813175881878E+003	2.2977145E-001	9.9292607E-005
3	0	1.614313175869247E+003	2.2959527E-001	-1.6790499E-004
3	0	1.614813175856616E+003	2.2943324E-001	-5.3391734E-005
3	0	1.615313175843985E+003	2.2930768E-001	2.2950437E-005
3	0	1.615813175831354E+003	2.2918260E-001	-1.6790499E-004
3	0	1.616313175818723E+003	2.2905655E-001	2.2950437E-005
3	0	1.616813175806092E+003	2.2893333E-001	-3.4306191E-005
3	0	1.617313175793461E+003	2.2880882E-001	-2.0607607E-004
3	0	1.617813175780830E+003	2.2866195E-001	-1.1064836E-004
3	0	1.618313175768199E+003	2.2849491E-001	-7.2477276E-005
3	0	1.618813175755568E+003	2.2834083E-001	-9.1562819E-005
3	0	1.619313175742936E+003	2.2822982E-001	3.8648941E-006
3	0	1.619813175730305E+003	2.2812457E-001	-7.2477276E-005
3	0	1.620313175717674E+003	2.2800793E-001	2.2950437E-005
3	0	1.620813175705043E+003	2.2789298E-001	-5.3391734E-005
3	0	1.621313175692412E+003	2.2777857E-001	-1.6790499E-004
3	0	1.621813175679781E+003	2.2763814E-001	-1.8699054E-004
3	0	1.622313175667150E+003	2.2748421E-001	-5.3391734E-005
3	0	1.622813175654519E+003	2.2734091E-001	-5.3391734E-005
3	0	1.623313175641888E+003	2.2724178E-001	4.2035979E-005
3	0	1.623813175629257E+003	2.2713993E-001	-5.3391734E-005
3	0	1.624313175616626E+003	2.2703119E-001	-7.2477276E-005
3	0	1.624813175603995E+003	2.2692469E-001	-5.3391734E-005
3	0	1.625313175591364E+003	2.2681350E-001	3.8648941E-006
3	0	1.625813175578733E+003	2.2668661E-001	1.1837815E-004
3	0	1.626313175566102E+003	2.2653717E-001	-2.6333271E-004
3	0	1.626813175553471E+003	2.2640178E-001	-1.5220648E-005
3	0	1.627313175540839E+003	2.2630778E-001	-7.2477276E-005
3	0	1.627813175528208E+003	2.2620690E-001	-1.5220648E-005
3	0	1.628313175515577E+003	2.2610255E-001	6.1121522E-005
3	0	1.628813175502946E+003	2.2600521E-001	-5.3391734E-005
3	0	1.629313175490315E+003	2.2590283E-001	-5.3391734E-005
3	0	1.629813175477684E+003	2.2577801E-001	-3.4306191E-005
3	0	1.630313175465053E+003	2.2563498E-001	-1.1064836E-004
3	0	1.630813175452422E+003	2.2550653E-001	-5.3391734E-005
3	0	1.631313175439791E+003	2.2541717E-001	-2.6333271E-004
3	0	1.631813175427160E+003	2.2532526E-001	1.5654923E-004
3	0	1.632313175414529E+003	2.2522916E-001	-1.5220648E-005
3	0	1.632813175401898E+003	2.2513363E-001	-1.5220648E-005
3	0	1.633313175389267E+003	2.2503531E-001	-9.1562819E-005
3	0	1.633813175376636E+003	2.2492424E-001	-5.3391734E-005
3	0	1.634313175364005E+003	2.2479361E-001	3.8648941E-006
3	0	1.634813175351374E+003	2.2467054E-001	-1.6790499E-004
3	0	1.635313175338742E+003	2.2458817E-001	-1.4881945E-004
3	0	1.635813175326111E+003	2.2450951E-001	-3.4306191E-005
3	0	1.636313175313480E+003	2.2441901E-001	2.2950437E-005
3	0	1.636813175300849E+003	2.2433791E-001	-7.2477276E-005
3	0	1.637313175288218E+003	2.2424716E-001	-1.4881945E-004
3	0	1.637813175275587E+003	2.2414286E-001	8.0207064E-005
3	0	1.638313175262956E+003	2.2401136E-001	-3.4306191E-005
3	0	1.638813175250325E+003	2.2389697E-001	4.2035979E-005
3	0	1.639313175237694E+003	2.2382423E-001	-3.4306191E-005
3	0	1.639813175225063E+003	2.2375077E-001	3.8648941E-006
3	0	1.640313175212432E+003	2.2367193E-001	-3.4306191E-005
3	0	1.640813175199801E+003	2.2359613E-001	-5.3391734E-005
3	0	1.641313175187170E+003	2.2351505E-001	3.8648941E-006
3	0	1.641813175174539E+003	2.2341229E-001	-3.4306191E-005
3	0	1.642313175161908E+003	2.2328539E-001	-1.2973390E-004
3	0	1.642813175149277E+003	2.2317450E-001	-3.4306191E-005
3	0	1.643313175136645E+003	2.2310983E-001	-1.5220648E-005
3	0	1.643813175124014E+003	2.2304291E-001	-1.5220648E-005
3	0	1.644313175111383E+003	2.2295934E-001	-3.4306191E-005
3	0	1.644813175098752E+003	2.2288263E-001	-9.1562819E-005
3	0	1.645313175086121E+003	2.2280091E-001	3.8648941E-006
3	0	1.645813175073490E+003	2.2270726E-001	6.1121522E-005
3	0	1.646313175060859E+003	2.2258590E-001	-1.2973390E-004
3	0	1.646813175048228E+003	2.2247933E-001	-5.3391734E-005
3	0	1.647313175035597E+003	2.2241558E-001	3.8648941E-006
3	0	1.647813175022966E+003	2.2235507E-001	-1.4881945E-004
3	0	1.648313175010335E+003	2.2228570E-001	2.2950437E-005
3	0	1.648813174997704E+003	2.2221358E-001	-7.2477276E-005
3	0	1.649313174985073E+003	2.2213686E-001	-5.3391734E-005
3	0	1.649813174972442E+003	2.2203785E-001	-1.1064836E-004
3	0	1.650313174959811E+003	2.2191092E-001	8.0207064E-005
3	0	1.650813174947180E+003	2.2180606E-001	-1.1064836E-004
3	0	1.651313174934548E+003	2.2173761E-001	8.0207064E-005
3	0	1.651813174921917E+003	2.2166759E-001	-3.4306191E-005
3	0	1.652313174909286E+003	2.2159269E-001	8.0207064E-005
3	0	1.652813174896655E+003	2.2152069E-001	-1.8699054E-004
3	0	1.653313174884024E+003	2.2144857E-001	-1.2973390E-004
3	0	1.653813174871393E+003	2.2136107E-001	-5.3391734E-005
3	0	1.653847174870534E+003	2.2128887E-001	-3.2058934E-004