EC-Lab ASCII FILE
Nb header lines : 55                          

Open Circuit Voltage

Run on channel : 1 (SN 81504)
User : 
CE vs. WE compliance from -10 V to 10 V
Electrode connection : standard
Potential control : Ewe
Ewe ctrl range : min = -2.50 V, max = 2.50 V
Safety Limits :
	Do not start on E overload
Acquisition started on : 05/07/2026 15:46:26.830
Loaded Setting File :  C:\PEM-WE_measurements\2026\372_IV_IV IrOx, 5 min Pt, 30 min C, etched cathode\new station\Loopeis new\1,46 V different time gaps open cell\Loopeis 1,46V_45s_3_PEIS from 6500Hz to 1000Hz.mps
Saved on :
	File : L_08_Loopeis 1,46V_45s_3_PEIS from 6500Hz to 1000Hz_12_OCV_C01.mpr
	Directory : C:\PEM-WE_measurements\2026\372_IV_IV IrOx, 5 min Pt, 30 min C, etched cathode\new station\Loopeis new\1,46 V different time gaps open cell\
	Host : 192.168.0.2
Device : SP-150e (SN .005491)
Address : 192.168.0.91
EC-LAB for windows v11.71 (software)
Internet server v28.00 (firmware)
Command interpretor v14.01 (firmware)
Electrode material : 
Initial state : 
Electrolyte : 
Comments : 
Current amplifier : SP-150eB-20A
Electrode surface area : 0.001 cm²
Characteristic mass : 0.001 g
Equivalent Weight : 0.000 g/eq.
Density : 0.000 g/cm3
Volume (V) : 0.001 cm³
Record Analogic IN 1
Text export
   Mode : Standard
   Time format : Elapsed
Cycle Definition : Charge/Discharge alternance
External device configuration :
   device type : Temperature Probe
   device name : Other
   Analog IN 1 : 
      unit : T/Â°C
      max : 100.000 at 2.000 V
      min : 0.000 at 1.460 V
tR (h:m:s)          0:00:45.0000        
dER/dt (mV/h)       1.0                 
record              <Ewe>               
dER (mV)            10.00               
dtR (s)             0.5000              
E range min (V)     -2.500              
E range max (V)     2.500               

mode	error	time/s	<Ewe/V>	Analog IN 1/V	
3	0	4.978339974174742E+002	1.0694687E+000	-2.7037677E+002
3	0	4.983339974048431E+002	1.2257612E+000	-2.7038031E+002
3	0	4.988339973922120E+002	1.1902343E+000	-2.7038031E+002
3	0	4.993339973795810E+002	1.1119332E+000	-2.7036618E+002
3	0	4.998339973669499E+002	8.4484631E-001	-2.7038742E+002
3	0	5.003339973543189E+002	4.3026310E-001	-2.7038031E+002
3	0	5.008339973416878E+002	3.2867301E-001	-2.7038742E+002
3	0	5.013339973290567E+002	3.1593627E-001	-2.7035913E+002
3	0	5.018339973164257E+002	3.0815321E-001	-2.7036972E+002
3	0	5.023339973037946E+002	3.0177674E-001	-2.7037326E+002
3	0	5.028339972911635E+002	2.9686236E-001	-2.7035913E+002
3	0	5.033339972785325E+002	2.9308411E-001	-2.7036972E+002
3	0	5.038339972659014E+002	2.9011568E-001	-2.7037677E+002
3	0	5.043339972532704E+002	2.8773463E-001	-2.7039093E+002
3	0	5.048339972406393E+002	2.8576171E-001	-2.7039801E+002
3	0	5.053339972280082E+002	2.8408423E-001	-2.7037677E+002
3	0	5.058339972153772E+002	2.8264874E-001	-2.7039093E+002
3	0	5.063339972027461E+002	2.8142130E-001	-2.7040506E+002
3	0	5.068339971901150E+002	2.8032690E-001	-2.7035559E+002
3	0	5.073339971774840E+002	2.7934393E-001	-2.7036267E+002
3	0	5.078339971648529E+002	2.7844205E-001	-2.7037326E+002
3	0	5.083339971522219E+002	2.7760175E-001	-2.7038742E+002
3	0	5.088339971395908E+002	2.7679637E-001	-2.7037677E+002
3	0	5.093339971269597E+002	2.7602550E-001	-2.7036267E+002
3	0	5.098339971143287E+002	2.7529633E-001	-2.7038742E+002
3	0	5.103339971016976E+002	2.7463233E-001	-2.7038385E+002
3	0	5.108339970890665E+002	2.7399415E-001	-2.7038031E+002
3	0	5.113339970764355E+002	2.7337053E-001	-2.7036267E+002
3	0	5.118339970638044E+002	2.7276012E-001	-2.7038031E+002
3	0	5.123339970511734E+002	2.7217495E-001	-2.7039093E+002
3	0	5.128339970385423E+002	2.7157801E-001	-2.7037326E+002
3	0	5.133339970259112E+002	2.7096829E-001	-2.7040506E+002
3	0	5.138339970132802E+002	2.7038217E-001	-2.7038742E+002
3	0	5.143339970006491E+002	2.6984161E-001	-2.7037677E+002
3	0	5.148339969880180E+002	2.6931077E-001	-2.7039093E+002
3	0	5.153339969753870E+002	2.6877075E-001	-2.7036267E+002
3	0	5.158339969627559E+002	2.6824796E-001	-2.7035205E+002
3	0	5.163339969501249E+002	2.6772460E-001	-2.7038031E+002
3	0	5.168339969374938E+002	2.6719910E-001	-2.7038742E+002
3	0	5.173339969248627E+002	2.6664877E-001	-2.7038385E+002
3	0	5.178339969122317E+002	2.6610863E-001	-2.7037677E+002
3	0	5.183339968996006E+002	2.6561266E-001	-2.7038742E+002
3	0	5.188339968869695E+002	2.6512370E-001	-2.7036618E+002
3	0	5.193339968743385E+002	2.6463729E-001	-2.7036972E+002
3	0	5.198339968617074E+002	2.6415256E-001	-2.7039447E+002
3	0	5.203339968490764E+002	2.6367092E-001	-2.7038031E+002
3	0	5.208339968364453E+002	2.6318040E-001	-2.7038031E+002
3	0	5.213339968238142E+002	2.6266736E-001	-2.7037677E+002
3	0	5.218339968111832E+002	2.6216462E-001	-2.7037677E+002
3	0	5.223339967985521E+002	2.6170829E-001	-2.7038385E+002
3	0	5.228339967859210E+002	2.6125282E-001	-2.7035205E+002
3	0	5.233339967732900E+002	2.6079616E-001	-2.7036972E+002
3	0	5.238339967606589E+002	2.6034322E-001	-2.7036972E+002
3	0	5.243339967480279E+002	2.5989023E-001	-2.7037677E+002
3	0	5.248339967353968E+002	2.5942710E-001	-2.7036267E+002
3	0	5.253339967227657E+002	2.5894791E-001	-2.7036972E+002
3	0	5.258339967101347E+002	2.5848132E-001	-2.7035913E+002
3	0	5.263339966975036E+002	2.5804749E-001	-2.7036972E+002
3	0	5.268339966848725E+002	2.5762218E-001	-2.7036972E+002
3	0	5.273339966722415E+002	2.5719053E-001	-2.7039801E+002
3	0	5.278339966596104E+002	2.5676700E-001	-2.7036972E+002
3	0	5.283339966469794E+002	2.5634804E-001	-2.7036972E+002
3	0	5.288339966343483E+002	2.5591511E-001	-2.7037326E+002
3	0	5.293339966217172E+002	2.5546965E-001	-2.7038031E+002
3	0	5.298339966090862E+002	2.5503099E-001	-2.7035559E+002
3	0	5.303339965964551E+002	2.5463551E-001	-2.7038385E+002
3	0	5.308339965838240E+002	2.5424364E-001	-2.7037677E+002
3	0	5.313339965711930E+002	2.5384346E-001	-2.7036618E+002
3	0	5.318339965585619E+002	2.5344741E-001	-2.7038031E+002
3	0	5.323339965459309E+002	2.5305551E-001	-2.7038031E+002
3	0	5.328339965332998E+002	2.5265130E-001	-2.7038031E+002
3	0	5.333339965206687E+002	2.5222856E-001	-2.7040155E+002
3	0	5.338339965080377E+002	2.5181994E-001	-2.7036972E+002
3	0	5.343339964954066E+002	2.5144494E-001	-2.7038742E+002
3	0	5.348339964827755E+002	2.5108454E-001	-2.7038385E+002
3	0	5.353339964701445E+002	2.5071186E-001	-2.7038385E+002
3	0	5.358339964575134E+002	2.5035048E-001	-2.7036972E+002
3	0	5.363339964448824E+002	2.4998192E-001	-2.7040860E+002
3	0	5.368339964322513E+002	2.4960135E-001	-2.7039447E+002
3	0	5.373339964196202E+002	2.4920928E-001	-2.7039801E+002
3	0	5.378339964069892E+002	2.4882640E-001	-2.7040155E+002
3	0	5.383339963943581E+002	2.4848109E-001	-2.7036972E+002
3	0	5.388339963817270E+002	2.4813922E-001	-2.7038031E+002
3	0	5.393339963690960E+002	2.4780317E-001	-2.7036972E+002
3	0	5.398339963564649E+002	2.4746458E-001	-2.7038742E+002
3	0	5.403339963438339E+002	2.4712743E-001	-2.7037677E+002
3	0	5.408339963312028E+002	2.4678117E-001	-2.7040155E+002
3	0	5.413339963185717E+002	2.4641956E-001	-2.7036972E+002
3	0	5.418339963059407E+002	2.4606571E-001	-2.7038385E+002
3	0	5.423339962933096E+002	2.4575916E-001	-2.7036267E+002
3	0	5.423585962926882E+002	2.4560332E-001	-2.7037326E+002