EC-Lab ASCII FILE
Nb header lines : 55                          

Open Circuit Voltage

Run on channel : 1 (SN 81504)
User : 
CE vs. WE compliance from -10 V to 10 V
Electrode connection : standard
Potential control : Ewe
Ewe ctrl range : min = -2.50 V, max = 2.50 V
Safety Limits :
	Do not start on E overload
Acquisition started on : 05/10/2026 01:27:16.117
Loaded Setting File :  C:\PEM-WE_measurements\2026\372_IV_IV IrOx, 5 min Pt, 30 min C, etched cathode\new station\Loopeis new\1,46 V different time gaps closed cell\Loopeis 1,46V_45s_5_PEIS from 65Hz to 10Hz.mps
Saved on :
	File : L_10_Loopeis 1,46V_45s_5_PEIS from 65Hz to 10Hz_18_OCV_C01.mpr
	Directory : C:\PEM-WE_measurements\2026\372_IV_IV IrOx, 5 min Pt, 30 min C, etched cathode\new station\Loopeis new\1,46 V different time gaps closed cell\
	Host : 192.168.0.2
Device : SP-150e (SN .005491)
Address : 192.168.0.91
EC-LAB for windows v11.71 (software)
Internet server v28.00 (firmware)
Command interpretor v14.01 (firmware)
Electrode material : 
Initial state : 
Electrolyte : 
Comments : 
Current amplifier : SP-150eB-20A
Electrode surface area : 0.001 cm²
Characteristic mass : 0.001 g
Equivalent Weight : 0.000 g/eq.
Density : 0.000 g/cm3
Volume (V) : 0.001 cm³
Record Analogic IN 1
Text export
   Mode : Standard
   Time format : Elapsed
Cycle Definition : Charge/Discharge alternance
External device configuration :
   device type : Temperature Probe
   device name : Other
   Analog IN 1 : 
      unit : T/Â°C
      max : 100.000 at 2.000 V
      min : 0.000 at 1.460 V
tR (h:m:s)          0:00:45.0000        
dER/dt (mV/h)       1.0                 
record              <Ewe>               
dER (mV)            10.00               
dtR (s)             0.5000              
E range min (V)     -2.500              
E range max (V)     2.500               

mode	error	time/s	<Ewe/V>	Analog IN 1/V	
3	0	1.256883017097498E+003	1.4190015E+000	-2.7038031E+002
3	0	1.257383017084867E+003	1.4108224E+000	-2.7038742E+002
3	0	1.257883017072236E+003	1.4051558E+000	-2.7038385E+002
3	0	1.258383017059605E+003	1.4008889E+000	-2.7039801E+002
3	0	1.258883017046974E+003	1.3975288E+000	-2.7037677E+002
3	0	1.259383017034343E+003	1.3947693E+000	-2.7038385E+002
3	0	1.259883017021712E+003	1.3924007E+000	-2.7039447E+002
3	0	1.260383017009081E+003	1.3903096E+000	-2.7038742E+002
3	0	1.260883016996449E+003	1.3884567E+000	-2.7039801E+002
3	0	1.261383016983818E+003	1.3867601E+000	-2.7039801E+002
3	0	1.261883016971187E+003	1.3851192E+000	-2.7039447E+002
3	0	1.262383016958556E+003	1.3835382E+000	-2.7038742E+002
3	0	1.262883016945925E+003	1.3821199E+000	-2.7037326E+002
3	0	1.263383016933294E+003	1.3808365E+000	-2.7035913E+002
3	0	1.263883016920663E+003	1.3797045E+000	-2.7037677E+002
3	0	1.264383016908032E+003	1.3787076E+000	-2.7036267E+002
3	0	1.264883016895401E+003	1.3777837E+000	-2.7037326E+002
3	0	1.265383016882770E+003	1.3768761E+000	-2.7036267E+002
3	0	1.265883016870139E+003	1.3759505E+000	-2.7037677E+002
3	0	1.266383016857508E+003	1.3749928E+000	-2.7040860E+002
3	0	1.266883016844877E+003	1.3741341E+000	-2.7038742E+002
3	0	1.267383016832246E+003	1.3733522E+000	-2.7039801E+002
3	0	1.267883016819615E+003	1.3725988E+000	-2.7037677E+002
3	0	1.268383016806984E+003	1.3718756E+000	-2.7036618E+002
3	0	1.268883016794352E+003	1.3711758E+000	-2.7037677E+002
3	0	1.269383016781721E+003	1.3704842E+000	-2.7039093E+002
3	0	1.269883016769090E+003	1.3697575E+000	-2.7038742E+002
3	0	1.270383016756459E+003	1.3689815E+000	-2.7038031E+002
3	0	1.270883016743828E+003	1.3682959E+000	-2.7038031E+002
3	0	1.271383016731197E+003	1.3676561E+000	-2.7037677E+002
3	0	1.271883016718566E+003	1.3670311E+000	-2.7037326E+002
3	0	1.272383016705935E+003	1.3664197E+000	-2.7037326E+002
3	0	1.272883016693304E+003	1.3658302E+000	-2.7036972E+002
3	0	1.273383016680673E+003	1.3652266E+000	-2.7039801E+002
3	0	1.273883016668042E+003	1.3645891E+000	-2.7037677E+002
3	0	1.274383016655411E+003	1.3638971E+000	-2.7040155E+002
3	0	1.274883016642780E+003	1.3632971E+000	-2.7038742E+002
3	0	1.275383016630149E+003	1.3627387E+000	-2.7039801E+002
3	0	1.275883016617518E+003	1.3622030E+000	-2.7039447E+002
3	0	1.276383016604887E+003	1.3616744E+000	-2.7036972E+002
3	0	1.276883016592255E+003	1.3611619E+000	-2.7035913E+002
3	0	1.277383016579624E+003	1.3606441E+000	-2.7037677E+002
3	0	1.277883016566993E+003	1.3600818E+000	-2.7037677E+002
3	0	1.278383016554362E+003	1.3594711E+000	-2.7036972E+002
3	0	1.278883016541731E+003	1.3589398E+000	-2.7039801E+002
3	0	1.279383016529100E+003	1.3584554E+000	-2.7037677E+002
3	0	1.279883016516469E+003	1.3579781E+000	-2.7037677E+002
3	0	1.280383016503838E+003	1.3574980E+000	-2.7040506E+002
3	0	1.280883016491207E+003	1.3570408E+000	-2.7036267E+002
3	0	1.281383016478576E+003	1.3565655E+000	-2.7036972E+002
3	0	1.281883016465945E+003	1.3560338E+000	-2.7036972E+002
3	0	1.282383016453314E+003	1.3554603E+000	-2.7038385E+002
3	0	1.282883016440683E+003	1.3549577E+000	-2.7036618E+002
3	0	1.283383016428052E+003	1.3544905E+000	-2.7038385E+002
3	0	1.283883016415421E+003	1.3540225E+000	-2.7040155E+002
3	0	1.284383016402790E+003	1.3535717E+000	-2.7036267E+002
3	0	1.284883016390158E+003	1.3531246E+000	-2.7038742E+002
3	0	1.285383016377527E+003	1.3526577E+000	-2.7038031E+002
3	0	1.285883016364896E+003	1.3521404E+000	-2.7037677E+002
3	0	1.286383016352265E+003	1.3515719E+000	-2.7039447E+002
3	0	1.286883016339634E+003	1.3510797E+000	-2.7035913E+002
3	0	1.287383016327003E+003	1.3506196E+000	-2.7036972E+002
3	0	1.287883016314372E+003	1.3501655E+000	-2.7038385E+002
3	0	1.288383016301741E+003	1.3497244E+000	-2.7040860E+002
3	0	1.288883016289110E+003	1.3493217E+000	-2.7035559E+002
3	0	1.289383016276479E+003	1.3489072E+000	-2.7038742E+002
3	0	1.289883016263848E+003	1.3484417E+000	-2.7036972E+002
3	0	1.290383016251217E+003	1.3479162E+000	-2.7038031E+002
3	0	1.290883016238586E+003	1.3474468E+000	-2.7038031E+002
3	0	1.291383016225955E+003	1.3470190E+000	-2.7038031E+002
3	0	1.291883016213324E+003	1.3465790E+000	-2.7034851E+002
3	0	1.292383016200693E+003	1.3461356E+000	-2.7038742E+002
3	0	1.292883016188061E+003	1.3456931E+000	-2.7038742E+002
3	0	1.293383016175430E+003	1.3452318E+000	-2.7036618E+002
3	0	1.293883016162799E+003	1.3447002E+000	-2.7037677E+002
3	0	1.294383016150168E+003	1.3441279E+000	-2.7037677E+002
3	0	1.294883016137537E+003	1.3436264E+000	-2.7039447E+002
3	0	1.295383016124906E+003	1.3431594E+000	-2.7038742E+002
3	0	1.295883016112275E+003	1.3427067E+000	-2.7036267E+002
3	0	1.296383016099644E+003	1.3422483E+000	-2.7036972E+002
3	0	1.296883016087013E+003	1.3418070E+000	-2.7036618E+002
3	0	1.297383016074382E+003	1.3413481E+000	-2.7039447E+002
3	0	1.297883016061751E+003	1.3408335E+000	-2.7038031E+002
3	0	1.298383016049120E+003	1.3402655E+000	-2.7038031E+002
3	0	1.298883016036489E+003	1.3397694E+000	-2.7035913E+002
3	0	1.299383016023858E+003	1.3393161E+000	-2.7037326E+002
3	0	1.299883016011227E+003	1.3388650E+000	-2.7039801E+002
3	0	1.300383015998596E+003	1.3384085E+000	-2.7035205E+002
3	0	1.300883015985964E+003	1.3379631E+000	-2.7037677E+002
3	0	1.301383015973333E+003	1.3374927E+000	-2.7036972E+002
3	0	1.301383415973323E+003	1.3372576E+000	-2.7036972E+002