EC-Lab ASCII FILE
Nb header lines : 55                          

Open Circuit Voltage

Run on channel : 1 (SN 81504)
User : 
CE vs. WE compliance from -10 V to 10 V
Electrode connection : standard
Potential control : Ewe
Ewe ctrl range : min = -2.50 V, max = 2.50 V
Safety Limits :
	Do not start on E overload
Acquisition started on : 05/07/2026 21:17:54.184
Loaded Setting File :  C:\PEM-WE_measurements\2026\372_IV_IV IrOx, 5 min Pt, 30 min C, etched cathode\new station\Loopeis new\1,46 V different time gaps open cell\Loopeis 1,46V_120s_3_PEIS from 6500Hz to 1000Hz.mps
Saved on :
	File : L_23_Loopeis 1,46V_120s_3_PEIS from 6500Hz to 1000Hz_16_OCV_C01.mpr
	Directory : C:\PEM-WE_measurements\2026\372_IV_IV IrOx, 5 min Pt, 30 min C, etched cathode\new station\Loopeis new\1,46 V different time gaps open cell\
	Host : 192.168.0.2
Device : SP-150e (SN .005491)
Address : 192.168.0.91
EC-LAB for windows v11.71 (software)
Internet server v28.00 (firmware)
Command interpretor v14.01 (firmware)
Electrode material : 
Initial state : 
Electrolyte : 
Comments : 
Current amplifier : SP-150eB-20A
Electrode surface area : 0.001 cm²
Characteristic mass : 0.001 g
Equivalent Weight : 0.000 g/eq.
Density : 0.000 g/cm3
Volume (V) : 0.001 cm³
Record Analogic IN 1
Text export
   Mode : Standard
   Time format : Elapsed
Cycle Definition : Charge/Discharge alternance
External device configuration :
   device type : Temperature Probe
   device name : Other
   Analog IN 1 : 
      unit : T/Â°C
      max : 100.000 at 2.000 V
      min : 0.000 at 1.460 V
tR (h:m:s)          0:02:0.0000         
dER/dt (mV/h)       1.0                 
record              <Ewe>               
dER (mV)            10.00               
dtR (s)             0.5000              
E range min (V)     -2.500              
E range max (V)     2.500               

mode	error	time/s	<Ewe/V>	Analog IN 1/V	
3	0	1.204823782976309E+003	9.5406932E-001	-2.7036972E+002
3	0	1.205323782963678E+003	1.1459548E+000	-2.7038385E+002
3	0	1.205823782951047E+003	8.4060729E-001	-2.7036972E+002
3	0	1.206323782938416E+003	4.1951531E-001	-2.7039093E+002
3	0	1.206823782925785E+003	3.2223004E-001	-2.7035559E+002
3	0	1.207323782913154E+003	3.1085423E-001	-2.7036972E+002
3	0	1.207823782900523E+003	3.0409533E-001	-2.7039447E+002
3	0	1.208323782887892E+003	2.9840681E-001	-2.7036972E+002
3	0	1.208823782875261E+003	2.9394558E-001	-2.7036972E+002
3	0	1.209323782862630E+003	2.9048502E-001	-2.7039447E+002
3	0	1.209823782849999E+003	2.8775319E-001	-2.7038031E+002
3	0	1.210323782837368E+003	2.8554603E-001	-2.7038385E+002
3	0	1.210823782824737E+003	2.8372455E-001	-2.7040155E+002
3	0	1.211323782812105E+003	2.8218362E-001	-2.7036618E+002
3	0	1.211823782799474E+003	2.8084236E-001	-2.7036972E+002
3	0	1.212323782786843E+003	2.7965087E-001	-2.7038031E+002
3	0	1.212823782774212E+003	2.7859247E-001	-2.7038742E+002
3	0	1.213323782761581E+003	2.7766389E-001	-2.7036618E+002
3	0	1.213823782748950E+003	2.7680263E-001	-2.7039447E+002
3	0	1.214323782736319E+003	2.7600855E-001	-2.7037326E+002
3	0	1.214823782723688E+003	2.7526546E-001	-2.7036618E+002
3	0	1.215323782711057E+003	2.7456844E-001	-2.7038031E+002
3	0	1.215823782698426E+003	2.7388290E-001	-2.7040155E+002
3	0	1.216323782685795E+003	2.7320462E-001	-2.7038031E+002
3	0	1.216823782673164E+003	2.7255136E-001	-2.7037677E+002
3	0	1.217323782660533E+003	2.7196136E-001	-2.7036618E+002
3	0	1.217823782647902E+003	2.7137119E-001	-2.7037326E+002
3	0	1.218323782635271E+003	2.7080578E-001	-2.7038742E+002
3	0	1.218823782622640E+003	2.7024513E-001	-2.7037677E+002
3	0	1.219323782610008E+003	2.6970196E-001	-2.7041568E+002
3	0	1.219823782597377E+003	2.6915568E-001	-2.7037677E+002
3	0	1.220323782584746E+003	2.6859370E-001	-2.7037326E+002
3	0	1.220823782572115E+003	2.6803625E-001	-2.7038742E+002
3	0	1.221323782559484E+003	2.6752415E-001	-2.7037677E+002
3	0	1.221823782546853E+003	2.6701200E-001	-2.7038385E+002
3	0	1.222323782534222E+003	2.6650837E-001	-2.7035913E+002
3	0	1.222823782521591E+003	2.6601312E-001	-2.7040155E+002
3	0	1.223323782508960E+003	2.6552260E-001	-2.7038742E+002
3	0	1.223823782496329E+003	2.6501673E-001	-2.7039801E+002
3	0	1.224323782483698E+003	2.6450655E-001	-2.7038031E+002
3	0	1.224823782471067E+003	2.6401305E-001	-2.7040155E+002
3	0	1.225323782458436E+003	2.6354691E-001	-2.7038031E+002
3	0	1.225823782445805E+003	2.6307857E-001	-2.7038385E+002
3	0	1.226323782433174E+003	2.6262385E-001	-2.7038742E+002
3	0	1.226823782420543E+003	2.6216927E-001	-2.7035205E+002
3	0	1.227323782407911E+003	2.6172054E-001	-2.7038031E+002
3	0	1.227823782395280E+003	2.6125613E-001	-2.7038742E+002
3	0	1.228323782382649E+003	2.6077768E-001	-2.7038742E+002
3	0	1.228823782370018E+003	2.6030719E-001	-2.7036267E+002
3	0	1.229323782357387E+003	2.5988036E-001	-2.7036618E+002
3	0	1.229823782344756E+003	2.5944743E-001	-2.7036267E+002
3	0	1.230323782332125E+003	2.5901899E-001	-2.7038031E+002
3	0	1.230823782319494E+003	2.5859606E-001	-2.7036618E+002
3	0	1.231323782306863E+003	2.5817880E-001	-2.7035913E+002
3	0	1.231823782294232E+003	2.5774762E-001	-2.7038031E+002
3	0	1.232323782281601E+003	2.5729945E-001	-2.7037677E+002
3	0	1.232823782268970E+003	2.5686720E-001	-2.7036972E+002
3	0	1.233323782256339E+003	2.5647154E-001	-2.7038385E+002
3	0	1.233823782243708E+003	2.5607073E-001	-2.7040155E+002
3	0	1.234323782231077E+003	2.5567222E-001	-2.7038742E+002
3	0	1.234823782218446E+003	2.5527924E-001	-2.7039093E+002
3	0	1.235323782205815E+003	2.5489560E-001	-2.7038031E+002
3	0	1.235823782193183E+003	2.5449634E-001	-2.7037677E+002
3	0	1.236323782180552E+003	2.5408292E-001	-2.7036618E+002
3	0	1.236823782167921E+003	2.5368041E-001	-2.7039447E+002
3	0	1.237323782155290E+003	2.5331378E-001	-2.7037677E+002
3	0	1.237823782142659E+003	2.5294599E-001	-2.7038031E+002
3	0	1.238323782130028E+003	2.5257760E-001	-2.7037326E+002
3	0	1.238823782117397E+003	2.5221583E-001	-2.7038031E+002
3	0	1.239323782104766E+003	2.5185248E-001	-2.7036972E+002
3	0	1.239823782092135E+003	2.5148046E-001	-2.7036972E+002
3	0	1.240323782079504E+003	2.5109112E-001	-2.7038385E+002
3	0	1.240823782066873E+003	2.5071564E-001	-2.7038742E+002
3	0	1.241323782054242E+003	2.5037917E-001	-2.7039093E+002
3	0	1.241823782041611E+003	2.5003767E-001	-2.7039447E+002
3	0	1.242323782028980E+003	2.4970341E-001	-2.7036267E+002
3	0	1.242823782016349E+003	2.4937354E-001	-2.7039447E+002
3	0	1.243323782003718E+003	2.4904601E-001	-2.7038742E+002
3	0	1.243823781991086E+003	2.4870573E-001	-2.7036972E+002
3	0	1.244323781978455E+003	2.4834821E-001	-2.7036618E+002
3	0	1.244823781965824E+003	2.4800763E-001	-2.7039801E+002
3	0	1.245323781953193E+003	2.4770038E-001	-2.7037326E+002
3	0	1.245823781940562E+003	2.4738458E-001	-2.7036972E+002
3	0	1.246323781927931E+003	2.4707235E-001	-2.7036618E+002
3	0	1.246823781915300E+003	2.4676983E-001	-2.7039447E+002
3	0	1.247323781902669E+003	2.4647057E-001	-2.7038385E+002
3	0	1.247823781890038E+003	2.4615306E-001	-2.7036618E+002
3	0	1.248323781877407E+003	2.4582623E-001	-2.7036618E+002
3	0	1.248823781864776E+003	2.4550699E-001	-2.7036972E+002
3	0	1.249323781852145E+003	2.4522708E-001	-2.7036972E+002
3	0	1.249823781839514E+003	2.4493803E-001	-2.7036972E+002
3	0	1.250323781826883E+003	2.4464962E-001	-2.7038385E+002
3	0	1.250823781814252E+003	2.4437267E-001	-2.7036267E+002
3	0	1.251323781801621E+003	2.4409135E-001	-2.7040506E+002
3	0	1.251823781788989E+003	2.4379352E-001	-2.7036972E+002
3	0	1.252323781776358E+003	2.4348776E-001	-2.7036267E+002
3	0	1.252823781763727E+003	2.4319422E-001	-2.7039093E+002
3	0	1.253323781751096E+003	2.4293573E-001	-2.7036267E+002
3	0	1.253823781738465E+003	2.4267526E-001	-2.7036618E+002
3	0	1.254323781725834E+003	2.4241273E-001	-2.7041919E+002
3	0	1.254823781713203E+003	2.4215746E-001	-2.7040155E+002
3	0	1.255323781700572E+003	2.4190672E-001	-2.7036618E+002
3	0	1.255823781687941E+003	2.4163702E-001	-2.7038742E+002
3	0	1.256323781675310E+003	2.4135345E-001	-2.7040155E+002
3	0	1.256823781662679E+003	2.4107982E-001	-2.7037326E+002
3	0	1.257323781650048E+003	2.4085175E-001	-2.7039093E+002
3	0	1.257823781637417E+003	2.4061346E-001	-2.7037677E+002
3	0	1.258323781624786E+003	2.4037310E-001	-2.7035913E+002
3	0	1.258823781612155E+003	2.4014418E-001	-2.7036972E+002
3	0	1.259323781599524E+003	2.3991019E-001	-2.7035913E+002
3	0	1.259823781586892E+003	2.3966134E-001	-2.7037677E+002
3	0	1.260323781574261E+003	2.3939638E-001	-2.7036618E+002
3	0	1.260823781561630E+003	2.3914020E-001	-2.7039447E+002
3	0	1.261323781548999E+003	2.3893209E-001	-2.7039801E+002
3	0	1.261823781536368E+003	2.3870848E-001	-2.7038742E+002
3	0	1.262323781523737E+003	2.3849562E-001	-2.7037326E+002
3	0	1.262823781511106E+003	2.3828211E-001	-2.7039093E+002
3	0	1.263323781498475E+003	2.3806386E-001	-2.7034851E+002
3	0	1.263823781485844E+003	2.3783700E-001	-2.7036267E+002
3	0	1.264323781473213E+003	2.3759551E-001	-2.7037677E+002
3	0	1.264823781460582E+003	2.3736261E-001	-2.7036972E+002
3	0	1.265323781447951E+003	2.3716959E-001	-2.7039801E+002
3	0	1.265823781435320E+003	2.3696913E-001	-2.7037326E+002
3	0	1.266323781422689E+003	2.3677520E-001	-2.7036267E+002
3	0	1.266823781410058E+003	2.3658289E-001	-2.7038742E+002
3	0	1.267323781397427E+003	2.3638879E-001	-2.7036972E+002
3	0	1.267823781384795E+003	2.3618259E-001	-2.7037677E+002
3	0	1.268323781372164E+003	2.3595558E-001	-2.7038742E+002
3	0	1.268823781359533E+003	2.3574075E-001	-2.7038385E+002
3	0	1.269323781346902E+003	2.3557433E-001	-2.7038385E+002
3	0	1.269823781334271E+003	2.3539762E-001	-2.7035913E+002
3	0	1.270323781321640E+003	2.3522492E-001	-2.7036618E+002
3	0	1.270823781309009E+003	2.3504132E-001	-2.7039447E+002
3	0	1.271323781296378E+003	2.3486231E-001	-2.7036618E+002
3	0	1.271823781283747E+003	2.3467262E-001	-2.7038742E+002
3	0	1.272323781271116E+003	2.3446454E-001	-2.7039801E+002
3	0	1.272823781258485E+003	2.3426591E-001	-2.7036972E+002
3	0	1.273323781245854E+003	2.3411085E-001	-2.7035913E+002
3	0	1.273823781233223E+003	2.3394510E-001	-2.7038385E+002
3	0	1.274323781220592E+003	2.3377804E-001	-2.7039447E+002
3	0	1.274823781207961E+003	2.3361054E-001	-2.7038385E+002
3	0	1.275323781195330E+003	2.3341522E-001	-2.7036267E+002
3	0	1.275823781182698E+003	2.3324071E-001	-2.7039801E+002
3	0	1.276323781170067E+003	2.3307101E-001	-2.7036618E+002
3	0	1.276823781157436E+003	2.3290472E-001	-2.7038385E+002
3	0	1.277323781144805E+003	2.3277123E-001	-2.7037677E+002
3	0	1.277823781132174E+003	2.3262160E-001	-2.7041214E+002
3	0	1.278323781119543E+003	2.3247384E-001	-2.7037326E+002
3	0	1.278823781106912E+003	2.3232572E-001	-2.7036618E+002
3	0	1.279323781094281E+003	2.3217535E-001	-2.7038385E+002
3	0	1.279823781081650E+003	2.3200202E-001	-2.7037326E+002
3	0	1.280323781069019E+003	2.3180990E-001	-2.7035205E+002
3	0	1.280823781056388E+003	2.3162635E-001	-2.7038742E+002
3	0	1.281323781043757E+003	2.3148429E-001	-2.7038031E+002
3	0	1.281823781031126E+003	2.3134996E-001	-2.7037677E+002
3	0	1.282323781018495E+003	2.3120533E-001	-2.7038385E+002
3	0	1.282823781005864E+003	2.3106259E-001	-2.7038031E+002
3	0	1.283323780993233E+003	2.3091567E-001	-2.7037677E+002
3	0	1.283823780980601E+003	2.3075578E-001	-2.7037677E+002
3	0	1.284323780967970E+003	2.3058005E-001	-2.7037326E+002
3	0	1.284823780955339E+003	2.3041603E-001	-2.7036972E+002
3	0	1.285323780942708E+003	2.3029840E-001	-2.7038385E+002
3	0	1.285823780930077E+003	2.3017415E-001	-2.7038385E+002
3	0	1.286323780917446E+003	2.3005322E-001	-2.7037677E+002
3	0	1.286823780904815E+003	2.2992186E-001	-2.7039093E+002
3	0	1.287323780892184E+003	2.2978780E-001	-2.7038742E+002
3	0	1.287823780879553E+003	2.2963202E-001	-2.7038385E+002
3	0	1.288323780866922E+003	2.2946334E-001	-2.7035559E+002
3	0	1.288823780854291E+003	2.2930616E-001	-2.7037677E+002
3	0	1.289323780841660E+003	2.2919545E-001	-2.7038385E+002
3	0	1.289823780829029E+003	2.2908002E-001	-2.7040860E+002
3	0	1.290323780816398E+003	2.2896060E-001	-2.7038031E+002
3	0	1.290823780803767E+003	2.2884105E-001	-2.7037677E+002
3	0	1.291323780791136E+003	2.2871622E-001	-2.7037677E+002
3	0	1.291823780778504E+003	2.2857791E-001	-2.7037677E+002
3	0	1.292323780765873E+003	2.2841503E-001	-2.7038742E+002
3	0	1.292823780753242E+003	2.2826986E-001	-2.7036267E+002
3	0	1.293323780740611E+003	2.2816524E-001	-2.7038742E+002
3	0	1.293823780727980E+003	2.2806595E-001	-2.7038031E+002
3	0	1.294323780715349E+003	2.2794926E-001	-2.7038742E+002
3	0	1.294823780702718E+003	2.2783248E-001	-2.7041214E+002
3	0	1.295323780690087E+003	2.2771463E-001	-2.7036618E+002
3	0	1.295823780677456E+003	2.2758839E-001	-2.7037326E+002
3	0	1.296323780664825E+003	2.2744054E-001	-2.7039801E+002
3	0	1.296823780652194E+003	2.2730191E-001	-2.7040155E+002
3	0	1.297323780639563E+003	2.2720453E-001	-2.7036618E+002
3	0	1.297823780626932E+003	2.2710951E-001	-2.7036972E+002
3	0	1.298323780614301E+003	2.2700851E-001	-2.7036267E+002
3	0	1.298823780601670E+003	2.2690299E-001	-2.7038742E+002
3	0	1.299323780589039E+003	2.2679090E-001	-2.7041568E+002
3	0	1.299823780576407E+003	2.2667049E-001	-2.7035205E+002
3	0	1.300323780563776E+003	2.2652125E-001	-2.7038742E+002
3	0	1.300823780551145E+003	2.2638771E-001	-2.7038385E+002
3	0	1.301323780538514E+003	2.2628847E-001	-2.7038742E+002
3	0	1.301823780525883E+003	2.2619815E-001	-2.7040155E+002
3	0	1.302323780513252E+003	2.2609757E-001	-2.7038031E+002
3	0	1.302823780500621E+003	2.2599459E-001	-2.7038385E+002
3	0	1.303323780487990E+003	2.2589076E-001	-2.7039093E+002
3	0	1.303823780475359E+003	2.2577564E-001	-2.7037677E+002
3	0	1.304323780462728E+003	2.2564046E-001	-2.7037677E+002
3	0	1.304823780450097E+003	2.2551952E-001	-2.7038031E+002
3	0	1.305323780437466E+003	2.2543697E-001	-2.7039093E+002
3	0	1.305823780424835E+003	2.2535580E-001	-2.7038031E+002
3	0	1.306323780412204E+003	2.2526695E-001	-2.7039447E+002
3	0	1.306823780399573E+003	2.2517775E-001	-2.7036972E+002
3	0	1.307323780386942E+003	2.2508134E-001	-2.7041568E+002
3	0	1.307823780374310E+003	2.2497022E-001	-2.7036618E+002
3	0	1.308323780361679E+003	2.2484976E-001	-2.7039801E+002
3	0	1.308823780349048E+003	2.2473161E-001	-2.7038385E+002
3	0	1.309323780336417E+003	2.2465497E-001	-2.7036267E+002
3	0	1.309823780323786E+003	2.2458339E-001	-2.7039801E+002
3	0	1.310323780311155E+003	2.2450075E-001	-2.7034851E+002
3	0	1.310823780298524E+003	2.2441964E-001	-2.7039093E+002
3	0	1.311323780285893E+003	2.2433615E-001	-2.7038742E+002
3	0	1.311823780273262E+003	2.2422226E-001	-2.7038385E+002
3	0	1.312323780260631E+003	2.2409049E-001	-2.7039093E+002
3	0	1.312823780248000E+003	2.2398114E-001	-2.7039801E+002
3	0	1.313323780235369E+003	2.2390936E-001	-2.7039801E+002
3	0	1.313823780222738E+003	2.2383754E-001	-2.7040155E+002
3	0	1.314323780210107E+003	2.2376260E-001	-2.7038742E+002
3	0	1.314823780197476E+003	2.2369017E-001	-2.7039447E+002
3	0	1.315323780184845E+003	2.2360995E-001	-2.7037326E+002
3	0	1.315823780172213E+003	2.2351688E-001	-2.7037677E+002
3	0	1.316323780159582E+003	2.2339806E-001	-2.7036618E+002
3	0	1.316823780146951E+003	2.2328459E-001	-2.7038742E+002
3	0	1.317323780134320E+003	2.2321816E-001	-2.7038385E+002
3	0	1.317823780121689E+003	2.2315656E-001	-2.7038031E+002
3	0	1.318323780109058E+003	2.2308642E-001	-2.7036972E+002
3	0	1.318823780096427E+003	2.2300780E-001	-2.7038031E+002
3	0	1.319323780083796E+003	2.2292833E-001	-2.7038031E+002
3	0	1.319823780071165E+003	2.2282898E-001	-2.7038385E+002
3	0	1.320323780058534E+003	2.2270226E-001	-2.7034497E+002
3	0	1.320823780045903E+003	2.2258961E-001	-2.7037326E+002
3	0	1.321323780033272E+003	2.2252230E-001	-2.7036618E+002
3	0	1.321823780020641E+003	2.2245704E-001	-2.7036618E+002
3	0	1.322323780008010E+003	2.2238883E-001	-2.7039447E+002
3	0	1.322823779995379E+003	2.2231859E-001	-2.7037677E+002
3	0	1.323323779982748E+003	2.2224344E-001	-2.7039447E+002
3	0	1.323823779970116E+003	2.2215097E-001	-2.7038385E+002
3	0	1.324323779957485E+003	2.2203094E-001	-2.7037326E+002
3	0	1.324349379956839E+003	2.2197101E-001	-2.7040506E+002