EC-Lab ASCII FILE
Nb header lines : 55                          

Open Circuit Voltage

Run on channel : 1 (SN 81504)
User : 
CE vs. WE compliance from -10 V to 10 V
Electrode connection : standard
Potential control : Ewe
Ewe ctrl range : min = -2.50 V, max = 2.50 V
Safety Limits :
	Do not start on E overload
Acquisition started on : 05/10/2026 07:17:37.794
Loaded Setting File :  C:\PEM-WE_measurements\2026\372_IV_IV IrOx, 5 min Pt, 30 min C, etched cathode\new station\Loopeis new\1,46 V different time gaps closed cell\Loopeis 1,46V_120s_5_PEIS from 65Hz to 10Hz.mps
Saved on :
	File : L_25_Loopeis 1,46V_120s_5_PEIS from 65Hz to 10Hz_20_OCV_C01.mpr
	Directory : C:\PEM-WE_measurements\2026\372_IV_IV IrOx, 5 min Pt, 30 min C, etched cathode\new station\Loopeis new\1,46 V different time gaps closed cell\
	Host : 192.168.0.2
Device : SP-150e (SN .005491)
Address : 192.168.0.91
EC-LAB for windows v11.71 (software)
Internet server v28.00 (firmware)
Command interpretor v14.01 (firmware)
Electrode material : 
Initial state : 
Electrolyte : 
Comments : 
Current amplifier : SP-150eB-20A
Electrode surface area : 0.001 cm²
Characteristic mass : 0.001 g
Equivalent Weight : 0.000 g/eq.
Density : 0.000 g/cm3
Volume (V) : 0.001 cm³
Record Analogic IN 1
Text export
   Mode : Standard
   Time format : Elapsed
Cycle Definition : Charge/Discharge alternance
External device configuration :
   device type : Temperature Probe
   device name : Other
   Analog IN 1 : 
      unit : T/Â°C
      max : 100.000 at 2.000 V
      min : 0.000 at 1.460 V
tR (h:m:s)          0:02:0.0000         
dER/dt (mV/h)       1.0                 
record              <Ewe>               
dER (mV)            10.00               
dtR (s)             0.5000              
E range min (V)     -2.500              
E range max (V)     2.500               

mode	error	time/s	<Ewe/V>	Analog IN 1/V	
3	0	1.677631584696792E+003	1.2910028E+000	-2.7037677E+002
3	0	1.678131584684161E+003	1.2980237E+000	-2.7038385E+002
3	0	1.678631584671530E+003	1.2966464E+000	-2.7035913E+002
3	0	1.679131584658899E+003	1.2919078E+000	-2.7036618E+002
3	0	1.679631584646268E+003	1.2822425E+000	-2.7037326E+002
3	0	1.680131584633637E+003	1.2655096E+000	-2.7041214E+002
3	0	1.680631584621005E+003	1.2384803E+000	-2.7038031E+002
3	0	1.681131584608374E+003	1.1945485E+000	-2.7035913E+002
3	0	1.681631584595743E+003	1.1128324E+000	-2.7040506E+002
3	0	1.682131584583112E+003	8.6732543E-001	-2.7038385E+002
3	0	1.682631584570481E+003	5.6129485E-001	-2.7036972E+002
3	0	1.683131584557850E+003	4.6519500E-001	-2.7038031E+002
3	0	1.683631584545219E+003	4.3347684E-001	-2.7037326E+002
3	0	1.684131584532588E+003	4.2320862E-001	-2.7039801E+002
3	0	1.684631584519957E+003	4.1859213E-001	-2.7038031E+002
3	0	1.685131584507326E+003	4.1550726E-001	-2.7039801E+002
3	0	1.685631584494695E+003	4.1296437E-001	-2.7037326E+002
3	0	1.686131584482064E+003	4.1052166E-001	-2.7037677E+002
3	0	1.686631584469433E+003	4.0858561E-001	-2.7037326E+002
3	0	1.687131584456802E+003	4.0777329E-001	-2.7036972E+002
3	0	1.687631584444171E+003	4.0694007E-001	-2.7037677E+002
3	0	1.688131584431540E+003	4.0615547E-001	-2.7038742E+002
3	0	1.688631584418908E+003	4.0550959E-001	-2.7038031E+002
3	0	1.689131584406277E+003	4.0511522E-001	-2.7037677E+002
3	0	1.689631584393646E+003	4.0481994E-001	-2.7038385E+002
3	0	1.690131584381015E+003	4.0455782E-001	-2.7037677E+002
3	0	1.690631584368384E+003	4.0459880E-001	-2.7037326E+002
3	0	1.691131584355753E+003	4.0554628E-001	-2.7036972E+002
3	0	1.691631584343122E+003	4.0645927E-001	-2.7036267E+002
3	0	1.692131584330491E+003	4.0733466E-001	-2.7037677E+002
3	0	1.692631584317860E+003	4.0826958E-001	-2.7039447E+002
3	0	1.693131584305229E+003	4.0916887E-001	-2.7036267E+002
3	0	1.693631584292598E+003	4.0990159E-001	-2.7037326E+002
3	0	1.694131584279967E+003	4.1026717E-001	-2.7036618E+002
3	0	1.694631584267336E+003	4.1075331E-001	-2.7039093E+002
3	0	1.695131584254705E+003	4.1188258E-001	-2.7037326E+002
3	0	1.695631584242074E+003	4.1272965E-001	-2.7038385E+002
3	0	1.696131584229443E+003	4.1343033E-001	-2.7038385E+002
3	0	1.696631584216811E+003	4.1412359E-001	-2.7034851E+002
3	0	1.697131584204180E+003	4.1466931E-001	-2.7038385E+002
3	0	1.697631584191549E+003	4.1511315E-001	-2.7036618E+002
3	0	1.698131584178918E+003	4.1517952E-001	-2.7037326E+002
3	0	1.698631584166287E+003	4.1533753E-001	-2.7035205E+002
3	0	1.699131584153656E+003	4.1624045E-001	-2.7037677E+002
3	0	1.699631584141025E+003	4.1685617E-001	-2.7039093E+002
3	0	1.700131584128394E+003	4.1727015E-001	-2.7038031E+002
3	0	1.700631584115763E+003	4.1760099E-001	-2.7036972E+002
3	0	1.701131584103132E+003	4.1788197E-001	-2.7035205E+002
3	0	1.701631584090501E+003	4.1796121E-001	-2.7038385E+002
3	0	1.702131584077870E+003	4.1769606E-001	-2.7038031E+002
3	0	1.702631584065239E+003	4.1749299E-001	-2.7037677E+002
3	0	1.703131584052608E+003	4.1802433E-001	-2.7038742E+002
3	0	1.703631584039977E+003	4.1833150E-001	-2.7037677E+002
3	0	1.704131584027346E+003	4.1845921E-001	-2.7039801E+002
3	0	1.704631584014714E+003	4.1851887E-001	-2.7037326E+002
3	0	1.705131584002083E+003	4.1851741E-001	-2.7034143E+002
3	0	1.705631583989452E+003	4.1829452E-001	-2.7036972E+002
3	0	1.706131583976821E+003	4.1771510E-001	-2.7037677E+002
3	0	1.706631583964190E+003	4.1723493E-001	-2.7035913E+002
3	0	1.707131583951559E+003	4.1746798E-001	-2.7039093E+002
3	0	1.707631583938928E+003	4.1751835E-001	-2.7035913E+002
3	0	1.708131583926297E+003	4.1739058E-001	-2.7036267E+002
3	0	1.708631583913666E+003	4.1726696E-001	-2.7038385E+002
3	0	1.709131583901035E+003	4.1726136E-001	-2.7035205E+002
3	0	1.709631583888404E+003	4.1722557E-001	-2.7037677E+002
3	0	1.710131583875773E+003	4.1700271E-001	-2.7036618E+002
3	0	1.710631583863142E+003	4.1698083E-001	-2.7036972E+002
3	0	1.711131583850511E+003	4.1786897E-001	-2.7037677E+002
3	0	1.711631583837880E+003	4.1875538E-001	-2.7037326E+002
3	0	1.712131583825249E+003	4.1964352E-001	-2.7038031E+002
3	0	1.712631583812617E+003	4.2047483E-001	-2.7038742E+002
3	0	1.713131583799986E+003	4.2124960E-001	-2.7036618E+002
3	0	1.713631583787355E+003	4.2180398E-001	-2.7036267E+002
3	0	1.714131583774724E+003	4.2200232E-001	-2.7036267E+002
3	0	1.714631583762093E+003	4.2217508E-001	-2.7038031E+002
3	0	1.715131583749462E+003	4.2296115E-001	-2.7036972E+002
3	0	1.715631583736831E+003	4.2355198E-001	-2.7036267E+002
3	0	1.716131583724200E+003	4.2391858E-001	-2.7036267E+002
3	0	1.716631583711569E+003	4.2419010E-001	-2.7037677E+002
3	0	1.717131583698938E+003	4.2437628E-001	-2.7035913E+002
3	0	1.717631583686307E+003	4.2434672E-001	-2.7039801E+002
3	0	1.718131583673676E+003	4.2396149E-001	-2.7038742E+002
3	0	1.718631583661045E+003	4.2358175E-001	-2.7037677E+002
3	0	1.719131583648414E+003	4.2387122E-001	-2.7039801E+002
3	0	1.719631583635783E+003	4.2395175E-001	-2.7038742E+002
3	0	1.720131583623152E+003	4.2383519E-001	-2.7036972E+002
3	0	1.720631583610520E+003	4.2363864E-001	-2.7039447E+002
3	0	1.721131583597889E+003	4.2339596E-001	-2.7036267E+002
3	0	1.721631583585258E+003	4.2292678E-001	-2.7038385E+002
3	0	1.722131583572627E+003	4.2210510E-001	-2.7038742E+002
3	0	1.722631583559996E+003	4.2124173E-001	-2.7038742E+002
3	0	1.723131583547365E+003	4.2112985E-001	-2.7038742E+002
3	0	1.723631583534734E+003	4.2084050E-001	-2.7038031E+002
3	0	1.724131583522103E+003	4.2036828E-001	-2.7037326E+002
3	0	1.724631583509472E+003	4.1976789E-001	-2.7038385E+002
3	0	1.725131583496841E+003	4.1921896E-001	-2.7039447E+002
3	0	1.725631583484210E+003	4.1838661E-001	-2.7039093E+002
3	0	1.726131583471579E+003	4.1722181E-001	-2.7038742E+002
3	0	1.726631583458948E+003	4.1619554E-001	-2.7039093E+002
3	0	1.727131583446317E+003	4.1583946E-001	-2.7037326E+002
3	0	1.727631583433686E+003	4.1529441E-001	-2.7039801E+002
3	0	1.728131583421055E+003	4.1467932E-001	-2.7039447E+002
3	0	1.728631583408423E+003	4.1406354E-001	-2.7037326E+002
3	0	1.729131583395792E+003	4.1345999E-001	-2.7038031E+002
3	0	1.729631583383161E+003	4.1284537E-001	-2.7037677E+002
3	0	1.730131583370530E+003	4.1216847E-001	-2.7036972E+002
3	0	1.730631583357899E+003	4.1177809E-001	-2.7037326E+002
3	0	1.731131583345268E+003	4.1216868E-001	-2.7036618E+002
3	0	1.731631583332637E+003	4.1251534E-001	-2.7037326E+002
3	0	1.732131583320006E+003	4.1291574E-001	-2.7036618E+002
3	0	1.732631583307375E+003	4.1333854E-001	-2.7036267E+002
3	0	1.733131583294744E+003	4.1372418E-001	-2.7036972E+002
3	0	1.733631583282113E+003	4.1396090E-001	-2.7039093E+002
3	0	1.734131583269482E+003	4.1384685E-001	-2.7038385E+002
3	0	1.734631583256851E+003	4.1373450E-001	-2.7037677E+002
3	0	1.735131583244220E+003	4.1417694E-001	-2.7037326E+002
3	0	1.735631583231589E+003	4.1439259E-001	-2.7039801E+002
3	0	1.736131583218958E+003	4.1445193E-001	-2.7037677E+002
3	0	1.736631583206326E+003	4.1440719E-001	-2.7038742E+002
3	0	1.737131583193695E+003	4.1426164E-001	-2.7035205E+002
3	0	1.737631583181064E+003	4.1390201E-001	-2.7038385E+002
3	0	1.738131583168433E+003	4.1326004E-001	-2.7036618E+002
3	0	1.738631583155802E+003	4.1269627E-001	-2.7039447E+002
3	0	1.739131583143171E+003	4.1271380E-001	-2.7035559E+002
3	0	1.739631583130540E+003	4.1256085E-001	-2.7039801E+002
3	0	1.740131583117909E+003	4.1226071E-001	-2.7038385E+002
3	0	1.740631583105278E+003	4.1185936E-001	-2.7035913E+002
3	0	1.741131583092647E+003	4.1142908E-001	-2.7039093E+002
3	0	1.741631583080016E+003	4.1076985E-001	-2.7036267E+002
3	0	1.742131583067385E+003	4.0986788E-001	-2.7038742E+002
3	0	1.742631583054754E+003	4.0901867E-001	-2.7038385E+002
3	0	1.743131583042123E+003	4.0875471E-001	-2.7037326E+002
3	0	1.743631583029492E+003	4.0833089E-001	-2.7039093E+002
3	0	1.744131583016861E+003	4.0783355E-001	-2.7036618E+002
3	0	1.744631583004229E+003	4.0725550E-001	-2.7038742E+002
3	0	1.745131582991598E+003	4.0664595E-001	-2.7038031E+002
3	0	1.745631582978967E+003	4.0591863E-001	-2.7038031E+002
3	0	1.746131582966336E+003	4.0495524E-001	-2.7039801E+002
3	0	1.746631582953705E+003	4.0406451E-001	-2.7036618E+002
3	0	1.747131582941074E+003	4.0376514E-001	-2.7038031E+002
3	0	1.747631582928443E+003	4.0331629E-001	-2.7039093E+002
3	0	1.748131582915812E+003	4.0279090E-001	-2.7036267E+002
3	0	1.748631582903181E+003	4.0223023E-001	-2.7038742E+002
3	0	1.749131582890550E+003	4.0167621E-001	-2.7039447E+002
3	0	1.749631582877919E+003	4.0106905E-001	-2.7035559E+002
3	0	1.750131582865288E+003	4.0044165E-001	-2.7039447E+002
3	0	1.750631582852657E+003	4.0003675E-001	-2.7037326E+002
3	0	1.751131582840026E+003	4.0025264E-001	-2.7039801E+002
3	0	1.751631582827395E+003	4.0047550E-001	-2.7040155E+002
3	0	1.752131582814764E+003	4.0070599E-001	-2.7036618E+002
3	0	1.752631582802132E+003	4.0091217E-001	-2.7038031E+002
3	0	1.753131582789501E+003	4.0104625E-001	-2.7037677E+002
3	0	1.753631582776870E+003	4.0105456E-001	-2.7039093E+002
3	0	1.754131582764239E+003	4.0082195E-001	-2.7038031E+002
3	0	1.754631582751608E+003	4.0055811E-001	-2.7037326E+002
3	0	1.755131582738977E+003	4.0076578E-001	-2.7037677E+002
3	0	1.755631582726346E+003	4.0080816E-001	-2.7038031E+002
3	0	1.756131582713715E+003	4.0074641E-001	-2.7040506E+002
3	0	1.756631582701084E+003	4.0062791E-001	-2.7036618E+002
3	0	1.757131582688453E+003	4.0043318E-001	-2.7034497E+002
3	0	1.757631582675822E+003	4.0005818E-001	-2.7036267E+002
3	0	1.758131582663191E+003	3.9947936E-001	-2.7037677E+002
3	0	1.758631582650560E+003	3.9891228E-001	-2.7038385E+002
3	0	1.759131582637929E+003	3.9883110E-001	-2.7037677E+002
3	0	1.759631582625298E+003	3.9861631E-001	-2.7035913E+002
3	0	1.760131582612667E+003	3.9832076E-001	-2.7039093E+002
3	0	1.760631582600035E+003	3.9793280E-001	-2.7037677E+002
3	0	1.761131582587404E+003	3.9749083E-001	-2.7037677E+002
3	0	1.761631582574773E+003	3.9695984E-001	-2.7038385E+002
3	0	1.762131582562142E+003	3.9626610E-001	-2.7037677E+002
3	0	1.762631582549511E+003	3.9558414E-001	-2.7036267E+002
3	0	1.763131582536880E+003	3.9533895E-001	-2.7037326E+002
3	0	1.763631582524249E+003	3.9502025E-001	-2.7039447E+002
3	0	1.764131582511618E+003	3.9464620E-001	-2.7037677E+002
3	0	1.764631582498987E+003	3.9422897E-001	-2.7036267E+002
3	0	1.765131582486356E+003	3.9376745E-001	-2.7036972E+002
3	0	1.765631582473725E+003	3.9321193E-001	-2.7037326E+002
3	0	1.766131582461094E+003	3.9246148E-001	-2.7037326E+002
3	0	1.766631582448463E+003	3.9180100E-001	-2.7036972E+002
3	0	1.767131582435832E+003	3.9157772E-001	-2.7039093E+002
3	0	1.767631582423201E+003	3.9128017E-001	-2.7037677E+002
3	0	1.768131582410570E+003	3.9091760E-001	-2.7037677E+002
3	0	1.768631582397938E+003	3.9054513E-001	-2.7037677E+002
3	0	1.769131582385307E+003	3.9013740E-001	-2.7038742E+002
3	0	1.769631582372676E+003	3.8973323E-001	-2.7039093E+002
3	0	1.770131582360045E+003	3.8929349E-001	-2.7038031E+002
3	0	1.770631582347414E+003	3.8897118E-001	-2.7040860E+002
3	0	1.771131582334783E+003	3.8916174E-001	-2.7036618E+002
3	0	1.771631582322152E+003	3.8936841E-001	-2.7038385E+002
3	0	1.772131582309521E+003	3.8959974E-001	-2.7038742E+002
3	0	1.772631582296890E+003	3.8980228E-001	-2.7039447E+002
3	0	1.773131582284259E+003	3.8994247E-001	-2.7038385E+002
3	0	1.773631582271628E+003	3.8997701E-001	-2.7038385E+002
3	0	1.774131582258997E+003	3.8984013E-001	-2.7039093E+002
3	0	1.774631582246366E+003	3.8967055E-001	-2.7036972E+002
3	0	1.775131582233735E+003	3.8986722E-001	-2.7039093E+002
3	0	1.775631582221104E+003	3.8995042E-001	-2.7035913E+002
3	0	1.776131582208473E+003	3.8993934E-001	-2.7040860E+002
3	0	1.776631582195841E+003	3.8988578E-001	-2.7038031E+002
3	0	1.777131582183210E+003	3.8970664E-001	-2.7035559E+002
3	0	1.777631582170579E+003	3.8940382E-001	-2.7038031E+002
3	0	1.778131582157948E+003	3.8893336E-001	-2.7034851E+002
3	0	1.778631582145317E+003	3.8847750E-001	-2.7036618E+002
3	0	1.779131582132686E+003	3.8841337E-001	-2.7037677E+002
3	0	1.779631582120055E+003	3.8825637E-001	-2.7038385E+002
3	0	1.780131582107424E+003	3.8802862E-001	-2.7039801E+002
3	0	1.780631582094793E+003	3.8776359E-001	-2.7038031E+002
3	0	1.781131582082162E+003	3.8740948E-001	-2.7039093E+002
3	0	1.781631582069531E+003	3.8697347E-001	-2.7037677E+002
3	0	1.782131582056900E+003	3.8640949E-001	-2.7039093E+002
3	0	1.782631582044269E+003	3.8585860E-001	-2.7036972E+002
3	0	1.783131582031638E+003	3.8569254E-001	-2.7039447E+002
3	0	1.783631582019007E+003	3.8543600E-001	-2.7038031E+002
3	0	1.784131582006376E+003	3.8514486E-001	-2.7034497E+002
3	0	1.784631581993744E+003	3.8481173E-001	-2.7038385E+002
3	0	1.785131581981113E+003	3.8442692E-001	-2.7039447E+002
3	0	1.785631581968482E+003	3.8398015E-001	-2.7038385E+002
3	0	1.786131581955851E+003	3.8339522E-001	-2.7039447E+002
3	0	1.786631581943220E+003	3.8285226E-001	-2.7038385E+002
3	0	1.787131581930589E+003	3.8265985E-001	-2.7037677E+002
3	0	1.787631581917958E+003	3.8242126E-001	-2.7037677E+002
3	0	1.788131581905327E+003	3.8214171E-001	-2.7038031E+002
3	0	1.788631581892696E+003	3.8179401E-001	-2.7035559E+002
3	0	1.789131581880065E+003	3.8144225E-001	-2.7035913E+002
3	0	1.789631581867434E+003	3.8105416E-001	-2.7037677E+002
3	0	1.790131581854803E+003	3.8062620E-001	-2.7037677E+002
3	0	1.790631581842172E+003	3.8031891E-001	-2.7038385E+002
3	0	1.791131581829541E+003	3.8044646E-001	-2.7039801E+002
3	0	1.791631581816910E+003	3.8059559E-001	-2.7036618E+002
3	0	1.792131581804279E+003	3.8078633E-001	-2.7038031E+002
3	0	1.792631581791647E+003	3.8097006E-001	-2.7039093E+002
3	0	1.793131581779016E+003	3.8112196E-001	-2.7037326E+002
3	0	1.793631581766385E+003	3.8117716E-001	-2.7038742E+002
3	0	1.794131581753754E+003	3.8107085E-001	-2.7037677E+002
3	0	1.794631581741123E+003	3.8094518E-001	-2.7037677E+002
3	0	1.795131581728492E+003	3.8111481E-001	-2.7038742E+002
3	0	1.795631581715861E+003	3.8119176E-001	-2.7038385E+002
3	0	1.796131581703230E+003	3.8121167E-001	-2.7039447E+002
3	0	1.796631581690599E+003	3.8115233E-001	-2.7037677E+002
3	0	1.797131581677968E+003	3.8100088E-001	-2.7040860E+002
3	0	1.797156181677346E+003	3.8087636E-001	-2.7038385E+002