EC-Lab ASCII FILE
Nb header lines : 48                          

Open Circuit Voltage

Run on channel : 1 (SN 81504)
User : 
CE vs. WE compliance from -10 V to 10 V
Electrode connection : standard
Potential control : Ewe
Ewe ctrl range : min = -2.50 V, max = 2.50 V
Safety Limits :
	Do not start on E overload
Acquisition started on : 05/10/2026 08:28:58.550
Loaded Setting File :  C:\PEM-WE_measurements\2026\372_IV_IV IrOx, 5 min Pt, 30 min C, etched cathode\new station\Loopeis new\1,46 V different time gaps closed cell\Loopeis 1,46V_180s_2_PEIS from 65kHz to 10kHz.mps
Saved on :
	File : L_27_Loopeis 1,46V_180s_2_PEIS from 65kHz to 10kHz_14_OCV_C01.mpr
	Directory : C:\PEM-WE_measurements\2026\372_IV_IV IrOx, 5 min Pt, 30 min C, etched cathode\new station\Loopeis new\1,46 V different time gaps closed cell\
	Host : 192.168.0.2
Device : SP-150e (SN .005491)
Address : 192.168.0.91
EC-LAB for windows v11.71 (software)
Internet server v28.00 (firmware)
Command interpretor v14.01 (firmware)
Electrode material : 
Initial state : 
Electrolyte : 
Comments : 
Current amplifier : SP-150eB-20A
Electrode surface area : 0.001 cm²
Characteristic mass : 0.001 g
Equivalent Weight : 0.000 g/eq.
Density : 0.000 g/cm3
Volume (V) : 0.001 cm³
Record Analogic IN 1
Text export
   Mode : Standard
   Time format : Elapsed
Cycle Definition : Charge/Discharge alternance
tR (h:m:s)          0:03:0.0000         
dER/dt (mV/h)       1.0                 
record              <Ewe>               
dER (mV)            10.00               
dtR (s)             0.5000              
E range min (V)     -2.500              
E range max (V)     2.500               

mode	error	time/s	<Ewe/V>	Analog IN 1/V	
3	0	1.395337151123589E+003	1.2907501E+000	3.8648941E-006
3	0	1.395837151110958E+003	1.2967142E+000	6.1121522E-005
3	0	1.396337151098327E+003	1.2827983E+000	-1.2973390E-004
3	0	1.396837151085696E+003	1.2569187E+000	-5.3391734E-005
3	0	1.397337151073065E+003	1.2136964E+000	-7.2477276E-005
3	0	1.397837151060434E+003	1.1362237E+000	-5.3391734E-005
3	0	1.398337151047803E+003	8.6852497E-001	-1.1064836E-004
3	0	1.398837151035172E+003	4.9004841E-001	2.2950437E-005
3	0	1.399337151022541E+003	3.8309410E-001	9.9292607E-005
3	0	1.399837151009910E+003	3.6394113E-001	2.2950437E-005
3	0	1.400337150997279E+003	3.6130407E-001	-9.1562819E-005
3	0	1.400837150984647E+003	3.6154297E-001	6.1121522E-005
3	0	1.401337150972016E+003	3.6209905E-001	4.2035979E-005
3	0	1.401837150959385E+003	3.6255488E-001	-5.3391734E-005
3	0	1.402337150946754E+003	3.6317667E-001	4.2035979E-005
3	0	1.402837150934123E+003	3.6359879E-001	-1.5220648E-005
3	0	1.403337150921492E+003	3.6378226E-001	-3.4306191E-005
3	0	1.403837150908861E+003	3.6390877E-001	-7.2477276E-005
3	0	1.404337150896230E+003	3.6405972E-001	-3.4306191E-005
3	0	1.404837150883599E+003	3.6415800E-001	-1.4881945E-004
3	0	1.405337150870968E+003	3.6415100E-001	-1.5220648E-005
3	0	1.405837150858337E+003	3.6417970E-001	-1.4881945E-004
3	0	1.406337150845706E+003	3.6454928E-001	4.2035979E-005
3	0	1.406837150833075E+003	3.6488771E-001	-3.4306191E-005
3	0	1.407337150820444E+003	3.6507705E-001	-7.2477276E-005
3	0	1.407837150807813E+003	3.6521351E-001	-9.1562819E-005
3	0	1.408337150795182E+003	3.6537567E-001	3.8648941E-006
3	0	1.408837150782550E+003	3.6544883E-001	-1.1064836E-004
3	0	1.409337150769919E+003	3.6542657E-001	3.8648941E-006
3	0	1.409837150757288E+003	3.6542463E-001	2.2950437E-005
3	0	1.410337150744657E+003	3.6576727E-001	4.2035979E-005
3	0	1.410837150732026E+003	3.6609772E-001	-3.4306191E-005
3	0	1.411337150719395E+003	3.6628318E-001	2.2950437E-005
3	0	1.411837150706764E+003	3.6639652E-001	-1.5220648E-005
3	0	1.412337150694133E+003	3.6653748E-001	-1.5220648E-005
3	0	1.412837150681502E+003	3.6658052E-001	6.1121522E-005
3	0	1.413337150668871E+003	3.6656249E-001	-7.2477276E-005
3	0	1.413837150656240E+003	3.6657110E-001	-3.4306191E-005
3	0	1.414337150643609E+003	3.6699176E-001	-1.2973390E-004
3	0	1.414837150630978E+003	3.6743686E-001	1.5654923E-004
3	0	1.415337150618347E+003	3.6779225E-001	3.8648941E-006
3	0	1.415837150605716E+003	3.6811593E-001	2.2950437E-005
3	0	1.416337150593085E+003	3.6849970E-001	6.1121522E-005
3	0	1.416837150580453E+003	3.6880887E-001	-1.2973390E-004
3	0	1.417337150567822E+003	3.6900228E-001	-7.2477276E-005
3	0	1.417837150555191E+003	3.6916393E-001	-5.3391734E-005
3	0	1.418337150542560E+003	3.6962202E-001	-5.3391734E-005
3	0	1.418837150529929E+003	3.7003952E-001	3.8648941E-006
3	0	1.419337150517298E+003	3.7029985E-001	8.0207064E-005
3	0	1.419837150504667E+003	3.7042972E-001	-7.2477276E-005
3	0	1.420337150492036E+003	3.7057620E-001	-7.2477276E-005
3	0	1.420837150479405E+003	3.7060058E-001	2.2950437E-005
3	0	1.421337150466774E+003	3.7051475E-001	-9.1562819E-005
3	0	1.421837150454143E+003	3.7046000E-001	-9.1562819E-005
3	0	1.422337150441512E+003	3.7069729E-001	-3.4306191E-005
3	0	1.422837150428881E+003	3.7092593E-001	9.9292607E-005
3	0	1.423337150416250E+003	3.7100905E-001	-9.1562819E-005
3	0	1.423837150403619E+003	3.7099403E-001	3.8648941E-006
3	0	1.424337150390988E+003	3.7100065E-001	-1.5220648E-005
3	0	1.424837150378356E+003	3.7093416E-001	4.2035979E-005
3	0	1.425337150365725E+003	3.7073433E-001	-1.2973390E-004
3	0	1.425837150353094E+003	3.7054816E-001	3.8648941E-006
3	0	1.426337150340463E+003	3.7070534E-001	-3.4306191E-005
3	0	1.426837150327832E+003	3.7083361E-001	-1.6790499E-004
3	0	1.427337150315201E+003	3.7083408E-001	-7.2477276E-005
3	0	1.427837150302570E+003	3.7073791E-001	2.2950437E-005
3	0	1.428337150289939E+003	3.7066305E-001	2.2950437E-005
3	0	1.428837150277308E+003	3.7055078E-001	-1.5220648E-005
3	0	1.429337150264677E+003	3.7033853E-001	6.1121522E-005
3	0	1.429837150252046E+003	3.7011877E-001	2.2950437E-005
3	0	1.430337150239415E+003	3.7021089E-001	-5.3391734E-005
3	0	1.430837150226784E+003	3.7031543E-001	9.9292607E-005
3	0	1.431337150214153E+003	3.7030751E-001	3.8648941E-006
3	0	1.431837150201522E+003	3.7020421E-001	-1.4881945E-004
3	0	1.432337150188891E+003	3.7010875E-001	-1.1064836E-004
3	0	1.432837150176259E+003	3.6994162E-001	8.0207064E-005
3	0	1.433337150163628E+003	3.6966071E-001	-3.4306191E-005
3	0	1.433837150150997E+003	3.6946908E-001	3.8648941E-006
3	0	1.434337150138366E+003	3.6965221E-001	-5.3391734E-005
3	0	1.434837150125735E+003	3.6988303E-001	-9.1562819E-005
3	0	1.435337150113104E+003	3.7003881E-001	3.8648941E-006
3	0	1.435837150100473E+003	3.7017033E-001	-7.2477276E-005
3	0	1.436337150087842E+003	3.7036490E-001	3.8648941E-006
3	0	1.436837150075211E+003	3.7056395E-001	-1.4881945E-004
3	0	1.437337150062580E+003	3.7061778E-001	-1.2973390E-004
3	0	1.437837150049949E+003	3.7064752E-001	-9.1562819E-005
3	0	1.438337150037318E+003	3.7096861E-001	4.2035979E-005
3	0	1.438837150024687E+003	3.7123638E-001	1.3746369E-004
3	0	1.439337150012056E+003	3.7133488E-001	-1.6790499E-004
3	0	1.439837149999425E+003	3.7131199E-001	2.2950437E-005
3	0	1.440337149986794E+003	3.7128907E-001	-1.4881945E-004
3	0	1.440837149974162E+003	3.7121686E-001	-5.3391734E-005
3	0	1.441337149961531E+003	3.7101495E-001	-3.4306191E-005
3	0	1.441837149948900E+003	3.7078905E-001	-9.1562819E-005
3	0	1.442337149936269E+003	3.7086111E-001	-1.5220648E-005
3	0	1.442837149923638E+003	3.7094659E-001	-3.4306191E-005
3	0	1.443337149911007E+003	3.7090155E-001	-9.1562819E-005
3	0	1.443837149898376E+003	3.7075093E-001	2.2950437E-005
3	0	1.444337149885745E+003	3.7060145E-001	-3.4306191E-005
3	0	1.444837149873114E+003	3.7041205E-001	-7.2477276E-005
3	0	1.445337149860483E+003	3.7009537E-001	3.8648941E-006
3	0	1.445837149847852E+003	3.6979577E-001	-3.4306191E-005
3	0	1.446337149835221E+003	3.6981532E-001	-1.8699054E-004
3	0	1.446837149822590E+003	3.6981934E-001	-1.6790499E-004
3	0	1.447337149809959E+003	3.6974221E-001	2.2950437E-005
3	0	1.447837149797328E+003	3.6955646E-001	-1.1064836E-004
3	0	1.448337149784697E+003	3.6938113E-001	-7.2477276E-005
3	0	1.448837149772065E+003	3.6916736E-001	-1.6790499E-004
3	0	1.449337149759434E+003	3.6885205E-001	9.9292607E-005
3	0	1.449837149746803E+003	3.6851445E-001	-7.2477276E-005
3	0	1.450337149734172E+003	3.6849853E-001	-5.3391734E-005
3	0	1.450837149721541E+003	3.6848053E-001	4.2035979E-005
3	0	1.451337149708910E+003	3.6835340E-001	-1.1064836E-004
3	0	1.451837149696279E+003	3.6814353E-001	-5.3391734E-005
3	0	1.452337149683648E+003	3.6797383E-001	-1.5220648E-005
3	0	1.452837149671017E+003	3.6772612E-001	8.0207064E-005
3	0	1.453337149658386E+003	3.6740068E-001	-1.5220648E-005
3	0	1.453837149645755E+003	3.6709359E-001	3.8648941E-006
3	0	1.454337149633124E+003	3.6712238E-001	6.1121522E-005
3	0	1.454837149620493E+003	3.6724404E-001	-3.4306191E-005
3	0	1.455337149607862E+003	3.6732006E-001	6.1121522E-005
3	0	1.455837149595231E+003	3.6734852E-001	-7.2477276E-005
3	0	1.456337149582600E+003	3.6744007E-001	-1.4881945E-004
3	0	1.456837149569968E+003	3.6751881E-001	-7.2477276E-005
3	0	1.457337149557337E+003	3.6750692E-001	-1.1064836E-004
3	0	1.457837149544706E+003	3.6746952E-001	-7.2477276E-005
3	0	1.458337149532075E+003	3.6770448E-001	-2.2516162E-004
3	0	1.458837149519444E+003	3.6793512E-001	2.2950437E-005
3	0	1.459337149506813E+003	3.6802602E-001	2.2950437E-005
3	0	1.459837149494182E+003	3.6800048E-001	-1.6790499E-004
3	0	1.460337149481551E+003	3.6795339E-001	-3.4306191E-005
3	0	1.460837149468920E+003	3.6784616E-001	1.5654923E-004
3	0	1.461337149456289E+003	3.6759672E-001	-1.5220648E-005
3	0	1.461837149443658E+003	3.6730990E-001	-1.4881945E-004
3	0	1.462337149431027E+003	3.6732158E-001	-3.4306191E-005
3	0	1.462837149418396E+003	3.6735967E-001	-7.2477276E-005
3	0	1.463337149405765E+003	3.6726633E-001	4.2035979E-005
3	0	1.463837149393134E+003	3.6707780E-001	-5.3391734E-005
3	0	1.464337149380503E+003	3.6691150E-001	-7.2477276E-005
3	0	1.464837149367871E+003	3.6667216E-001	-5.3391734E-005
3	0	1.465337149355240E+003	3.6633313E-001	-3.4306191E-005
3	0	1.465837149342609E+003	3.6597291E-001	6.1121522E-005
3	0	1.466337149329978E+003	3.6588195E-001	-1.4881945E-004
3	0	1.466837149317347E+003	3.6584285E-001	4.2035979E-005
3	0	1.467337149304716E+003	3.6569843E-001	-1.5220648E-005
3	0	1.467837149292085E+003	3.6546236E-001	-3.4306191E-005
3	0	1.468337149279454E+003	3.6524060E-001	-5.3391734E-005
3	0	1.468837149266823E+003	3.6496496E-001	-1.1064836E-004
3	0	1.469337149254192E+003	3.6458737E-001	2.2950437E-005
3	0	1.469837149241561E+003	3.6418653E-001	-1.5220648E-005
3	0	1.470337149228930E+003	3.6409488E-001	3.8648941E-006
3	0	1.470837149216299E+003	3.6405301E-001	-9.1562819E-005
3	0	1.471337149203668E+003	3.6390185E-001	-5.3391734E-005
3	0	1.471837149191037E+003	3.6367440E-001	-3.4306191E-005
3	0	1.472337149178406E+003	3.6346966E-001	-5.3391734E-005
3	0	1.472837149165774E+003	3.6321583E-001	-1.8699054E-004
3	0	1.473337149153143E+003	3.6286765E-001	2.2950437E-005
3	0	1.473837149140512E+003	3.6250511E-001	-7.2477276E-005
3	0	1.474337149127881E+003	3.6247519E-001	-1.5220648E-005
3	0	1.474837149115250E+003	3.6255071E-001	-1.1064836E-004
3	0	1.475337149102619E+003	3.6260220E-001	6.1121522E-005
3	0	1.475837149089988E+003	3.6261746E-001	4.2035979E-005
3	0	1.476337149077357E+003	3.6267230E-001	-1.8699054E-004
3	0	1.476837149064726E+003	3.6273471E-001	-3.4306191E-005
3	0	1.477337149052095E+003	3.6271185E-001	-3.4306191E-005
3	0	1.477837149039464E+003	3.6264560E-001	-1.2973390E-004
3	0	1.478337149026833E+003	3.6282167E-001	-1.2973390E-004
3	0	1.478837149014202E+003	3.6303231E-001	-7.2477276E-005
3	0	1.479337149001571E+003	3.6312684E-001	4.2035979E-005
3	0	1.479837148988940E+003	3.6309451E-001	-1.1064836E-004
3	0	1.480337148976309E+003	3.6301583E-001	-1.1064836E-004
3	0	1.480837148963677E+003	3.6286840E-001	-5.3391734E-005
3	0	1.481337148951046E+003	3.6257911E-001	-3.4306191E-005
3	0	1.481837148938415E+003	3.6226055E-001	2.2950437E-005
3	0	1.482337148925784E+003	3.6221695E-001	-1.5220648E-005
3	0	1.482837148913153E+003	3.6221737E-001	-7.2477276E-005
3	0	1.483337148900522E+003	3.6211780E-001	-3.4306191E-005
3	0	1.483837148887891E+003	3.6192459E-001	-1.5220648E-005
3	0	1.484337148875260E+003	3.6174685E-001	-9.1562819E-005
3	0	1.484837148862629E+003	3.6144951E-001	4.2035979E-005
3	0	1.485337148849998E+003	3.6107832E-001	3.8648941E-006
3	0	1.485837148837367E+003	3.6070353E-001	-3.4306191E-005
3	0	1.486337148824736E+003	3.6061054E-001	3.8648941E-006
3	0	1.486837148812105E+003	3.6055380E-001	1.1837815E-004
3	0	1.487337148799474E+003	3.6040041E-001	-5.3391734E-005
3	0	1.487837148786843E+003	3.6015949E-001	-1.5220648E-005
3	0	1.488337148774212E+003	3.5991275E-001	-1.2973390E-004
3	0	1.488837148761580E+003	3.5963714E-001	-2.0607607E-004
3	0	1.489337148748949E+003	3.5927203E-001	-9.1562819E-005
3	0	1.489837148736318E+003	3.5890186E-001	3.8648941E-006
3	0	1.490337148723687E+003	3.5877851E-001	-9.1562819E-005
3	0	1.490837148711056E+003	3.5871461E-001	-1.1064836E-004
3	0	1.491337148698425E+003	3.5857028E-001	-5.3391734E-005
3	0	1.491837148685794E+003	3.5833275E-001	-9.1562819E-005
3	0	1.492337148673163E+003	3.5812682E-001	-1.1064836E-004
3	0	1.492837148660532E+003	3.5785377E-001	3.8648941E-006
3	0	1.493337148647901E+003	3.5749248E-001	-3.4306191E-005
3	0	1.493837148635270E+003	3.5714984E-001	-1.5220648E-005
3	0	1.494337148622639E+003	3.5708958E-001	-1.5220648E-005
3	0	1.494837148610008E+003	3.5713601E-001	2.2950437E-005
3	0	1.495337148597377E+003	3.5716850E-001	-1.4881945E-004
3	0	1.495837148584746E+003	3.5717449E-001	1.1837815E-004
3	0	1.496337148572115E+003	3.5720396E-001	2.2950437E-005
3	0	1.496837148559483E+003	3.5723048E-001	-1.2973390E-004
3	0	1.497337148546852E+003	3.5718039E-001	3.8648941E-006
3	0	1.497837148534221E+003	3.5713527E-001	2.2950437E-005
3	0	1.498337148521590E+003	3.5730636E-001	2.2950437E-005
3	0	1.498837148508959E+003	3.5750347E-001	-1.4881945E-004
3	0	1.499337148496328E+003	3.5759556E-001	6.1121522E-005
3	0	1.499837148483697E+003	3.5758710E-001	-1.6790499E-004
3	0	1.500337148471066E+003	3.5753179E-001	-5.3391734E-005
3	0	1.500837148458435E+003	3.5738173E-001	3.8648941E-006
3	0	1.501337148445804E+003	3.5713145E-001	-1.2973390E-004
3	0	1.501837148433173E+003	3.5684672E-001	-1.1064836E-004
3	0	1.502337148420542E+003	3.5680282E-001	-3.4306191E-005
3	0	1.502837148407911E+003	3.5680017E-001	-7.2477276E-005
3	0	1.503337148395280E+003	3.5670167E-001	-3.4306191E-005
3	0	1.503837148382649E+003	3.5650134E-001	-3.4306191E-005
3	0	1.504337148370018E+003	3.5630700E-001	-9.1562819E-005
3	0	1.504837148357386E+003	3.5602206E-001	6.1121522E-005
3	0	1.505337148344755E+003	3.5564795E-001	-1.1064836E-004
3	0	1.505837148332124E+003	3.5530806E-001	-1.1064836E-004
3	0	1.506337148319493E+003	3.5518518E-001	-1.5220648E-005
3	0	1.506837148306862E+003	3.5511225E-001	-1.1064836E-004
3	0	1.507337148294231E+003	3.5495773E-001	-9.1562819E-005
3	0	1.507837148281600E+003	3.5472894E-001	-1.5220648E-005
3	0	1.508337148268969E+003	3.5448676E-001	-7.2477276E-005
3	0	1.508837148256338E+003	3.5423097E-001	2.2950437E-005
3	0	1.509337148243707E+003	3.5386154E-001	-3.4306191E-005
3	0	1.509837148231076E+003	3.5346326E-001	-1.1064836E-004
3	0	1.510337148218445E+003	3.5332686E-001	-9.1562819E-005
3	0	1.510837148205814E+003	3.5324481E-001	-1.1064836E-004
3	0	1.511337148193183E+003	3.5308158E-001	3.8648941E-006
3	0	1.511837148180552E+003	3.5286143E-001	-1.2973390E-004
3	0	1.512337148167921E+003	3.5264334E-001	-7.2477276E-005
3	0	1.512837148155289E+003	3.5238773E-001	-1.5220648E-005
3	0	1.513337148142658E+003	3.5207665E-001	-1.5220648E-005
3	0	1.513837148130027E+003	3.5173997E-001	-1.1064836E-004
3	0	1.514337148117396E+003	3.5164565E-001	4.2035979E-005
3	0	1.514837148104765E+003	3.5167080E-001	-9.1562819E-005
3	0	1.515337148092134E+003	3.5167384E-001	-3.4306191E-005
3	0	1.515837148079503E+003	3.5164773E-001	3.8648941E-006
3	0	1.516337148066872E+003	3.5165817E-001	-1.5220648E-005
3	0	1.516837148054241E+003	3.5168606E-001	-3.4306191E-005
3	0	1.517337148041610E+003	3.5164288E-001	-5.3391734E-005
3	0	1.517837148028979E+003	3.5160497E-001	-7.2477276E-005
3	0	1.518337148016348E+003	3.5177329E-001	-7.2477276E-005
3	0	1.518837148003717E+003	3.5197040E-001	-1.8699054E-004
3	0	1.519337147991086E+003	3.5207179E-001	-3.4306191E-005
3	0	1.519837147978455E+003	3.5207093E-001	-5.3391734E-005
3	0	1.520337147965824E+003	3.5202500E-001	-9.1562819E-005
3	0	1.520837147953192E+003	3.5190222E-001	-7.2477276E-005
3	0	1.521337147940561E+003	3.5165790E-001	-5.3391734E-005
3	0	1.521837147927930E+003	3.5133988E-001	2.2950437E-005
3	0	1.522337147915299E+003	3.5123712E-001	-1.1064836E-004
3	0	1.522837147902668E+003	3.5119975E-001	-7.2477276E-005
3	0	1.523337147890037E+003	3.5108894E-001	-1.1064836E-004
3	0	1.523837147877406E+003	3.5089621E-001	-5.3391734E-005
3	0	1.524337147864775E+003	3.5072723E-001	4.2035979E-005
3	0	1.524837147852144E+003	3.5049942E-001	-7.2477276E-005
3	0	1.525337147839513E+003	3.5016021E-001	-9.1562819E-005
3	0	1.525837147826882E+003	3.4977704E-001	-1.4881945E-004
3	0	1.526337147814251E+003	3.4960687E-001	-5.3391734E-005
3	0	1.526837147801620E+003	3.4952450E-001	4.2035979E-005
3	0	1.527337147788989E+003	3.4938344E-001	-1.5220648E-005
3	0	1.527837147776358E+003	3.4916559E-001	-5.3391734E-005
3	0	1.528337147763727E+003	3.4893981E-001	-3.4306191E-005
3	0	1.528837147751095E+003	3.4866235E-001	-1.5220648E-005
3	0	1.529337147738464E+003	3.4831268E-001	-7.2477276E-005
3	0	1.529837147725833E+003	3.4795302E-001	4.2035979E-005
3	0	1.530337147713202E+003	3.4780997E-001	8.0207064E-005
3	0	1.530837147700571E+003	3.4773371E-001	-1.1064836E-004
3	0	1.531337147687940E+003	3.4760347E-001	-9.1562819E-005
3	0	1.531837147675309E+003	3.4739983E-001	4.2035979E-005
3	0	1.532337147662678E+003	3.4719017E-001	-5.3391734E-005
3	0	1.532837147650047E+003	3.4694389E-001	-5.3391734E-005
3	0	1.533337147637416E+003	3.4659883E-001	-3.4306191E-005
3	0	1.533837147624785E+003	3.4622905E-001	8.0207064E-005
3	0	1.534337147612154E+003	3.4608105E-001	4.2035979E-005
3	0	1.534837147599523E+003	3.4605876E-001	-5.3391734E-005
3	0	1.535337147586892E+003	3.4601012E-001	-1.1064836E-004
3	0	1.535837147574261E+003	3.4593597E-001	-9.1562819E-005
3	0	1.536337147561630E+003	3.4595263E-001	-7.2477276E-005
3	0	1.536837147548998E+003	3.4600049E-001	-1.4881945E-004
3	0	1.537337147536367E+003	3.4598067E-001	3.8648941E-006
3	0	1.537837147523736E+003	3.4594664E-001	-5.3391734E-005
3	0	1.538337147511105E+003	3.4611180E-001	-3.4306191E-005
3	0	1.538837147498474E+003	3.4632990E-001	4.2035979E-005
3	0	1.539337147485843E+003	3.4643462E-001	-1.5220648E-005
3	0	1.539837147473212E+003	3.4644681E-001	4.2035979E-005
3	0	1.540337147460581E+003	3.4638470E-001	3.8648941E-006
3	0	1.540837147447950E+003	3.4628066E-001	2.2950437E-005
3	0	1.541337147435319E+003	3.4605312E-001	-3.4306191E-005
3	0	1.541837147422688E+003	3.4577850E-001	-9.1562819E-005
3	0	1.542337147410057E+003	3.4568757E-001	-1.5220648E-005
3	0	1.542837147397426E+003	3.4566200E-001	8.0207064E-005
3	0	1.543337147384795E+003	3.4555614E-001	8.0207064E-005
3	0	1.543837147372164E+003	3.4538734E-001	-1.8699054E-004
3	0	1.544337147359533E+003	3.4520608E-001	-1.5220648E-005
3	0	1.544837147346901E+003	3.4498975E-001	-9.1562819E-005
3	0	1.545337147334270E+003	3.4466252E-001	-7.2477276E-005
3	0	1.545837147321639E+003	3.4429064E-001	-9.1562819E-005
3	0	1.546337147309008E+003	3.4411919E-001	-1.5220648E-005
3	0	1.546837147296377E+003	3.4400916E-001	-5.3391734E-005
3	0	1.547337147283746E+003	3.4383067E-001	-2.2516162E-004
3	0	1.547837147271115E+003	3.4363097E-001	-2.4424717E-004
3	0	1.548337147258484E+003	3.4343129E-001	-1.2973390E-004
3	0	1.548837147245853E+003	3.4315342E-001	4.2035979E-005
3	0	1.549337147233222E+003	3.4282008E-001	3.8648941E-006
3	0	1.549837147220591E+003	3.4247547E-001	-9.1562819E-005
3	0	1.550337147207960E+003	3.4229210E-001	-1.2973390E-004
3	0	1.550837147195329E+003	3.4218219E-001	3.8648941E-006
3	0	1.551337147182698E+003	3.4202597E-001	-5.3391734E-005
3	0	1.551837147170067E+003	3.4182140E-001	-5.3391734E-005
3	0	1.552337147157436E+003	3.4161904E-001	-9.1562819E-005
3	0	1.552837147144804E+003	3.4136531E-001	-3.4306191E-005
3	0	1.553337147132173E+003	3.4105182E-001	-1.8699054E-004
3	0	1.553837147119542E+003	3.4073421E-001	9.9292607E-005
3	0	1.554337147106911E+003	3.4062055E-001	-5.3391734E-005
3	0	1.554837147094280E+003	3.4059286E-001	-1.8699054E-004
3	0	1.555337147081649E+003	3.4054172E-001	-1.5220648E-005
3	0	1.555837147069018E+003	3.4050283E-001	-1.4881945E-004
3	0	1.556337147056387E+003	3.4049115E-001	-9.1562819E-005
3	0	1.556837147043756E+003	3.4049457E-001	-2.0607607E-004
3	0	1.557337147031125E+003	3.4046328E-001	3.8648941E-006
3	0	1.557837147018494E+003	3.4042811E-001	-5.3391734E-005
3	0	1.558337147005863E+003	3.4056497E-001	-3.4306191E-005
3	0	1.558837146993232E+003	3.4072536E-001	1.1837815E-004
3	0	1.559337146980601E+003	3.4080628E-001	-1.2973390E-004
3	0	1.559837146967970E+003	3.4079796E-001	-1.2973390E-004
3	0	1.560337146955339E+003	3.4076071E-001	-5.3391734E-005
3	0	1.560837146942707E+003	3.4063563E-001	4.2035979E-005
3	0	1.561337146930076E+003	3.4041908E-001	-1.4881945E-004
3	0	1.561837146917445E+003	3.4015167E-001	-5.3391734E-005
3	0	1.562337146904814E+003	3.4004730E-001	-1.5220648E-005
3	0	1.562837146892183E+003	3.4000155E-001	-1.6790499E-004
3	0	1.563337146879552E+003	3.3989590E-001	4.2035979E-005
3	0	1.563837146866921E+003	3.3974713E-001	2.2950437E-005
3	0	1.564337146854290E+003	3.3956602E-001	-3.4306191E-005
3	0	1.564837146841659E+003	3.3932021E-001	-9.1562819E-005
3	0	1.565337146829028E+003	3.3901918E-001	3.8648941E-006
3	0	1.565837146816397E+003	3.3867770E-001	-7.2477276E-005
3	0	1.566337146803766E+003	3.3850381E-001	2.2950437E-005
3	0	1.566837146791135E+003	3.3839172E-001	-3.4306191E-005
3	0	1.567337146778504E+003	3.3822742E-001	3.8648941E-006
3	0	1.567837146765873E+003	3.3803448E-001	-2.6333271E-004
3	0	1.568337146753242E+003	3.3784005E-001	-7.2477276E-005
3	0	1.568837146740610E+003	3.3759415E-001	-9.1562819E-005
3	0	1.569337146727979E+003	3.3729860E-001	-7.2477276E-005
3	0	1.569837146715348E+003	3.3696458E-001	-1.6790499E-004
3	0	1.570337146702717E+003	3.3678684E-001	-2.0607607E-004
3	0	1.570837146690086E+003	3.3667219E-001	4.2035979E-005
3	0	1.571337146677455E+003	3.3651325E-001	-9.1562819E-005
3	0	1.571837146664824E+003	3.3631501E-001	-1.1064836E-004
3	0	1.572337146652193E+003	3.3610621E-001	-1.2973390E-004
3	0	1.572837146639562E+003	3.3586505E-001	6.1121522E-005
3	0	1.573337146626931E+003	3.3554509E-001	-1.4881945E-004
3	0	1.573837146614300E+003	3.3520091E-001	-5.3391734E-005
3	0	1.574337146601669E+003	3.3502853E-001	3.8648941E-006
3	0	1.574837146589038E+003	3.3496505E-001	-7.2477276E-005
3	0	1.574837546589028E+003	3.3492950E-001	-1.1064836E-004