EC-Lab ASCII FILE
Nb header lines : 55                          

Open Circuit Voltage

Run on channel : 1 (SN 81504)
User : 
CE vs. WE compliance from -10 V to 10 V
Electrode connection : standard
Potential control : Ewe
Ewe ctrl range : min = -2.50 V, max = 2.50 V
Safety Limits :
	Do not start on E overload
Acquisition started on : 05/10/2026 06:49:56.074
Loaded Setting File :  C:\PEM-WE_measurements\2026\372_IV_IV IrOx, 5 min Pt, 30 min C, etched cathode\new station\Loopeis new\1,46 V different time gaps closed cell\Loopeis 1,46V_120s_4_PEIS from 650Hz to 100Hz.mps
Saved on :
	File : L_24_Loopeis 1,46V_120s_4_PEIS from 650Hz to 100Hz_20_OCV_C01.mpr
	Directory : C:\PEM-WE_measurements\2026\372_IV_IV IrOx, 5 min Pt, 30 min C, etched cathode\new station\Loopeis new\1,46 V different time gaps closed cell\
	Host : 192.168.0.2
Device : SP-150e (SN .005491)
Address : 192.168.0.91
EC-LAB for windows v11.71 (software)
Internet server v28.00 (firmware)
Command interpretor v14.01 (firmware)
Electrode material : 
Initial state : 
Electrolyte : 
Comments : 
Current amplifier : SP-150eB-20A
Electrode surface area : 0.001 cm²
Characteristic mass : 0.001 g
Equivalent Weight : 0.000 g/eq.
Density : 0.000 g/cm3
Volume (V) : 0.001 cm³
Record Analogic IN 1
Text export
   Mode : Standard
   Time format : Elapsed
Cycle Definition : Charge/Discharge alternance
External device configuration :
   device type : Temperature Probe
   device name : Other
   Analog IN 1 : 
      unit : T/Â°C
      max : 100.000 at 2.000 V
      min : 0.000 at 1.460 V
tR (h:m:s)          0:02:0.0000         
dER/dt (mV/h)       1.0                 
record              <Ewe>               
dER (mV)            10.00               
dtR (s)             0.5000              
E range min (V)     -2.500              
E range max (V)     2.500               

mode	error	time/s	<Ewe/V>	Analog IN 1/V	
3	0	1.537420578037127E+003	1.1233181E+000	-2.7036618E+002
3	0	1.537920578024496E+003	1.2583859E+000	-2.7036972E+002
3	0	1.538420578011865E+003	1.2557547E+000	-2.7039093E+002
3	0	1.538920577999234E+003	1.2467130E+000	-2.7035913E+002
3	0	1.539420577986602E+003	1.2289727E+000	-2.7039447E+002
3	0	1.539920577973971E+003	1.1990557E+000	-2.7036972E+002
3	0	1.540420577961340E+003	1.1503472E+000	-2.7038031E+002
3	0	1.540920577948709E+003	1.0635625E+000	-2.7039093E+002
3	0	1.541420577936078E+003	8.3004028E-001	-2.7041214E+002
3	0	1.541920577923447E+003	5.4551005E-001	-2.7037326E+002
3	0	1.542420577910816E+003	4.3525717E-001	-2.7036267E+002
3	0	1.542920577898185E+003	3.9791799E-001	-2.7036972E+002
3	0	1.543420577885554E+003	3.8709518E-001	-2.7038385E+002
3	0	1.543920577872923E+003	3.8273123E-001	-2.7038742E+002
3	0	1.544420577860292E+003	3.7992409E-001	-2.7036618E+002
3	0	1.544920577847661E+003	3.7827384E-001	-2.7036618E+002
3	0	1.545420577835030E+003	3.7706742E-001	-2.7038031E+002
3	0	1.545920577822399E+003	3.7588078E-001	-2.7037326E+002
3	0	1.546420577809768E+003	3.7469870E-001	-2.7038031E+002
3	0	1.546920577797137E+003	3.7366930E-001	-2.7035205E+002
3	0	1.547420577784505E+003	3.7274733E-001	-2.7038385E+002
3	0	1.547920577771874E+003	3.7168875E-001	-2.7038031E+002
3	0	1.548420577759243E+003	3.7080464E-001	-2.7035205E+002
3	0	1.548920577746612E+003	3.7067750E-001	-2.7037677E+002
3	0	1.549420577733981E+003	3.7076780E-001	-2.7038742E+002
3	0	1.549920577721350E+003	3.7072572E-001	-2.7035559E+002
3	0	1.550420577708719E+003	3.7056589E-001	-2.7038031E+002
3	0	1.550920577696088E+003	3.7033930E-001	-2.7036618E+002
3	0	1.551420577683457E+003	3.7011909E-001	-2.7037326E+002
3	0	1.551920577670826E+003	3.6961702E-001	-2.7035913E+002
3	0	1.552420577658195E+003	3.6913955E-001	-2.7038742E+002
3	0	1.552920577645564E+003	3.6926207E-001	-2.7037326E+002
3	0	1.553420577632933E+003	3.6962453E-001	-2.7035559E+002
3	0	1.553920577620302E+003	3.6982259E-001	-2.7038031E+002
3	0	1.554420577607671E+003	3.6992279E-001	-2.7037326E+002
3	0	1.554920577595040E+003	3.6990270E-001	-2.7039801E+002
3	0	1.555420577582408E+003	3.6975914E-001	-2.7038031E+002
3	0	1.555920577569777E+003	3.6943954E-001	-2.7036972E+002
3	0	1.556420577557146E+003	3.6902142E-001	-2.7039447E+002
3	0	1.556920577544515E+003	3.6923325E-001	-2.7037677E+002
3	0	1.557420577531884E+003	3.6958832E-001	-2.7037677E+002
3	0	1.557920577519253E+003	3.6974829E-001	-2.7037326E+002
3	0	1.558420577506622E+003	3.6979893E-001	-2.7037326E+002
3	0	1.558920577493991E+003	3.6979416E-001	-2.7041214E+002
3	0	1.559420577481360E+003	3.6980703E-001	-2.7039801E+002
3	0	1.559920577468729E+003	3.6971289E-001	-2.7039447E+002
3	0	1.560420577456098E+003	3.6966059E-001	-2.7038385E+002
3	0	1.560920577443467E+003	3.7031293E-001	-2.7038031E+002
3	0	1.561420577430836E+003	3.7126300E-001	-2.7036618E+002
3	0	1.561920577418205E+003	3.7214494E-001	-2.7037677E+002
3	0	1.562420577405574E+003	3.7295404E-001	-2.7037326E+002
3	0	1.562920577392943E+003	3.7371212E-001	-2.7040506E+002
3	0	1.563420577380311E+003	3.7431854E-001	-2.7038031E+002
3	0	1.563920577367680E+003	3.7464359E-001	-2.7036267E+002
3	0	1.564420577355049E+003	3.7486485E-001	-2.7036972E+002
3	0	1.564920577342418E+003	3.7552685E-001	-2.7037326E+002
3	0	1.565420577329787E+003	3.7635365E-001	-2.7037326E+002
3	0	1.565920577317156E+003	3.7695214E-001	-2.7039093E+002
3	0	1.566420577304525E+003	3.7741125E-001	-2.7035559E+002
3	0	1.566920577291894E+003	3.7769547E-001	-2.7037677E+002
3	0	1.567420577279263E+003	3.7784344E-001	-2.7039093E+002
3	0	1.567920577266632E+003	3.7766919E-001	-2.7035559E+002
3	0	1.568420577254001E+003	3.7744075E-001	-2.7037326E+002
3	0	1.568920577241370E+003	3.7771285E-001	-2.7038742E+002
3	0	1.569420577228739E+003	3.7806007E-001	-2.7038031E+002
3	0	1.569920577216108E+003	3.7824118E-001	-2.7041214E+002
3	0	1.570420577203477E+003	3.7822923E-001	-2.7036972E+002
3	0	1.570920577190846E+003	3.7814587E-001	-2.7041919E+002
3	0	1.571420577178214E+003	3.7796119E-001	-2.7037677E+002
3	0	1.571920577165583E+003	3.7753201E-001	-2.7039801E+002
3	0	1.572420577152952E+003	3.7697062E-001	-2.7037326E+002
3	0	1.572920577140321E+003	3.7691054E-001	-2.7038742E+002
3	0	1.573420577127690E+003	3.7703070E-001	-2.7035205E+002
3	0	1.573920577115059E+003	3.7685779E-001	-2.7036972E+002
3	0	1.574420577102428E+003	3.7661263E-001	-2.7037326E+002
3	0	1.574920577089797E+003	3.7651539E-001	-2.7038031E+002
3	0	1.575420577077166E+003	3.7622169E-001	-2.7037326E+002
3	0	1.575920577064535E+003	3.7575951E-001	-2.7036618E+002
3	0	1.576420577051904E+003	3.7515336E-001	-2.7038385E+002
3	0	1.576920577039273E+003	3.7493762E-001	-2.7037326E+002
3	0	1.577420577026642E+003	3.7487915E-001	-2.7037677E+002
3	0	1.577920577014011E+003	3.7455118E-001	-2.7038742E+002
3	0	1.578420577001380E+003	3.7420225E-001	-2.7035205E+002
3	0	1.578920576988749E+003	3.7387225E-001	-2.7037326E+002
3	0	1.579420576976117E+003	3.7348086E-001	-2.7036972E+002
3	0	1.579920576963486E+003	3.7290746E-001	-2.7037677E+002
3	0	1.580420576950855E+003	3.7248328E-001	-2.7037677E+002
3	0	1.580920576938224E+003	3.7275103E-001	-2.7038742E+002
3	0	1.581420576925593E+003	3.7321892E-001	-2.7036972E+002
3	0	1.581920576912962E+003	3.7359515E-001	-2.7040860E+002
3	0	1.582420576900331E+003	3.7402380E-001	-2.7037326E+002
3	0	1.582920576887700E+003	3.7436727E-001	-2.7036618E+002
3	0	1.583420576875069E+003	3.7454849E-001	-2.7040860E+002
3	0	1.583920576862438E+003	3.7451819E-001	-2.7036972E+002
3	0	1.584420576849807E+003	3.7439612E-001	-2.7037326E+002
3	0	1.584920576837176E+003	3.7473312E-001	-2.7040506E+002
3	0	1.585420576824545E+003	3.7507135E-001	-2.7039447E+002
3	0	1.585920576811914E+003	3.7516245E-001	-2.7036972E+002
3	0	1.586420576799283E+003	3.7520206E-001	-2.7036972E+002
3	0	1.586920576786652E+003	3.7514564E-001	-2.7038031E+002
3	0	1.587420576774020E+003	3.7499559E-001	-2.7036267E+002
3	0	1.587920576761389E+003	3.7456062E-001	-2.7037677E+002
3	0	1.588420576748758E+003	3.7407461E-001	-2.7038385E+002
3	0	1.588920576736127E+003	3.7406528E-001	-2.7039093E+002
3	0	1.589420576723496E+003	3.7411547E-001	-2.7039447E+002
3	0	1.589920576710865E+003	3.7388930E-001	-2.7039093E+002
3	0	1.590420576698234E+003	3.7367189E-001	-2.7037326E+002
3	0	1.590920576685603E+003	3.7337515E-001	-2.7036618E+002
3	0	1.591420576672972E+003	3.7296957E-001	-2.7039801E+002
3	0	1.591920576660341E+003	3.7226617E-001	-2.7035913E+002
3	0	1.592420576647710E+003	3.7158147E-001	-2.7037326E+002
3	0	1.592920576635079E+003	3.7142029E-001	-2.7040155E+002
3	0	1.593420576622448E+003	3.7128392E-001	-2.7036267E+002
3	0	1.593920576609817E+003	3.7093073E-001	-2.7039801E+002
3	0	1.594420576597186E+003	3.7055612E-001	-2.7037677E+002
3	0	1.594920576584555E+003	3.7010720E-001	-2.7037326E+002
3	0	1.595420576571923E+003	3.6963475E-001	-2.7038031E+002
3	0	1.595920576559292E+003	3.6893010E-001	-2.7038031E+002
3	0	1.596420576546661E+003	3.6817414E-001	-2.7038742E+002
3	0	1.596920576534030E+003	3.6786956E-001	-2.7040860E+002
3	0	1.597420576521399E+003	3.6763629E-001	-2.7035913E+002
3	0	1.597920576508768E+003	3.6722320E-001	-2.7040506E+002
3	0	1.598420576496137E+003	3.6677548E-001	-2.7039801E+002
3	0	1.598920576483506E+003	3.6632755E-001	-2.7039801E+002
3	0	1.599420576470875E+003	3.6583653E-001	-2.7037326E+002
3	0	1.599920576458244E+003	3.6527523E-001	-2.7037677E+002
3	0	1.600420576445613E+003	3.6479509E-001	-2.7037677E+002
3	0	1.600920576432982E+003	3.6484891E-001	-2.7038742E+002
3	0	1.601420576420351E+003	3.6514091E-001	-2.7036618E+002
3	0	1.601920576407720E+003	3.6533719E-001	-2.7038031E+002
3	0	1.602420576395089E+003	3.6558086E-001	-2.7039447E+002
3	0	1.602920576382458E+003	3.6578959E-001	-2.7035205E+002
3	0	1.603420576369826E+003	3.6594960E-001	-2.7038385E+002
3	0	1.603920576357195E+003	3.6588806E-001	-2.7036267E+002
3	0	1.604420576344564E+003	3.6573246E-001	-2.7037326E+002
3	0	1.604920576331933E+003	3.6597446E-001	-2.7038385E+002
3	0	1.605420576319302E+003	3.6624840E-001	-2.7039093E+002
3	0	1.605920576306671E+003	3.6629125E-001	-2.7039093E+002
3	0	1.606420576294040E+003	3.6631966E-001	-2.7040506E+002
3	0	1.606920576281409E+003	3.6625746E-001	-2.7037326E+002
3	0	1.607420576268778E+003	3.6610782E-001	-2.7037326E+002
3	0	1.607920576256147E+003	3.6573568E-001	-2.7035559E+002
3	0	1.608420576243516E+003	3.6530718E-001	-2.7040155E+002
3	0	1.608920576230885E+003	3.6527851E-001	-2.7036972E+002
3	0	1.609420576218254E+003	3.6531061E-001	-2.7037326E+002
3	0	1.609920576205623E+003	3.6516073E-001	-2.7037677E+002
3	0	1.610420576192992E+003	3.6494818E-001	-2.7040506E+002
3	0	1.610920576180361E+003	3.6466256E-001	-2.7037326E+002
3	0	1.611420576167729E+003	3.6427793E-001	-2.7036972E+002
3	0	1.611920576155098E+003	3.6374193E-001	-2.7035205E+002
3	0	1.612420576142467E+003	3.6316282E-001	-2.7038742E+002
3	0	1.612920576129836E+003	3.6294818E-001	-2.7037326E+002
3	0	1.613420576117205E+003	3.6284247E-001	-2.7038742E+002
3	0	1.613920576104574E+003	3.6253417E-001	-2.7036972E+002
3	0	1.614420576091943E+003	3.6221227E-001	-2.7038742E+002
3	0	1.614920576079312E+003	3.6178356E-001	-2.7039447E+002
3	0	1.615420576066681E+003	3.6131680E-001	-2.7036267E+002
3	0	1.615920576054050E+003	3.6067247E-001	-2.7036267E+002
3	0	1.616420576041419E+003	3.6000496E-001	-2.7038385E+002
3	0	1.616920576028788E+003	3.5973805E-001	-2.7035913E+002
3	0	1.617420576016157E+003	3.5954550E-001	-2.7036267E+002
3	0	1.617920576003526E+003	3.5921612E-001	-2.7036267E+002
3	0	1.618420575990895E+003	3.5887694E-001	-2.7036618E+002
3	0	1.618920575978264E+003	3.5849884E-001	-2.7039093E+002
3	0	1.619420575965632E+003	3.5810453E-001	-2.7039093E+002
3	0	1.619920575953001E+003	3.5758668E-001	-2.7038385E+002
3	0	1.620420575940370E+003	3.5715112E-001	-2.7038031E+002
3	0	1.620920575927739E+003	3.5714215E-001	-2.7036972E+002
3	0	1.621420575915108E+003	3.5719970E-001	-2.7037326E+002
3	0	1.621920575902477E+003	3.5711542E-001	-2.7036972E+002
3	0	1.622420575889846E+003	3.5700652E-001	-2.7036972E+002
3	0	1.622920575877215E+003	3.5678834E-001	-2.7039447E+002
3	0	1.623420575864584E+003	3.5653651E-001	-2.7036972E+002
3	0	1.623920575851953E+003	3.5611883E-001	-2.7037677E+002
3	0	1.624420575839322E+003	3.5565010E-001	-2.7036267E+002
3	0	1.624920575826691E+003	3.5553011E-001	-2.7036267E+002
3	0	1.625420575814060E+003	3.5547006E-001	-2.7038031E+002
3	0	1.625920575801429E+003	3.5525894E-001	-2.7035913E+002
3	0	1.626420575788798E+003	3.5503981E-001	-2.7036618E+002
3	0	1.626920575776167E+003	3.5475776E-001	-2.7039447E+002
3	0	1.627420575763535E+003	3.5438478E-001	-2.7037326E+002
3	0	1.627920575750904E+003	3.5387906E-001	-2.7036972E+002
3	0	1.628420575738273E+003	3.5336456E-001	-2.7039447E+002
3	0	1.628920575725642E+003	3.5319197E-001	-2.7036618E+002
3	0	1.629420575713011E+003	3.5307378E-001	-2.7038385E+002
3	0	1.629920575700380E+003	3.5281694E-001	-2.7040155E+002
3	0	1.630420575687749E+003	3.5256922E-001	-2.7039093E+002
3	0	1.630920575675118E+003	3.5224733E-001	-2.7036267E+002
3	0	1.631420575662487E+003	3.5190222E-001	-2.7037677E+002
3	0	1.631920575649856E+003	3.5146049E-001	-2.7038742E+002
3	0	1.632420575637225E+003	3.5095173E-001	-2.7039093E+002
3	0	1.632920575624594E+003	3.5077336E-001	-2.7040155E+002
3	0	1.633420575611963E+003	3.5064393E-001	-2.7039093E+002
3	0	1.633920575599332E+003	3.5040805E-001	-2.7035913E+002
3	0	1.634420575586701E+003	3.5014462E-001	-2.7038742E+002
3	0	1.634920575574070E+003	3.4984443E-001	-2.7038031E+002
3	0	1.635420575561438E+003	3.4950167E-001	-2.7036972E+002
3	0	1.635920575548807E+003	3.4903631E-001	-2.7037677E+002
3	0	1.636420575536176E+003	3.4855694E-001	-2.7037677E+002
3	0	1.636920575523545E+003	3.4835365E-001	-2.7040155E+002
3	0	1.637420575510914E+003	3.4823805E-001	-2.7040155E+002
3	0	1.637920575498283E+003	3.4801793E-001	-2.7036972E+002
3	0	1.638420575485652E+003	3.4779710E-001	-2.7035913E+002
3	0	1.638920575473021E+003	3.4754503E-001	-2.7038385E+002
3	0	1.639420575460390E+003	3.4721172E-001	-2.7038385E+002
3	0	1.639920575447759E+003	3.4681559E-001	-2.7035913E+002
3	0	1.640420575435128E+003	3.4647840E-001	-2.7038385E+002
3	0	1.640920575422497E+003	3.4653041E-001	-2.7039447E+002
3	0	1.641420575409866E+003	3.4671694E-001	-2.7037326E+002
3	0	1.641920575397235E+003	3.4687567E-001	-2.7036618E+002
3	0	1.642420575384604E+003	3.4709865E-001	-2.7039447E+002
3	0	1.642920575371973E+003	3.4731850E-001	-2.7040155E+002
3	0	1.643420575359341E+003	3.4752724E-001	-2.7038031E+002
3	0	1.643920575346710E+003	3.4764326E-001	-2.7038742E+002
3	0	1.644420575334079E+003	3.4763440E-001	-2.7036972E+002
3	0	1.644920575321448E+003	3.4789637E-001	-2.7036618E+002
3	0	1.645420575308817E+003	3.4820846E-001	-2.7038742E+002
3	0	1.645920575296186E+003	3.4836066E-001	-2.7038385E+002
3	0	1.646420575283555E+003	3.4846902E-001	-2.7038385E+002
3	0	1.646920575270924E+003	3.4848368E-001	-2.7039093E+002
3	0	1.647420575258293E+003	3.4839737E-001	-2.7041214E+002
3	0	1.647920575245662E+003	3.4819201E-001	-2.7035913E+002
3	0	1.648420575233031E+003	3.4789601E-001	-2.7038385E+002
3	0	1.648920575220400E+003	3.4784085E-001	-2.7036618E+002
3	0	1.649420575207769E+003	3.4786928E-001	-2.7038385E+002
3	0	1.649920575195138E+003	3.4776965E-001	-2.7037326E+002
3	0	1.650420575182507E+003	3.4764370E-001	-2.7040155E+002
3	0	1.650920575169876E+003	3.4744254E-001	-2.7036618E+002
3	0	1.651420575157244E+003	3.4718645E-001	-2.7034497E+002
3	0	1.651920575144613E+003	3.4682006E-001	-2.7041214E+002
3	0	1.652420575131982E+003	3.4636533E-001	-2.7038742E+002
3	0	1.652920575119351E+003	3.4619433E-001	-2.7036267E+002
3	0	1.653420575106720E+003	3.4608331E-001	-2.7038031E+002
3	0	1.653920575094089E+003	3.4589106E-001	-2.7037326E+002
3	0	1.654420575081458E+003	3.4569377E-001	-2.7038031E+002
3	0	1.654920575068827E+003	3.4542531E-001	-2.7039801E+002
3	0	1.655420575056196E+003	3.4509277E-001	-2.7037677E+002
3	0	1.655920575043565E+003	3.4465101E-001	-2.7037677E+002
3	0	1.656420575030934E+003	3.4414417E-001	-2.7038385E+002
3	0	1.656920575018303E+003	3.4389821E-001	-2.7038031E+002
3	0	1.656945175017681E+003	3.4384465E-001	-2.7039093E+002