EC-Lab ASCII FILE
Nb header lines : 48                          

Open Circuit Voltage

Run on channel : 1 (SN 81504)
User : 
CE vs. WE compliance from -10 V to 10 V
Electrode connection : standard
Potential control : Ewe
Ewe ctrl range : min = -2.50 V, max = 2.50 V
Safety Limits :
	Do not start on E overload
Acquisition started on : 05/10/2026 02:09:52.585
Loaded Setting File :  C:\PEM-WE_measurements\2026\372_IV_IV IrOx, 5 min Pt, 30 min C, etched cathode\new station\Loopeis new\1,46 V different time gaps closed cell\Loopeis 1,46V_60s_2_PEIS from 65kHz to 10kHz.mps
Saved on :
	File : L_12_Loopeis 1,46V_60s_2_PEIS from 65kHz to 10kHz_12_OCV_C01.mpr
	Directory : C:\PEM-WE_measurements\2026\372_IV_IV IrOx, 5 min Pt, 30 min C, etched cathode\new station\Loopeis new\1,46 V different time gaps closed cell\
	Host : 192.168.0.2
Device : SP-150e (SN .005491)
Address : 192.168.0.91
EC-LAB for windows v11.71 (software)
Internet server v28.00 (firmware)
Command interpretor v14.01 (firmware)
Electrode material : 
Initial state : 
Electrolyte : 
Comments : 
Current amplifier : SP-150eB-20A
Electrode surface area : 0.001 cm²
Characteristic mass : 0.001 g
Equivalent Weight : 0.000 g/eq.
Density : 0.000 g/cm3
Volume (V) : 0.001 cm³
Record Analogic IN 1
Text export
   Mode : Standard
   Time format : Elapsed
Cycle Definition : Charge/Discharge alternance
tR (h:m:s)          0:01:0.0000         
dER/dt (mV/h)       1.0                 
record              <Ewe>               
dER (mV)            10.00               
dtR (s)             0.5000              
E range min (V)     -2.500              
E range max (V)     2.500               

mode	error	time/s	<Ewe/V>	Analog IN 1/V	
3	0	5.711995954458689E+002	1.1929134E+000	-1.4881945E-004
3	0	5.716995954332378E+002	1.2581671E+000	-1.2973390E-004
3	0	5.721995954206068E+002	1.2622731E+000	2.2950437E-005
3	0	5.726995954079757E+002	1.2647011E+000	-3.4306191E-005
3	0	5.731995953953447E+002	1.2663269E+000	-1.8699054E-004
3	0	5.736995953827136E+002	1.2674514E+000	-2.4424717E-004
3	0	5.741995953700825E+002	1.2682662E+000	-1.2973390E-004
3	0	5.746995953574515E+002	1.2689499E+000	-1.1064836E-004
3	0	5.751995953448204E+002	1.2694967E+000	-9.1562819E-005
3	0	5.756995953321893E+002	1.2699279E+000	2.2950437E-005
3	0	5.761995953195583E+002	1.2702597E+000	9.9292607E-005
3	0	5.766995953069272E+002	1.2705253E+000	3.8648941E-006
3	0	5.771995952942962E+002	1.2707133E+000	-1.6790499E-004
3	0	5.776995952816651E+002	1.2708000E+000	3.8648941E-006
3	0	5.781995952690340E+002	1.2708117E+000	-3.4306191E-005
3	0	5.786995952564030E+002	1.2708806E+000	-7.2477276E-005
3	0	5.791995952437719E+002	1.2709490E+000	-1.2973390E-004
3	0	5.796995952311408E+002	1.2709869E+000	-3.4306191E-005
3	0	5.801995952185098E+002	1.2710096E+000	-1.1064836E-004
3	0	5.806995952058787E+002	1.2710243E+000	-3.4306191E-005
3	0	5.811995951932477E+002	1.2709980E+000	2.2950437E-005
3	0	5.816995951806166E+002	1.2709107E+000	-5.3391734E-005
3	0	5.821995951679855E+002	1.2707698E+000	2.2950437E-005
3	0	5.826995951553545E+002	1.2707096E+000	2.2950437E-005
3	0	5.831995951427234E+002	1.2706748E+000	-5.3391734E-005
3	0	5.836995951300923E+002	1.2706256E+000	-5.3391734E-005
3	0	5.841995951174613E+002	1.2705740E+000	2.2950437E-005
3	0	5.846995951048302E+002	1.2705221E+000	3.8648941E-006
3	0	5.851995950921992E+002	1.2704374E+000	1.3746369E-004
3	0	5.856995950795681E+002	1.2702761E+000	-3.4306191E-005
3	0	5.861995950669370E+002	1.2700843E+000	-5.3391734E-005
3	0	5.866995950543060E+002	1.2699831E+000	4.2035979E-005
3	0	5.871995950416749E+002	1.2699052E+000	-3.4306191E-005
3	0	5.876995950290438E+002	1.2698125E+000	-7.2477276E-005
3	0	5.881995950164128E+002	1.2697231E+000	-1.2973390E-004
3	0	5.886995950037817E+002	1.2696347E+000	-7.2477276E-005
3	0	5.891995949911507E+002	1.2695239E+000	-1.2973390E-004
3	0	5.896995949785196E+002	1.2693511E+000	-3.4306191E-005
3	0	5.901995949658885E+002	1.2691569E+000	-3.4306191E-005
3	0	5.906995949532575E+002	1.2690626E+000	2.2950437E-005
3	0	5.911995949406264E+002	1.2690058E+000	3.8648941E-006
3	0	5.916995949279953E+002	1.2689480E+000	4.2035979E-005
3	0	5.921995949153643E+002	1.2689031E+000	-5.3391734E-005
3	0	5.926995949027332E+002	1.2688607E+000	-7.2477276E-005
3	0	5.931995948901022E+002	1.2687811E+000	-7.2477276E-005
3	0	5.936995948774711E+002	1.2686578E+000	-9.1562819E-005
3	0	5.941995948648400E+002	1.2684871E+000	-2.0607607E-004
3	0	5.946995948522090E+002	1.2684032E+000	2.2950437E-005
3	0	5.951995948395779E+002	1.2683520E+000	-5.3391734E-005
3	0	5.956995948269469E+002	1.2682905E+000	-1.6790499E-004
3	0	5.961995948143158E+002	1.2682284E+000	-1.5220648E-005
3	0	5.966995948016847E+002	1.2681630E+000	6.1121522E-005
3	0	5.971995947890537E+002	1.2680675E+000	-3.4306191E-005
3	0	5.976995947764226E+002	1.2678958E+000	-1.1064836E-004
3	0	5.981995947637915E+002	1.2676865E+000	-7.2477276E-005
3	0	5.986995947511605E+002	1.2675637E+000	-1.5220648E-005
3	0	5.991995947385294E+002	1.2674569E+000	-2.2516162E-004
3	0	5.996995947258984E+002	1.2673377E+000	8.0207064E-005
3	0	6.001995947132673E+002	1.2672112E+000	-1.2973390E-004
3	0	6.006995947006362E+002	1.2670840E+000	-1.5220648E-005
3	0	6.011995946880052E+002	1.2669189E+000	-7.2477276E-005
3	0	6.016995946753741E+002	1.2666788E+000	-3.4306191E-005
3	0	6.021995946627430E+002	1.2664095E+000	-7.2477276E-005
3	0	6.026995946501120E+002	1.2662269E+000	3.8648941E-006
3	0	6.031995946374809E+002	1.2660707E+000	-3.4306191E-005
3	0	6.036995946248499E+002	1.2658949E+000	-1.1064836E-004
3	0	6.041995946122188E+002	1.2657245E+000	-1.5220648E-005
3	0	6.046995945995877E+002	1.2655431E+000	4.2035979E-005
3	0	6.051995945869567E+002	1.2653223E+000	6.1121522E-005
3	0	6.056995945743256E+002	1.2650394E+000	6.1121522E-005
3	0	6.061995945616945E+002	1.2647204E+000	3.8648941E-006
3	0	6.066995945490635E+002	1.2644883E+000	-9.1562819E-005
3	0	6.071995945364324E+002	1.2642832E+000	3.8648941E-006
3	0	6.076995945238014E+002	1.2640696E+000	-7.2477276E-005
3	0	6.081995945111703E+002	1.2638494E+000	-1.2973390E-004
3	0	6.086995944985392E+002	1.2636377E+000	-7.2477276E-005
3	0	6.091995944859082E+002	1.2634026E+000	-7.2477276E-005
3	0	6.096995944732771E+002	1.2630997E+000	9.9292607E-005
3	0	6.101995944606460E+002	1.2627747E+000	-9.1562819E-005
3	0	6.106995944480150E+002	1.2625450E+000	4.2035979E-005
3	0	6.111995944353839E+002	1.2623543E+000	-7.2477276E-005
3	0	6.116995944227529E+002	1.2621682E+000	-9.1562819E-005
3	0	6.121995944101218E+002	1.2619867E+000	-1.5220648E-005
3	0	6.126995943974907E+002	1.2618201E+000	-1.5220648E-005
3	0	6.131995943848597E+002	1.2616336E+000	3.8648941E-006
3	0	6.136995943722286E+002	1.2613809E+000	3.8648941E-006
3	0	6.141995943595975E+002	1.2610917E+000	-7.2477276E-005
3	0	6.146995943469665E+002	1.2608885E+000	-1.2973390E-004
3	0	6.151995943343354E+002	1.2607137E+000	-9.1562819E-005
3	0	6.156995943217044E+002	1.2605449E+000	-1.5220648E-005
3	0	6.161995943090733E+002	1.2603657E+000	-1.2973390E-004
3	0	6.166995942964422E+002	1.2601867E+000	-5.3391734E-005
3	0	6.171995942838112E+002	1.2599777E+000	8.0207064E-005
3	0	6.176995942711801E+002	1.2596960E+000	-2.0607607E-004
3	0	6.181995942585490E+002	1.2593757E+000	-5.3391734E-005
3	0	6.186995942459180E+002	1.2591484E+000	2.2950437E-005
3	0	6.191995942332869E+002	1.2589352E+000	2.2950437E-005
3	0	6.196995942206559E+002	1.2587216E+000	-1.4881945E-004
3	0	6.201995942080248E+002	1.2585011E+000	-1.1064836E-004
3	0	6.206995941953937E+002	1.2582802E+000	-5.3391734E-005
3	0	6.211995941827627E+002	1.2580260E+000	-1.1064836E-004
3	0	6.216995941701316E+002	1.2577046E+000	-1.1064836E-004
3	0	6.221995941575005E+002	1.2573546E+000	-1.6790499E-004
3	0	6.226995941448695E+002	1.2570858E+000	-1.5220648E-005
3	0	6.231995941322384E+002	1.2568339E+000	6.1121522E-005
3	0	6.236995941196074E+002	1.2565782E+000	9.9292607E-005
3	0	6.241995941069763E+002	1.2563237E+000	-1.5220648E-005
3	0	6.246995940943452E+002	1.2560763E+000	-5.3391734E-005
3	0	6.251995940817142E+002	1.2557954E+000	-3.4306191E-005
3	0	6.256995940690831E+002	1.2554404E+000	-1.1064836E-004
3	0	6.261995940564520E+002	1.2550509E+000	-1.1064836E-004
3	0	6.266995940438210E+002	1.2547495E+000	-5.3391734E-005
3	0	6.271995940311899E+002	1.2544653E+000	-1.2973390E-004
3	0	6.276995940185589E+002	1.2541753E+000	3.8648941E-006
3	0	6.281995940059278E+002	1.2538795E+000	-7.2477276E-005
3	0	6.286995939932967E+002	1.2535850E+000	-1.1064836E-004
3	0	6.291995939806657E+002	1.2532713E+000	-1.5220648E-005
3	0	6.296995939680346E+002	1.2528937E+000	3.8648941E-006
3	0	6.301995939554035E+002	1.2524892E+000	-5.3391734E-005
3	0	6.306995939427725E+002	1.2521865E+000	-5.3391734E-005
3	0	6.307335939419136E+002	1.2520522E+000	4.2035979E-005