EC-Lab ASCII FILE
Nb header lines : 55                          

Open Circuit Voltage

Run on channel : 1 (SN 81504)
User : 
CE vs. WE compliance from -10 V to 10 V
Electrode connection : standard
Potential control : Ewe
Ewe ctrl range : min = -2.50 V, max = 2.50 V
Safety Limits :
	Do not start on E overload
Acquisition started on : 05/10/2026 04:38:51.126
Loaded Setting File :  C:\PEM-WE_measurements\2026\372_IV_IV IrOx, 5 min Pt, 30 min C, etched cathode\new station\Loopeis new\1,46 V different time gaps closed cell\Loopeis 1,46V_90s_4_PEIS from 650Hz to 100Hz.mps
Saved on :
	File : L_19_Loopeis 1,46V_90s_4_PEIS from 650Hz to 100Hz_14_OCV_C01.mpr
	Directory : C:\PEM-WE_measurements\2026\372_IV_IV IrOx, 5 min Pt, 30 min C, etched cathode\new station\Loopeis new\1,46 V different time gaps closed cell\
	Host : 192.168.0.2
Device : SP-150e (SN .005491)
Address : 192.168.0.91
EC-LAB for windows v11.71 (software)
Internet server v28.00 (firmware)
Command interpretor v14.01 (firmware)
Electrode material : 
Initial state : 
Electrolyte : 
Comments : 
Current amplifier : SP-150eB-20A
Electrode surface area : 0.001 cm²
Characteristic mass : 0.001 g
Equivalent Weight : 0.000 g/eq.
Density : 0.000 g/cm3
Volume (V) : 0.001 cm³
Record Analogic IN 1
Text export
   Mode : Standard
   Time format : Elapsed
Cycle Definition : Charge/Discharge alternance
External device configuration :
   device type : Temperature Probe
   device name : Other
   Analog IN 1 : 
      unit : T/Â°C
      max : 100.000 at 2.000 V
      min : 0.000 at 1.460 V
tR (h:m:s)          0:01:30.0000        
dER/dt (mV/h)       1.0                 
record              <Ewe>               
dER (mV)            10.00               
dtR (s)             0.5000              
E range min (V)     -2.500              
E range max (V)     2.500               

mode	error	time/s	<Ewe/V>	Analog IN 1/V	
3	0	8.573801882997213E+002	1.2862999E+000	-2.7038742E+002
3	0	8.578801882870903E+002	1.2930317E+000	-2.7036972E+002
3	0	8.583801882744592E+002	1.2937528E+000	-2.7039801E+002
3	0	8.588801882618282E+002	1.2931069E+000	-2.7036618E+002
3	0	8.593801882491971E+002	1.2915248E+000	-2.7039447E+002
3	0	8.598801882365660E+002	1.2888503E+000	-2.7041214E+002
3	0	8.603801882239350E+002	1.2845510E+000	-2.7037677E+002
3	0	8.608801882113039E+002	1.2774500E+000	-2.7040506E+002
3	0	8.613801881986728E+002	1.2657250E+000	-2.7040860E+002
3	0	8.618801881860418E+002	1.2471336E+000	-2.7037677E+002
3	0	8.623801881734107E+002	1.2183111E+000	-2.7040155E+002
3	0	8.628801881607797E+002	1.1716425E+000	-2.7037677E+002
3	0	8.633801881481486E+002	1.0832776E+000	-2.7036972E+002
3	0	8.638801881355175E+002	8.8243902E-001	-2.7036618E+002
3	0	8.643801881228865E+002	6.4762253E-001	-2.7039093E+002
3	0	8.648801881102554E+002	5.7749814E-001	-2.7035913E+002
3	0	8.653801880976243E+002	5.5285627E-001	-2.7039093E+002
3	0	8.658801880849933E+002	5.4252064E-001	-2.7039093E+002
3	0	8.663801880723622E+002	5.3834432E-001	-2.7035913E+002
3	0	8.668801880597312E+002	5.3829730E-001	-2.7038742E+002
3	0	8.673801880471001E+002	5.3980297E-001	-2.7039093E+002
3	0	8.678801880344690E+002	5.4152483E-001	-2.7037326E+002
3	0	8.683801880218380E+002	5.4342639E-001	-2.7035205E+002
3	0	8.688801880092069E+002	5.4543078E-001	-2.7038031E+002
3	0	8.693801879965758E+002	5.4732603E-001	-2.7038742E+002
3	0	8.698801879839448E+002	5.4871649E-001	-2.7036972E+002
3	0	8.703801879713137E+002	5.5042994E-001	-2.7036972E+002
3	0	8.708801879586827E+002	5.5377591E-001	-2.7041214E+002
3	0	8.713801879460516E+002	5.5770165E-001	-2.7038031E+002
3	0	8.718801879334205E+002	5.6154001E-001	-2.7036972E+002
3	0	8.723801879207895E+002	5.6542528E-001	-2.7037326E+002
3	0	8.728801879081584E+002	5.6967205E-001	-2.7038385E+002
3	0	8.733801878955273E+002	5.7392776E-001	-2.7037677E+002
3	0	8.738801878828963E+002	5.7763487E-001	-2.7038742E+002
3	0	8.743801878702652E+002	5.8125156E-001	-2.7036972E+002
3	0	8.748801878576342E+002	5.8621311E-001	-2.7039801E+002
3	0	8.753801878450031E+002	5.9135306E-001	-2.7038031E+002
3	0	8.758801878323720E+002	5.9584671E-001	-2.7038031E+002
3	0	8.763801878197410E+002	5.9982067E-001	-2.7035559E+002
3	0	8.768801878071099E+002	6.0346693E-001	-2.7038031E+002
3	0	8.773801877944788E+002	6.0629553E-001	-2.7037677E+002
3	0	8.778801877818478E+002	6.0828567E-001	-2.7038742E+002
3	0	8.783801877692167E+002	6.0996026E-001	-2.7038385E+002
3	0	8.788801877565857E+002	6.1290383E-001	-2.7037326E+002
3	0	8.793801877439546E+002	6.1590338E-001	-2.7037677E+002
3	0	8.798801877313235E+002	6.1818612E-001	-2.7039447E+002
3	0	8.803801877186925E+002	6.1989003E-001	-2.7035559E+002
3	0	8.808801877060614E+002	6.2136561E-001	-2.7040155E+002
3	0	8.813801876934303E+002	6.2221158E-001	-2.7036972E+002
3	0	8.818801876807993E+002	6.2222338E-001	-2.7036972E+002
3	0	8.823801876681682E+002	6.2194890E-001	-2.7038742E+002
3	0	8.828801876555372E+002	6.2308484E-001	-2.7038742E+002
3	0	8.833801876429061E+002	6.2448496E-001	-2.7039447E+002
3	0	8.838801876302750E+002	6.2536114E-001	-2.7035205E+002
3	0	8.843801876176440E+002	6.2569940E-001	-2.7038742E+002
3	0	8.848801876050129E+002	6.2580270E-001	-2.7040155E+002
3	0	8.853801875923818E+002	6.2541711E-001	-2.7038742E+002
3	0	8.858801875797508E+002	6.2418604E-001	-2.7037677E+002
3	0	8.863801875671197E+002	6.2274802E-001	-2.7037677E+002
3	0	8.868801875544887E+002	6.2279606E-001	-2.7038031E+002
3	0	8.873801875418576E+002	6.2329650E-001	-2.7035205E+002
3	0	8.878801875292265E+002	6.2326229E-001	-2.7036267E+002
3	0	8.883801875165955E+002	6.2277293E-001	-2.7038031E+002
3	0	8.888801875039644E+002	6.2207025E-001	-2.7036267E+002
3	0	8.893801874913333E+002	6.2086922E-001	-2.7037677E+002
3	0	8.898801874787023E+002	6.1875647E-001	-2.7037677E+002
3	0	8.903801874660712E+002	6.1676151E-001	-2.7036972E+002
3	0	8.908801874534402E+002	6.1646551E-001	-2.7036972E+002
3	0	8.913801874408091E+002	6.1706555E-001	-2.7039093E+002
3	0	8.918801874281780E+002	6.1783129E-001	-2.7038031E+002
3	0	8.923801874155470E+002	6.1876076E-001	-2.7036972E+002
3	0	8.928801874029159E+002	6.2012935E-001	-2.7036972E+002
3	0	8.933801873902848E+002	6.2154466E-001	-2.7038031E+002
3	0	8.938801873776538E+002	6.2252158E-001	-2.7038742E+002
3	0	8.943801873650227E+002	6.2366122E-001	-2.7035559E+002
3	0	8.948801873523917E+002	6.2647498E-001	-2.7036267E+002
3	0	8.953801873397606E+002	6.2980711E-001	-2.7036972E+002
3	0	8.958801873271295E+002	6.3271946E-001	-2.7039447E+002
3	0	8.963801873144985E+002	6.3507473E-001	-2.7037677E+002
3	0	8.968801873018674E+002	6.3710380E-001	-2.7039093E+002
3	0	8.973801872892363E+002	6.3851792E-001	-2.7038742E+002
3	0	8.978801872766053E+002	6.3896495E-001	-2.7038385E+002
3	0	8.983801872639742E+002	6.3908988E-001	-2.7036267E+002
3	0	8.988801872513432E+002	6.4041048E-001	-2.7040155E+002
3	0	8.993801872387121E+002	6.4201838E-001	-2.7040506E+002
3	0	8.998801872260810E+002	6.4300907E-001	-2.7039801E+002
3	0	9.003801872134500E+002	6.4330024E-001	-2.7039447E+002
3	0	9.008801872008189E+002	6.4307839E-001	-2.7038742E+002
3	0	9.013801871881878E+002	6.4224231E-001	-2.7038031E+002
3	0	9.018801871755568E+002	6.4035428E-001	-2.7038031E+002
3	0	9.023801871629257E+002	6.3819623E-001	-2.7037677E+002
3	0	9.028801871502947E+002	6.3735187E-001	-2.7034143E+002
3	0	9.033801871376636E+002	6.3685685E-001	-2.7038742E+002
3	0	9.038801871250325E+002	6.3591498E-001	-2.7039447E+002
3	0	9.043801871124015E+002	6.3433844E-001	-2.7037677E+002
3	0	9.048801870997704E+002	6.3246733E-001	-2.7037326E+002
3	0	9.053801870871393E+002	6.2984037E-001	-2.7037677E+002
3	0	9.058801870745083E+002	6.2636685E-001	-2.7036618E+002
3	0	9.063801870618772E+002	6.2265462E-001	-2.7036267E+002
3	0	9.068801870492462E+002	6.2049949E-001	-2.7039093E+002
3	0	9.073801870366151E+002	6.1885583E-001	-2.7038742E+002
3	0	9.078801870239840E+002	6.1684245E-001	-2.7035913E+002
3	0	9.083801870113530E+002	6.1430454E-001	-2.7037677E+002
3	0	9.088801869987219E+002	6.1152595E-001	-2.7040155E+002
3	0	9.093801869860908E+002	6.0824120E-001	-2.7039093E+002
3	0	9.098801869734598E+002	6.0444051E-001	-2.7038031E+002
3	0	9.103801869608287E+002	6.0075378E-001	-2.7037326E+002
3	0	9.108801869481977E+002	5.9886819E-001	-2.7038385E+002
3	0	9.113801869355666E+002	5.9799671E-001	-2.7037326E+002
3	0	9.118801869229355E+002	5.9736872E-001	-2.7038385E+002
3	0	9.123801869103045E+002	5.9695148E-001	-2.7036972E+002
3	0	9.128801868976734E+002	5.9707230E-001	-2.7038031E+002
3	0	9.133801868850423E+002	5.9736902E-001	-2.7037677E+002
3	0	9.138801868724113E+002	5.9758663E-001	-2.7037326E+002
3	0	9.143801868597802E+002	5.9831840E-001	-2.7037326E+002
3	0	9.148801868471492E+002	6.0087991E-001	-2.7035913E+002
3	0	9.153801868345181E+002	6.0405618E-001	-2.7036972E+002
3	0	9.158801868218870E+002	6.0700482E-001	-2.7036972E+002
3	0	9.163801868092560E+002	6.0948396E-001	-2.7036972E+002
3	0	9.168801867966249E+002	6.1166555E-001	-2.7038031E+002
3	0	9.173801867839939E+002	6.1313182E-001	-2.7038742E+002
3	0	9.178801867713628E+002	6.1359489E-001	-2.7038385E+002
3	0	9.183801867587317E+002	6.1351287E-001	-2.7040506E+002
3	0	9.188801867461007E+002	6.1457992E-001	-2.7037677E+002
3	0	9.193801867334696E+002	6.1586803E-001	-2.7038031E+002
3	0	9.198801867208385E+002	6.1658120E-001	-2.7037677E+002
3	0	9.203801867082075E+002	6.1657405E-001	-2.7035559E+002
3	0	9.208801866955764E+002	6.1600065E-001	-2.7035913E+002
3	0	9.213801866829454E+002	6.1456716E-001	-2.7038385E+002
3	0	9.218801866703143E+002	6.1213386E-001	-2.7037677E+002
3	0	9.223801866576832E+002	6.0928649E-001	-2.7040155E+002
3	0	9.228801866450522E+002	6.0776186E-001	-2.7036972E+002
3	0	9.233801866324211E+002	6.0668409E-001	-2.7038031E+002
3	0	9.238801866197900E+002	6.0513532E-001	-2.7035913E+002
3	0	9.243801866071590E+002	6.0304081E-001	-2.7036972E+002
3	0	9.248801865945279E+002	6.0060871E-001	-2.7036267E+002
3	0	9.253801865818969E+002	5.9716421E-001	-2.7039801E+002
3	0	9.258801865692658E+002	5.9276652E-001	-2.7036267E+002
3	0	9.263801865566347E+002	5.8829790E-001	-2.7035913E+002
3	0	9.268801865440037E+002	5.8549976E-001	-2.7040506E+002
3	0	9.273801865313726E+002	5.8313102E-001	-2.7039801E+002
3	0	9.278801865187415E+002	5.8041775E-001	-2.7036618E+002
3	0	9.283801865061105E+002	5.7733148E-001	-2.7037326E+002
3	0	9.288801864934794E+002	5.7386845E-001	-2.7039447E+002
3	0	9.293801864808484E+002	5.6995565E-001	-2.7037677E+002
3	0	9.298801864682173E+002	5.6542003E-001	-2.7035913E+002
3	0	9.303801864555862E+002	5.6090409E-001	-2.7037677E+002
3	0	9.308801864429552E+002	5.5810660E-001	-2.7038742E+002
3	0	9.313801864303241E+002	5.5605662E-001	-2.7038385E+002
3	0	9.318801864176930E+002	5.5409944E-001	-2.7036972E+002
3	0	9.323801864050620E+002	5.5236030E-001	-2.7037326E+002
3	0	9.328801863924309E+002	5.5122972E-001	-2.7039093E+002
3	0	9.333801863797999E+002	5.5046272E-001	-2.7038742E+002
3	0	9.338801863671688E+002	5.4959530E-001	-2.7039801E+002
3	0	9.343801863545377E+002	5.4917073E-001	-2.7035913E+002
3	0	9.348801863419067E+002	5.5051661E-001	-2.7037677E+002
3	0	9.353801863292756E+002	5.5233061E-001	-2.7037326E+002
3	0	9.358801863166445E+002	5.5382556E-001	-2.7036972E+002
3	0	9.363801863040135E+002	5.5509144E-001	-2.7037677E+002
3	0	9.368801862913824E+002	5.5595750E-001	-2.7038385E+002
3	0	9.373801862787514E+002	5.5637968E-001	-2.7036618E+002
3	0	9.378801862661203E+002	5.5581623E-001	-2.7039801E+002
3	0	9.383801862534892E+002	5.5497259E-001	-2.7039447E+002
3	0	9.388801862408582E+002	5.5536741E-001	-2.7039447E+002
3	0	9.393801862282271E+002	5.5581295E-001	-2.7038385E+002
3	0	9.398801862155960E+002	5.5577546E-001	-2.7039093E+002
3	0	9.403801862029650E+002	5.5527061E-001	-2.7040860E+002
3	0	9.408801861903339E+002	5.5437058E-001	-2.7036972E+002
3	0	9.413801861777029E+002	5.5284947E-001	-2.7036618E+002
3	0	9.418801861650718E+002	5.5037820E-001	-2.7036267E+002
3	0	9.423801861524407E+002	5.4756016E-001	-2.7039093E+002
3	0	9.428801861398097E+002	5.4596639E-001	-2.7038031E+002
3	0	9.433801861271786E+002	5.4444993E-001	-2.7038742E+002
3	0	9.438801861145475E+002	5.4241180E-001	-2.7037326E+002
3	0	9.443801861019165E+002	5.3986531E-001	-2.7035913E+002
3	0	9.448801860892854E+002	5.3703928E-001	-2.7038742E+002
3	0	9.453801860766544E+002	5.3370070E-001	-2.7035205E+002
3	0	9.458801860640233E+002	5.2965027E-001	-2.7039093E+002
3	0	9.463801860513922E+002	5.2542746E-001	-2.7039093E+002
3	0	9.468801860387612E+002	5.2251679E-001	-2.7038031E+002
3	0	9.468805860387511E+002	5.2123225E-001	-2.7040155E+002