EC-Lab ASCII FILE
Nb header lines : 55                          

Open Circuit Voltage

Run on channel : 1 (SN 81504)
User : 
CE vs. WE compliance from -10 V to 10 V
Electrode connection : standard
Potential control : Ewe
Ewe ctrl range : min = -2.50 V, max = 2.50 V
Safety Limits :
	Do not start on E overload
Acquisition started on : 05/10/2026 02:45:19.470
Loaded Setting File :  C:\PEM-WE_measurements\2026\372_IV_IV IrOx, 5 min Pt, 30 min C, etched cathode\new station\Loopeis new\1,46 V different time gaps closed cell\Loopeis 1,46V_60s_4_PEIS from 650Hz to 100Hz.mps
Saved on :
	File : L_14_Loopeis 1,46V_60s_4_PEIS from 650Hz to 100Hz_08_OCV_C01.mpr
	Directory : C:\PEM-WE_measurements\2026\372_IV_IV IrOx, 5 min Pt, 30 min C, etched cathode\new station\Loopeis new\1,46 V different time gaps closed cell\
	Host : 192.168.0.2
Device : SP-150e (SN .005491)
Address : 192.168.0.91
EC-LAB for windows v11.71 (software)
Internet server v28.00 (firmware)
Command interpretor v14.01 (firmware)
Electrode material : 
Initial state : 
Electrolyte : 
Comments : 
Current amplifier : SP-150eB-20A
Electrode surface area : 0.001 cm²
Characteristic mass : 0.001 g
Equivalent Weight : 0.000 g/eq.
Density : 0.000 g/cm3
Volume (V) : 0.001 cm³
Record Analogic IN 1
Text export
   Mode : Standard
   Time format : Elapsed
Cycle Definition : Charge/Discharge alternance
External device configuration :
   device type : Temperature Probe
   device name : Other
   Analog IN 1 : 
      unit : T/Â°C
      max : 100.000 at 2.000 V
      min : 0.000 at 1.460 V
tR (h:m:s)          0:01:0.0000         
dER/dt (mV/h)       1.0                 
record              <Ewe>               
dER (mV)            10.00               
dtR (s)             0.5000              
E range min (V)     -2.500              
E range max (V)     2.500               

mode	error	time/s	<Ewe/V>	Analog IN 1/V	
3	0	3.614953974901437E+002	1.1809291E+000	-2.7039093E+002
3	0	3.619953974775126E+002	1.2599860E+000	-2.7036972E+002
3	0	3.624953974648815E+002	1.2636868E+000	-2.7038742E+002
3	0	3.629953974522505E+002	1.2658204E+000	-2.7038742E+002
3	0	3.634953974396194E+002	1.2672355E+000	-2.7039447E+002
3	0	3.639953974269883E+002	1.2682207E+000	-2.7037677E+002
3	0	3.644953974143573E+002	1.2688999E+000	-2.7037326E+002
3	0	3.649953974017262E+002	1.2693816E+000	-2.7038385E+002
3	0	3.654953973890952E+002	1.2697045E+000	-2.7039801E+002
3	0	3.659953973764641E+002	1.2698771E+000	-2.7038385E+002
3	0	3.664953973638330E+002	1.2699137E+000	-2.7034851E+002
3	0	3.669953973512020E+002	1.2699603E+000	-2.7039801E+002
3	0	3.674953973385709E+002	1.2700107E+000	-2.7041214E+002
3	0	3.679953973259398E+002	1.2700250E+000	-2.7035559E+002
3	0	3.684953973133088E+002	1.2700171E+000	-2.7039093E+002
3	0	3.689953973006777E+002	1.2699773E+000	-2.7039093E+002
3	0	3.694953972880467E+002	1.2699101E+000	-2.7039801E+002
3	0	3.699953972754156E+002	1.2697629E+000	-2.7039801E+002
3	0	3.704953972627845E+002	1.2695651E+000	-2.7040155E+002
3	0	3.709953972501535E+002	1.2694380E+000	-2.7038385E+002
3	0	3.714953972375224E+002	1.2693669E+000	-2.7037677E+002
3	0	3.719953972248913E+002	1.2692862E+000	-2.7037677E+002
3	0	3.724953972122603E+002	1.2692075E+000	-2.7036618E+002
3	0	3.729953971996292E+002	1.2691326E+000	-2.7040506E+002
3	0	3.734953971869982E+002	1.2690357E+000	-2.7038385E+002
3	0	3.739953971743671E+002	1.2688795E+000	-2.7037677E+002
3	0	3.744953971617360E+002	1.2686571E+000	-2.7037326E+002
3	0	3.749953971491050E+002	1.2685088E+000	-2.7039447E+002
3	0	3.754953971364739E+002	1.2684289E+000	-2.7039447E+002
3	0	3.759953971238428E+002	1.2683513E+000	-2.7038385E+002
3	0	3.764953971112118E+002	1.2682724E+000	-2.7036618E+002
3	0	3.769953970985807E+002	1.2682037E+000	-2.7037677E+002
3	0	3.774953970859497E+002	1.2681322E+000	-2.7041568E+002
3	0	3.779953970733186E+002	1.2680050E+000	-2.7038742E+002
3	0	3.784953970606875E+002	1.2678269E+000	-2.7037677E+002
3	0	3.789953970480565E+002	1.2677350E+000	-2.7038385E+002
3	0	3.794953970354254E+002	1.2677437E+000	-2.7037326E+002
3	0	3.799953970227944E+002	1.2677706E+000	-2.7037677E+002
3	0	3.804953970101633E+002	1.2678002E+000	-2.7037326E+002
3	0	3.809953969975322E+002	1.2678474E+000	-2.7039447E+002
3	0	3.814953969849012E+002	1.2678798E+000	-2.7037677E+002
3	0	3.819953969722701E+002	1.2678382E+000	-2.7036618E+002
3	0	3.824953969596390E+002	1.2677464E+000	-2.7039093E+002
3	0	3.829953969470080E+002	1.2677270E+000	-2.7037677E+002
3	0	3.834953969343769E+002	1.2677761E+000	-2.7038385E+002
3	0	3.839953969217459E+002	1.2678200E+000	-2.7039093E+002
3	0	3.844953969091148E+002	1.2678610E+000	-2.7038031E+002
3	0	3.849953968964837E+002	1.2678968E+000	-2.7038742E+002
3	0	3.854953968838527E+002	1.2679087E+000	-2.7039093E+002
3	0	3.859953968712216E+002	1.2678491E+000	-2.7036618E+002
3	0	3.864953968585905E+002	1.2677159E+000	-2.7035913E+002
3	0	3.869953968459595E+002	1.2676556E+000	-2.7037677E+002
3	0	3.874953968333284E+002	1.2676508E+000	-2.7039447E+002
3	0	3.879953968206974E+002	1.2676464E+000	-2.7038031E+002
3	0	3.884953968080663E+002	1.2676206E+000	-2.7037677E+002
3	0	3.889953967954352E+002	1.2675794E+000	-2.7035205E+002
3	0	3.894953967828042E+002	1.2675112E+000	-2.7039447E+002
3	0	3.899953967701731E+002	1.2673880E+000	-2.7039447E+002
3	0	3.904953967575420E+002	1.2671816E+000	-2.7036267E+002
3	0	3.909953967449110E+002	1.2670453E+000	-2.7038385E+002
3	0	3.914953967322799E+002	1.2669706E+000	-2.7036972E+002
3	0	3.919953967196489E+002	1.2669041E+000	-2.7040860E+002
3	0	3.924953967070178E+002	1.2668111E+000	-2.7035205E+002
3	0	3.929953966943867E+002	1.2667067E+000	-2.7035559E+002
3	0	3.934953966817557E+002	1.2665780E+000	-2.7039093E+002
3	0	3.939953966691246E+002	1.2663887E+000	-2.7035913E+002
3	0	3.944953966564935E+002	1.2661365E+000	-2.7038742E+002
3	0	3.949953966438625E+002	1.2659482E+000	-2.7038742E+002
3	0	3.954953966312314E+002	1.2658194E+000	-2.7040155E+002
3	0	3.959953966186004E+002	1.2656890E+000	-2.7039447E+002
3	0	3.964953966059693E+002	1.2655426E+000	-2.7037326E+002
3	0	3.969953965933382E+002	1.2654046E+000	-2.7035913E+002
3	0	3.974953965807072E+002	1.2652525E+000	-2.7039447E+002
3	0	3.979953965680761E+002	1.2650406E+000	-2.7036618E+002
3	0	3.984953965554450E+002	1.2647647E+000	-2.7035559E+002
3	0	3.989953965428140E+002	1.2645704E+000	-2.7035913E+002
3	0	3.994953965301829E+002	1.2644467E+000	-2.7036618E+002
3	0	3.999953965175519E+002	1.2643266E+000	-2.7035913E+002
3	0	4.004953965049208E+002	1.2641948E+000	-2.7038385E+002
3	0	4.009953964922897E+002	1.2640613E+000	-2.7037677E+002
3	0	4.014953964796587E+002	1.2639136E+000	-2.7038385E+002
3	0	4.019953964670276E+002	1.2636971E+000	-2.7038385E+002
3	0	4.024953964543965E+002	1.2634200E+000	-2.7039801E+002
3	0	4.029953964417655E+002	1.2632115E+000	-2.7038031E+002
3	0	4.034953964291344E+002	1.2630736E+000	-2.7039801E+002
3	0	4.039953964165034E+002	1.2629415E+000	-2.7037326E+002
3	0	4.044953964038723E+002	1.2627988E+000	-2.7037677E+002
3	0	4.049953963912412E+002	1.2626473E+000	-2.7036972E+002
3	0	4.054953963786102E+002	1.2624860E+000	-2.7036618E+002
3	0	4.059953963659791E+002	1.2622391E+000	-2.7036618E+002
3	0	4.064953963533480E+002	1.2619392E+000	-2.7037677E+002
3	0	4.069953963407170E+002	1.2617104E+000	-2.7035913E+002
3	0	4.074953963280859E+002	1.2615459E+000	-2.7038031E+002
3	0	4.079953963154549E+002	1.2613798E+000	-2.7036267E+002
3	0	4.084953963028238E+002	1.2612085E+000	-2.7037326E+002
3	0	4.089953962901927E+002	1.2610271E+000	-2.7037326E+002
3	0	4.094953962775617E+002	1.2608273E+000	-2.7040155E+002
3	0	4.099953962649306E+002	1.2605621E+000	-2.7039093E+002
3	0	4.104953962522995E+002	1.2602406E+000	-2.7039801E+002
3	0	4.109953962396685E+002	1.2599874E+000	-2.7037326E+002
3	0	4.114953962270374E+002	1.2598075E+000	-2.7038385E+002
3	0	4.119953962144064E+002	1.2596271E+000	-2.7036618E+002
3	0	4.124953962017753E+002	1.2594241E+000	-2.7035559E+002
3	0	4.129953961891442E+002	1.2592336E+000	-2.7036618E+002
3	0	4.134953961765132E+002	1.2590215E+000	-2.7038742E+002
3	0	4.139953961638821E+002	1.2587489E+000	-2.7037326E+002
3	0	4.144953961512510E+002	1.2584242E+000	-2.7037326E+002
3	0	4.149953961386200E+002	1.2581644E+000	-2.7036267E+002
3	0	4.154953961259889E+002	1.2579719E+000	-2.7034851E+002
3	0	4.159953961133579E+002	1.2577728E+000	-2.7039801E+002
3	0	4.164953961007268E+002	1.2575681E+000	-2.7039801E+002
3	0	4.169953960880957E+002	1.2573750E+000	-2.7037677E+002
3	0	4.174953960754647E+002	1.2571615E+000	-2.7036618E+002
3	0	4.179953960628336E+002	1.2568853E+000	-2.7038031E+002
3	0	4.184953960502025E+002	1.2565627E+000	-2.7038742E+002
3	0	4.189953960375715E+002	1.2563323E+000	-2.7039093E+002
3	0	4.194953960249404E+002	1.2561767E+000	-2.7038031E+002
3	0	4.199953960123094E+002	1.2560368E+000	-2.7037326E+002
3	0	4.204953959996783E+002	1.2559047E+000	-2.7036618E+002
3	0	4.209953959870472E+002	1.2557949E+000	-2.7036972E+002
3	0	4.210187959864561E+002	1.2557429E+000	-2.7040506E+002