EC-Lab ASCII FILE
Nb header lines : 55                          

Open Circuit Voltage

Run on channel : 1 (SN 81504)
User : 
CE vs. WE compliance from -10 V to 10 V
Electrode connection : standard
Potential control : Ewe
Ewe ctrl range : min = -2.50 V, max = 2.50 V
Safety Limits :
	Do not start on E overload
Acquisition started on : 05/07/2026 15:46:26.830
Loaded Setting File :  C:\PEM-WE_measurements\2026\372_IV_IV IrOx, 5 min Pt, 30 min C, etched cathode\new station\Loopeis new\1,46 V different time gaps open cell\Loopeis 1,46V_45s_3_PEIS from 6500Hz to 1000Hz.mps
Saved on :
	File : L_08_Loopeis 1,46V_45s_3_PEIS from 6500Hz to 1000Hz_08_OCV_C01.mpr
	Directory : C:\PEM-WE_measurements\2026\372_IV_IV IrOx, 5 min Pt, 30 min C, etched cathode\new station\Loopeis new\1,46 V different time gaps open cell\
	Host : 192.168.0.2
Device : SP-150e (SN .005491)
Address : 192.168.0.91
EC-LAB for windows v11.71 (software)
Internet server v28.00 (firmware)
Command interpretor v14.01 (firmware)
Electrode material : 
Initial state : 
Electrolyte : 
Comments : 
Current amplifier : SP-150eB-20A
Electrode surface area : 0.001 cm²
Characteristic mass : 0.001 g
Equivalent Weight : 0.000 g/eq.
Density : 0.000 g/cm3
Volume (V) : 0.001 cm³
Record Analogic IN 1
Text export
   Mode : Standard
   Time format : Elapsed
Cycle Definition : Charge/Discharge alternance
External device configuration :
   device type : Temperature Probe
   device name : Other
   Analog IN 1 : 
      unit : T/Â°C
      max : 100.000 at 2.000 V
      min : 0.000 at 1.460 V
tR (h:m:s)          0:00:45.0000        
dER/dt (mV/h)       1.0                 
record              <Ewe>               
dER (mV)            10.00               
dtR (s)             0.5000              
E range min (V)     -2.500              
E range max (V)     2.500               

mode	error	time/s	<Ewe/V>	Analog IN 1/V	
3	0	3.156303985858540E+002	1.0697939E+000	-2.7036972E+002
3	0	3.161303985732229E+002	1.2252673E+000	-2.7037677E+002
3	0	3.166303985605919E+002	1.1892879E+000	-2.7037677E+002
3	0	3.171303985479608E+002	1.1102335E+000	-2.7039801E+002
3	0	3.176303985353297E+002	8.3805531E-001	-2.7040155E+002
3	0	3.181303985226987E+002	4.2568922E-001	-2.7036267E+002
3	0	3.186303985100676E+002	3.2825738E-001	-2.7038031E+002
3	0	3.191303984974365E+002	3.1588468E-001	-2.7038385E+002
3	0	3.196303984848055E+002	3.0807376E-001	-2.7038385E+002
3	0	3.201303984721744E+002	3.0171835E-001	-2.7038385E+002
3	0	3.206303984595434E+002	2.9683086E-001	-2.7037326E+002
3	0	3.211303984469123E+002	2.9305932E-001	-2.7039801E+002
3	0	3.216303984342812E+002	2.9009148E-001	-2.7037326E+002
3	0	3.221303984216502E+002	2.8772777E-001	-2.7038742E+002
3	0	3.226303984090191E+002	2.8578922E-001	-2.7037326E+002
3	0	3.231303983963880E+002	2.8415486E-001	-2.7034851E+002
3	0	3.236303983837570E+002	2.8275368E-001	-2.7036972E+002
3	0	3.241303983711259E+002	2.8152964E-001	-2.7036972E+002
3	0	3.246303983584949E+002	2.8043541E-001	-2.7037326E+002
3	0	3.251303983458638E+002	2.7943218E-001	-2.7039801E+002
3	0	3.256303983332327E+002	2.7849564E-001	-2.7036267E+002
3	0	3.261303983206017E+002	2.7765098E-001	-2.7039093E+002
3	0	3.266303983079706E+002	2.7686703E-001	-2.7036972E+002
3	0	3.271303982953395E+002	2.7612212E-001	-2.7037326E+002
3	0	3.276303982827085E+002	2.7542263E-001	-2.7039447E+002
3	0	3.281303982700774E+002	2.7475482E-001	-2.7040155E+002
3	0	3.286303982574464E+002	2.7411100E-001	-2.7036972E+002
3	0	3.291303982448153E+002	2.7346402E-001	-2.7034851E+002
3	0	3.296303982321842E+002	2.7281573E-001	-2.7038031E+002
3	0	3.301303982195532E+002	2.7221459E-001	-2.7034143E+002
3	0	3.306303982069221E+002	2.7163854E-001	-2.7039093E+002
3	0	3.311303981942910E+002	2.7106300E-001	-2.7038385E+002
3	0	3.316303981816600E+002	2.7051222E-001	-2.7041919E+002
3	0	3.321303981690289E+002	2.6996076E-001	-2.7038031E+002
3	0	3.326303981563979E+002	2.6942191E-001	-2.7037326E+002
3	0	3.331303981437668E+002	2.6886228E-001	-2.7038385E+002
3	0	3.336303981311357E+002	2.6829594E-001	-2.7037326E+002
3	0	3.341303981185047E+002	2.6776069E-001	-2.7037326E+002
3	0	3.346303981058736E+002	2.6724812E-001	-2.7037326E+002
3	0	3.351303980932425E+002	2.6673317E-001	-2.7037326E+002
3	0	3.356303980806115E+002	2.6622126E-001	-2.7035913E+002
3	0	3.361303980679804E+002	2.6572028E-001	-2.7037326E+002
3	0	3.366303980553494E+002	2.6521593E-001	-2.7036972E+002
3	0	3.371303980427183E+002	2.6470518E-001	-2.7038385E+002
3	0	3.376303980300872E+002	2.6418102E-001	-2.7041214E+002
3	0	3.381303980174562E+002	2.6368532E-001	-2.7038742E+002
3	0	3.386303980048251E+002	2.6320449E-001	-2.7036972E+002
3	0	3.391303979921940E+002	2.6272407E-001	-2.7040155E+002
3	0	3.396303979795630E+002	2.6224965E-001	-2.7038031E+002
3	0	3.401303979669319E+002	2.6178050E-001	-2.7038031E+002
3	0	3.406303979543009E+002	2.6131082E-001	-2.7039093E+002
3	0	3.411303979416698E+002	2.6082844E-001	-2.7036267E+002
3	0	3.416303979290387E+002	2.6033622E-001	-2.7038031E+002
3	0	3.421303979164077E+002	2.5987178E-001	-2.7036972E+002
3	0	3.426303979037766E+002	2.5943235E-001	-2.7039801E+002
3	0	3.431303978911455E+002	2.5898615E-001	-2.7039447E+002
3	0	3.436303978785145E+002	2.5854367E-001	-2.7038742E+002
3	0	3.441303978658834E+002	2.5810722E-001	-2.7036267E+002
3	0	3.446303978532524E+002	2.5766945E-001	-2.7037326E+002
3	0	3.451303978406213E+002	2.5721666E-001	-2.7038385E+002
3	0	3.456303978279902E+002	2.5675631E-001	-2.7036972E+002
3	0	3.461303978153592E+002	2.5632825E-001	-2.7039093E+002
3	0	3.466303978027281E+002	2.5591820E-001	-2.7037677E+002
3	0	3.471303977900970E+002	2.5549996E-001	-2.7038742E+002
3	0	3.476303977774660E+002	2.5508800E-001	-2.7037326E+002
3	0	3.481303977648349E+002	2.5469011E-001	-2.7040506E+002
3	0	3.486303977522039E+002	2.5427908E-001	-2.7036972E+002
3	0	3.491303977395728E+002	2.5386065E-001	-2.7038385E+002
3	0	3.496303977269417E+002	2.5343293E-001	-2.7038031E+002
3	0	3.501303977143107E+002	2.5303724E-001	-2.7038385E+002
3	0	3.506303977016796E+002	2.5265568E-001	-2.7036972E+002
3	0	3.511303976890486E+002	2.5227177E-001	-2.7039801E+002
3	0	3.516303976764175E+002	2.5189039E-001	-2.7037677E+002
3	0	3.521303976637864E+002	2.5150487E-001	-2.7038742E+002
3	0	3.526303976511554E+002	2.5113031E-001	-2.7041568E+002
3	0	3.531303976385243E+002	2.5073558E-001	-2.7036618E+002
3	0	3.536303976258932E+002	2.5034159E-001	-2.7038031E+002
3	0	3.541303976132622E+002	2.4996661E-001	-2.7038031E+002
3	0	3.546303976006311E+002	2.4961875E-001	-2.7036972E+002
3	0	3.551303975880001E+002	2.4926585E-001	-2.7038385E+002
3	0	3.556303975753690E+002	2.4890301E-001	-2.7035559E+002
3	0	3.561303975627379E+002	2.4853712E-001	-2.7036618E+002
3	0	3.566303975501069E+002	2.4819672E-001	-2.7037677E+002
3	0	3.571303975374758E+002	2.4784122E-001	-2.7037677E+002
3	0	3.576303975248447E+002	2.4746989E-001	-2.7039801E+002
3	0	3.581303975122137E+002	2.4712506E-001	-2.7036618E+002
3	0	3.586303974995826E+002	2.4680404E-001	-2.7038031E+002
3	0	3.591303974869516E+002	2.4648033E-001	-2.7039093E+002
3	0	3.596303974743205E+002	2.4615687E-001	-2.7037677E+002
3	0	3.601303974616894E+002	2.4583526E-001	-2.7039801E+002
3	0	3.601537974610983E+002	2.4566756E-001	-2.7038742E+002