EC-Lab ASCII FILE
Nb header lines : 55                          

Open Circuit Voltage

Run on channel : 1 (SN 81504)
User : 
CE vs. WE compliance from -10 V to 10 V
Electrode connection : standard
Potential control : Ewe
Ewe ctrl range : min = -2.50 V, max = 2.50 V
Safety Limits :
	Do not start on E overload
Acquisition started on : 05/10/2026 09:06:36.404
Loaded Setting File :  C:\PEM-WE_measurements\2026\372_IV_IV IrOx, 5 min Pt, 30 min C, etched cathode\new station\Loopeis new\1,46 V different time gaps closed cell\Loopeis 1,46V_180s_3_PEIS from 6500Hz to 1000Hz.mps
Saved on :
	File : L_28_Loopeis 1,46V_180s_3_PEIS from 6500Hz to 1000Hz_08_OCV_C01.mpr
	Directory : C:\PEM-WE_measurements\2026\372_IV_IV IrOx, 5 min Pt, 30 min C, etched cathode\new station\Loopeis new\1,46 V different time gaps closed cell\
	Host : 192.168.0.2
Device : SP-150e (SN .005491)
Address : 192.168.0.91
EC-LAB for windows v11.71 (software)
Internet server v28.00 (firmware)
Command interpretor v14.01 (firmware)
Electrode material : 
Initial state : 
Electrolyte : 
Comments : 
Current amplifier : SP-150eB-20A
Electrode surface area : 0.001 cm²
Characteristic mass : 0.001 g
Equivalent Weight : 0.000 g/eq.
Density : 0.000 g/cm3
Volume (V) : 0.001 cm³
Record Analogic IN 1
Text export
   Mode : Standard
   Time format : Elapsed
Cycle Definition : Charge/Discharge alternance
External device configuration :
   device type : Temperature Probe
   device name : Other
   Analog IN 1 : 
      unit : T/Â°C
      max : 100.000 at 2.000 V
      min : 0.000 at 1.460 V
tR (h:m:s)          0:03:0.0000         
dER/dt (mV/h)       1.0                 
record              <Ewe>               
dER (mV)            10.00               
dtR (s)             0.5000              
E range min (V)     -2.500              
E range max (V)     2.500               

mode	error	time/s	<Ewe/V>	Analog IN 1/V	
3	0	7.204133883443865E+002	1.1063174E+000	-2.7034143E+002
3	0	7.209133883317554E+002	1.2545805E+000	-2.7037326E+002
3	0	7.214133883191244E+002	1.2428187E+000	-2.7036972E+002
3	0	7.219133883064933E+002	1.2173926E+000	-2.7038385E+002
3	0	7.224133882938622E+002	1.1715745E+000	-2.7036972E+002
3	0	7.229133882812312E+002	1.0834500E+000	-2.7039093E+002
3	0	7.234133882686001E+002	7.7230144E-001	-2.7037677E+002
3	0	7.239133882559690E+002	4.3548495E-001	-2.7040155E+002
3	0	7.244133882433380E+002	3.4167624E-001	-2.7036267E+002
3	0	7.249133882307069E+002	3.2650805E-001	-2.7038742E+002
3	0	7.254133882180759E+002	3.2589450E-001	-2.7037677E+002
3	0	7.259133882054448E+002	3.2779542E-001	-2.7036618E+002
3	0	7.264133881928137E+002	3.2978627E-001	-2.7038742E+002
3	0	7.269133881801827E+002	3.3138022E-001	-2.7038742E+002
3	0	7.274133881675516E+002	3.3240578E-001	-2.7036618E+002
3	0	7.279133881549205E+002	3.3319327E-001	-2.7036267E+002
3	0	7.284133881422895E+002	3.3415458E-001	-2.7040860E+002
3	0	7.289133881296584E+002	3.3486053E-001	-2.7036972E+002
3	0	7.294133881170274E+002	3.3545902E-001	-2.7037326E+002
3	0	7.299133881043963E+002	3.3597469E-001	-2.7036972E+002
3	0	7.304133880917652E+002	3.3643365E-001	-2.7036618E+002
3	0	7.309133880791342E+002	3.3682919E-001	-2.7038742E+002
3	0	7.314133880665031E+002	3.3711207E-001	-2.7036972E+002
3	0	7.319133880538720E+002	3.3740520E-001	-2.7036618E+002
3	0	7.324133880412410E+002	3.3796960E-001	-2.7037677E+002
3	0	7.329133880286099E+002	3.3841017E-001	-2.7036267E+002
3	0	7.334133880159789E+002	3.3878937E-001	-2.7038031E+002
3	0	7.339133880033478E+002	3.3911720E-001	-2.7037677E+002
3	0	7.344133879907167E+002	3.3940610E-001	-2.7036618E+002
3	0	7.349133879780857E+002	3.3962601E-001	-2.7039093E+002
3	0	7.354133879654546E+002	3.3973292E-001	-2.7038031E+002
3	0	7.359133879528235E+002	3.3987981E-001	-2.7034143E+002
3	0	7.364133879401925E+002	3.4031361E-001	-2.7037677E+002
3	0	7.369133879275614E+002	3.4062442E-001	-2.7039093E+002
3	0	7.374133879149304E+002	3.4090105E-001	-2.7038385E+002
3	0	7.379133879022993E+002	3.4111589E-001	-2.7038385E+002
3	0	7.384133878896682E+002	3.4131762E-001	-2.7038031E+002
3	0	7.389133878770372E+002	3.4144732E-001	-2.7039093E+002
3	0	7.394133878644061E+002	3.4144047E-001	-2.7038742E+002
3	0	7.399133878517750E+002	3.4146351E-001	-2.7038031E+002
3	0	7.404133878391440E+002	3.4180373E-001	-2.7036972E+002
3	0	7.409133878265129E+002	3.4203556E-001	-2.7038031E+002
3	0	7.414133878138819E+002	3.4221706E-001	-2.7039093E+002
3	0	7.419133878012508E+002	3.4238276E-001	-2.7038742E+002
3	0	7.424133877886197E+002	3.4250277E-001	-2.7040506E+002
3	0	7.429133877759887E+002	3.4256476E-001	-2.7036972E+002
3	0	7.434133877633576E+002	3.4254801E-001	-2.7037677E+002
3	0	7.439133877507265E+002	3.4252453E-001	-2.7040155E+002
3	0	7.444133877380955E+002	3.4277958E-001	-2.7035205E+002
3	0	7.449133877254644E+002	3.4296674E-001	-2.7036618E+002
3	0	7.454133877128334E+002	3.4311309E-001	-2.7038742E+002
3	0	7.459133877002023E+002	3.4325957E-001	-2.7039093E+002
3	0	7.464133876875712E+002	3.4344646E-001	-2.7039801E+002
3	0	7.469133876749402E+002	3.4360117E-001	-2.7037677E+002
3	0	7.474133876623091E+002	3.4368864E-001	-2.7037677E+002
3	0	7.479133876496780E+002	3.4387192E-001	-2.7035205E+002
3	0	7.484133876370470E+002	3.4439898E-001	-2.7036618E+002
3	0	7.489133876244159E+002	3.4485403E-001	-2.7039447E+002
3	0	7.494133876117849E+002	3.4525561E-001	-2.7039093E+002
3	0	7.499133875991538E+002	3.4557775E-001	-2.7041919E+002
3	0	7.504133875865227E+002	3.4585625E-001	-2.7036618E+002
3	0	7.509133875738917E+002	3.4602502E-001	-2.7036618E+002
3	0	7.514133875612606E+002	3.4607178E-001	-2.7037326E+002
3	0	7.519133875486295E+002	3.4607551E-001	-2.7037326E+002
3	0	7.524133875359985E+002	3.4636149E-001	-2.7035913E+002
3	0	7.529133875233674E+002	3.4653619E-001	-2.7038742E+002
3	0	7.534133875107364E+002	3.4665877E-001	-2.7036267E+002
3	0	7.539133874981053E+002	3.4672540E-001	-2.7037326E+002
3	0	7.544133874854742E+002	3.4677401E-001	-2.7036618E+002
3	0	7.549133874728432E+002	3.4672728E-001	-2.7037326E+002
3	0	7.554133874602121E+002	3.4658080E-001	-2.7035559E+002
3	0	7.559133874475810E+002	3.4643614E-001	-2.7037326E+002
3	0	7.564133874349500E+002	3.4656504E-001	-2.7036972E+002
3	0	7.569133874223189E+002	3.4664139E-001	-2.7035913E+002
3	0	7.574133874096879E+002	3.4665033E-001	-2.7039447E+002
3	0	7.579133873970568E+002	3.4662643E-001	-2.7035205E+002
3	0	7.584133873844257E+002	3.4655949E-001	-2.7037677E+002
3	0	7.589133873717947E+002	3.4640458E-001	-2.7039093E+002
3	0	7.594133873591636E+002	3.4616905E-001	-2.7037326E+002
3	0	7.599133873465325E+002	3.4594560E-001	-2.7039801E+002
3	0	7.604133873339015E+002	3.4601268E-001	-2.7038742E+002
3	0	7.609133873212704E+002	3.4601215E-001	-2.7036618E+002
3	0	7.614133873086394E+002	3.4596220E-001	-2.7038385E+002
3	0	7.619133872960083E+002	3.4590277E-001	-2.7037677E+002
3	0	7.624133872833772E+002	3.4581521E-001	-2.7036972E+002
3	0	7.629133872707462E+002	3.4568101E-001	-2.7039801E+002
3	0	7.634133872581151E+002	3.4542018E-001	-2.7037326E+002
3	0	7.639133872454840E+002	3.4517980E-001	-2.7038031E+002
3	0	7.644133872328530E+002	3.4522194E-001	-2.7034497E+002
3	0	7.649133872202219E+002	3.4519601E-001	-2.7038031E+002
3	0	7.654133872075909E+002	3.4512806E-001	-2.7038031E+002
3	0	7.659133871949598E+002	3.4507084E-001	-2.7036618E+002
3	0	7.664133871823287E+002	3.4502849E-001	-2.7036972E+002
3	0	7.669133871696977E+002	3.4499413E-001	-2.7038031E+002
3	0	7.674133871570666E+002	3.4494755E-001	-2.7036267E+002
3	0	7.679133871444355E+002	3.4494838E-001	-2.7038385E+002
3	0	7.684133871318045E+002	3.4525710E-001	-2.7035913E+002
3	0	7.689133871191734E+002	3.4555838E-001	-2.7037326E+002
3	0	7.694133871065424E+002	3.4580374E-001	-2.7037326E+002
3	0	7.699133870939113E+002	3.4598470E-001	-2.7037677E+002
3	0	7.704133870812802E+002	3.4612611E-001	-2.7038031E+002
3	0	7.709133870686492E+002	3.4616414E-001	-2.7036972E+002
3	0	7.714133870560181E+002	3.4605652E-001	-2.7039447E+002
3	0	7.719133870433870E+002	3.4592816E-001	-2.7038031E+002
3	0	7.724133870307560E+002	3.4604537E-001	-2.7038385E+002
3	0	7.729133870181249E+002	3.4608379E-001	-2.7038742E+002
3	0	7.734133870054939E+002	3.4605509E-001	-2.7040155E+002
3	0	7.739133869928628E+002	3.4600243E-001	-2.7040155E+002
3	0	7.744133869802317E+002	3.4592193E-001	-2.7037677E+002
3	0	7.749133869676007E+002	3.4576088E-001	-2.7039093E+002
3	0	7.754133869549696E+002	3.4550372E-001	-2.7038385E+002
3	0	7.759133869423385E+002	3.4523249E-001	-2.7038385E+002
3	0	7.764133869297075E+002	3.4522229E-001	-2.7040506E+002
3	0	7.769133869170764E+002	3.4516141E-001	-2.7039447E+002
3	0	7.774133869044454E+002	3.4505647E-001	-2.7037326E+002
3	0	7.779133868918143E+002	3.4493914E-001	-2.7038031E+002
3	0	7.784133868791832E+002	3.4478900E-001	-2.7036972E+002
3	0	7.789133868665522E+002	3.4458932E-001	-2.7038385E+002
3	0	7.794133868539211E+002	3.4426171E-001	-2.7038385E+002
3	0	7.799133868412900E+002	3.4395301E-001	-2.7037326E+002
3	0	7.804133868286590E+002	3.4389934E-001	-2.7038031E+002
3	0	7.809133868160279E+002	3.4383687E-001	-2.7038385E+002
3	0	7.814133868033969E+002	3.4371945E-001	-2.7036267E+002
3	0	7.819133867907658E+002	3.4357631E-001	-2.7036267E+002
3	0	7.824133867781347E+002	3.4338889E-001	-2.7038742E+002
3	0	7.829133867655037E+002	3.4315330E-001	-2.7039093E+002
3	0	7.834133867528726E+002	3.4285593E-001	-2.7038742E+002
3	0	7.839133867402415E+002	3.4254289E-001	-2.7034497E+002
3	0	7.844133867276105E+002	3.4249711E-001	-2.7038742E+002
3	0	7.849133867149794E+002	3.4240898E-001	-2.7036972E+002
3	0	7.854133867023484E+002	3.4227589E-001	-2.7036618E+002
3	0	7.859133866897173E+002	3.4215593E-001	-2.7035205E+002
3	0	7.864133866770862E+002	3.4203488E-001	-2.7038031E+002
3	0	7.869133866644552E+002	3.4192181E-001	-2.7035913E+002
3	0	7.874133866518241E+002	3.4178981E-001	-2.7035913E+002
3	0	7.879133866391931E+002	3.4169045E-001	-2.7040860E+002
3	0	7.884133866265620E+002	3.4189308E-001	-2.7036972E+002
3	0	7.889133866139309E+002	3.4212089E-001	-2.7036267E+002
3	0	7.894133866012999E+002	3.4228960E-001	-2.7038385E+002
3	0	7.899133865886688E+002	3.4239933E-001	-2.7039093E+002
3	0	7.904133865760377E+002	3.4248576E-001	-2.7038742E+002
3	0	7.909133865634067E+002	3.4248900E-001	-2.7038031E+002
3	0	7.914133865507756E+002	3.4236154E-001	-2.7038742E+002
3	0	7.919133865381446E+002	3.4221065E-001	-2.7038385E+002
3	0	7.924133865255135E+002	3.4227294E-001	-2.7036972E+002
3	0	7.929133865128824E+002	3.4229305E-001	-2.7035205E+002
3	0	7.934133865002514E+002	3.4223628E-001	-2.7036972E+002
3	0	7.939133864876203E+002	3.4215680E-001	-2.7036618E+002
3	0	7.944133864749892E+002	3.4194058E-001	-2.7037677E+002
3	0	7.949133864623582E+002	3.4166431E-001	-2.7039447E+002
3	0	7.954133864497271E+002	3.4156585E-001	-2.7039093E+002
3	0	7.959133864370961E+002	3.4133565E-001	-2.7038742E+002
3	0	7.964133864244650E+002	3.4129098E-001	-2.7038385E+002
3	0	7.969133864118339E+002	3.4121636E-001	-2.7036618E+002
3	0	7.974133863992029E+002	3.4101793E-001	-2.7038385E+002
3	0	7.979133863865718E+002	3.4081861E-001	-2.7036972E+002
3	0	7.984133863739407E+002	3.4062499E-001	-2.7039093E+002
3	0	7.989133863613097E+002	3.4039083E-001	-2.7037677E+002
3	0	7.994133863486786E+002	3.4002721E-001	-2.7038031E+002
3	0	7.999133863360476E+002	3.3963799E-001	-2.7036618E+002
3	0	8.004133863234165E+002	3.3955848E-001	-2.7038031E+002
3	0	8.009133863107854E+002	3.3951113E-001	-2.7038031E+002
3	0	8.014133862981544E+002	3.3933666E-001	-2.7038385E+002
3	0	8.019133862855233E+002	3.3913738E-001	-2.7036972E+002
3	0	8.024133862728922E+002	3.3894521E-001	-2.7038742E+002
3	0	8.029133862602612E+002	3.3867025E-001	-2.7038031E+002
3	0	8.034133862476301E+002	3.3827141E-001	-2.7038742E+002
3	0	8.039133862349991E+002	3.3791110E-001	-2.7038385E+002
3	0	8.044133862223680E+002	3.3781236E-001	-2.7036267E+002
3	0	8.049133862097369E+002	3.3775315E-001	-2.7035205E+002
3	0	8.054133861971059E+002	3.3760944E-001	-2.7036972E+002
3	0	8.059133861844748E+002	3.3742782E-001	-2.7038031E+002
3	0	8.064133861718437E+002	3.3728623E-001	-2.7037677E+002
3	0	8.069133861592127E+002	3.3710417E-001	-2.7036618E+002
3	0	8.074133861465816E+002	3.3691630E-001	-2.7038385E+002
3	0	8.079133861339506E+002	3.3677560E-001	-2.7038031E+002
3	0	8.084133861213195E+002	3.3694163E-001	-2.7036618E+002
3	0	8.089133861086884E+002	3.3720079E-001	-2.7039801E+002
3	0	8.094133860960574E+002	3.3738750E-001	-2.7037326E+002
3	0	8.099133860834263E+002	3.3750856E-001	-2.7036618E+002
3	0	8.104133860707952E+002	3.3757502E-001	-2.7038031E+002
3	0	8.109133860581642E+002	3.3755842E-001	-2.7036267E+002
3	0	8.114133860455331E+002	3.3739835E-001	-2.7038385E+002
3	0	8.119133860329021E+002	3.3719426E-001	-2.7035205E+002
3	0	8.124133860202710E+002	3.3721986E-001	-2.7036267E+002
3	0	8.129133860076399E+002	3.3728129E-001	-2.7036972E+002
3	0	8.134133859950089E+002	3.3723027E-001	-2.7040155E+002
3	0	8.139133859823778E+002	3.3711588E-001	-2.7036618E+002
3	0	8.144133859697467E+002	3.3696949E-001	-2.7038031E+002
3	0	8.149133859571157E+002	3.3676684E-001	-2.7038385E+002
3	0	8.154133859444846E+002	3.3644664E-001	-2.7039093E+002
3	0	8.159133859318536E+002	3.3610216E-001	-2.7037677E+002
3	0	8.164133859192225E+002	3.3602384E-001	-2.7039093E+002
3	0	8.169133859065914E+002	3.3599231E-001	-2.7034851E+002
3	0	8.174133858939604E+002	3.3587694E-001	-2.7036267E+002
3	0	8.179133858813293E+002	3.3568829E-001	-2.7038742E+002
3	0	8.184133858686982E+002	3.3546805E-001	-2.7035913E+002
3	0	8.189133858560672E+002	3.3518058E-001	-2.7038031E+002
3	0	8.194133858434361E+002	3.3481061E-001	-2.7038031E+002
3	0	8.199133858308051E+002	3.3443776E-001	-2.7038031E+002
3	0	8.204133858181740E+002	3.3432338E-001	-2.7036972E+002
3	0	8.209133858055429E+002	3.3427691E-001	-2.7036618E+002
3	0	8.214133857929119E+002	3.3412904E-001	-2.7038031E+002
3	0	8.219133857802808E+002	3.3392790E-001	-2.7036972E+002
3	0	8.224133857676497E+002	3.3374465E-001	-2.7038742E+002
3	0	8.229133857550187E+002	3.3349451E-001	-2.7034851E+002
3	0	8.234133857423876E+002	3.3314437E-001	-2.7039447E+002
3	0	8.239133857297566E+002	3.3277962E-001	-2.7039093E+002
3	0	8.244133857171255E+002	3.3264738E-001	-2.7036972E+002
3	0	8.249133857044944E+002	3.3258367E-001	-2.7039447E+002
3	0	8.254133856918634E+002	3.3244529E-001	-2.7037326E+002
3	0	8.259133856792323E+002	3.3227736E-001	-2.7039093E+002
3	0	8.264133856666012E+002	3.3211637E-001	-2.7037326E+002
3	0	8.269133856539702E+002	3.3194467E-001	-2.7036618E+002
3	0	8.274133856413391E+002	3.3174890E-001	-2.7036972E+002
3	0	8.279133856287081E+002	3.3158180E-001	-2.7039447E+002
3	0	8.284133856160770E+002	3.3169389E-001	-2.7039093E+002
3	0	8.289133856034459E+002	3.3193856E-001	-2.7037326E+002
3	0	8.294133855908149E+002	3.3212081E-001	-2.7037326E+002
3	0	8.299133855781838E+002	3.3224347E-001	-2.7036972E+002
3	0	8.304133855655527E+002	3.3233410E-001	-2.7039801E+002
3	0	8.309133855529217E+002	3.3231047E-001	-2.7040155E+002
3	0	8.314133855402906E+002	3.3219409E-001	-2.7035559E+002
3	0	8.319133855276596E+002	3.3203870E-001	-2.7035913E+002
3	0	8.324133855150285E+002	3.3206579E-001	-2.7039093E+002
3	0	8.329133855023974E+002	3.3211920E-001	-2.7039801E+002
3	0	8.334133854897664E+002	3.3206698E-001	-2.7037326E+002
3	0	8.339133854771353E+002	3.3194140E-001	-2.7038385E+002
3	0	8.344133854645042E+002	3.3175257E-001	-2.7036618E+002
3	0	8.349133854518732E+002	3.3151224E-001	-2.7038385E+002
3	0	8.354133854392421E+002	3.3124369E-001	-2.7036267E+002
3	0	8.359133854266111E+002	3.3095706E-001	-2.7037326E+002
3	0	8.364133854139800E+002	3.3088666E-001	-2.7039447E+002
3	0	8.369133854013489E+002	3.3083141E-001	-2.7036618E+002
3	0	8.374133853887179E+002	3.3068609E-001	-2.7038385E+002
3	0	8.379133853760868E+002	3.3049443E-001	-2.7040506E+002
3	0	8.384133853634557E+002	3.3027288E-001	-2.7035913E+002
3	0	8.389133853508247E+002	3.3004075E-001	-2.7037326E+002
3	0	8.394133853381936E+002	3.2971883E-001	-2.7038742E+002
3	0	8.399133853255626E+002	3.2939339E-001	-2.7039801E+002
3	0	8.404133853129315E+002	3.2928312E-001	-2.7039447E+002
3	0	8.409133853003004E+002	3.2920468E-001	-2.7039447E+002
3	0	8.414133852876694E+002	3.2904181E-001	-2.7038742E+002
3	0	8.419133852750383E+002	3.2882711E-001	-2.7039093E+002
3	0	8.424133852624072E+002	3.2863104E-001	-2.7038031E+002
3	0	8.429133852497762E+002	3.2837772E-001	-2.7039093E+002
3	0	8.434133852371451E+002	3.2806388E-001	-2.7038742E+002
3	0	8.439133852245141E+002	3.2774851E-001	-2.7037677E+002
3	0	8.444133852118830E+002	3.2763749E-001	-2.7038385E+002
3	0	8.449133851992519E+002	3.2756236E-001	-2.7038742E+002
3	0	8.454133851866209E+002	3.2739514E-001	-2.7037326E+002
3	0	8.459133851739898E+002	3.2719705E-001	-2.7038031E+002
3	0	8.464133851613587E+002	3.2699069E-001	-2.7036972E+002
3	0	8.469133851487277E+002	3.2680157E-001	-2.7040506E+002
3	0	8.474133851360966E+002	3.2659990E-001	-2.7038385E+002
3	0	8.479133851234656E+002	3.2644430E-001	-2.7038385E+002
3	0	8.484133851108345E+002	3.2654777E-001	-2.7037677E+002
3	0	8.489133850982034E+002	3.2673734E-001	-2.7037326E+002
3	0	8.494133850855724E+002	3.2688284E-001	-2.7038385E+002
3	0	8.499133850729413E+002	3.2698900E-001	-2.7035913E+002
3	0	8.504133850603102E+002	3.2706675E-001	-2.7037677E+002
3	0	8.509133850476792E+002	3.2708341E-001	-2.7036618E+002
3	0	8.514133850350481E+002	3.2699794E-001	-2.7036267E+002
3	0	8.519133850224171E+002	3.2685477E-001	-2.7036618E+002
3	0	8.524133850097860E+002	3.2688293E-001	-2.7040155E+002
3	0	8.529133849971549E+002	3.2692930E-001	-2.7036618E+002
3	0	8.534133849845239E+002	3.2688186E-001	-2.7040860E+002
3	0	8.539133849718928E+002	3.2675573E-001	-2.7038742E+002
3	0	8.544133849592617E+002	3.2662582E-001	-2.7034851E+002
3	0	8.549133849466307E+002	3.2641235E-001	-2.7037677E+002
3	0	8.554133849339996E+002	3.2611996E-001	-2.7038031E+002
3	0	8.559133849213686E+002	3.2580715E-001	-2.7037326E+002
3	0	8.564133849087375E+002	3.2571048E-001	-2.7040155E+002
3	0	8.569133848961064E+002	3.2565686E-001	-2.7037326E+002
3	0	8.574133848834754E+002	3.2551062E-001	-2.7038031E+002
3	0	8.579133848708443E+002	3.2529694E-001	-2.7036618E+002
3	0	8.584133848582132E+002	3.2510540E-001	-2.7038742E+002
3	0	8.589133848455822E+002	3.2487503E-001	-2.7038385E+002
3	0	8.594133848329511E+002	3.2457319E-001	-2.7037326E+002
3	0	8.599133848203201E+002	3.2422200E-001	-2.7039447E+002
3	0	8.604133848076890E+002	3.2407975E-001	-2.7037677E+002
3	0	8.609133847950579E+002	3.2400307E-001	-2.7038742E+002
3	0	8.614133847824269E+002	3.2386422E-001	-2.7039447E+002
3	0	8.619133847697958E+002	3.2364994E-001	-2.7038031E+002
3	0	8.624133847571647E+002	3.2344493E-001	-2.7039801E+002
3	0	8.629133847445337E+002	3.2319370E-001	-2.7039093E+002
3	0	8.634133847319026E+002	3.2285854E-001	-2.7038031E+002
3	0	8.639133847192716E+002	3.2252145E-001	-2.7038031E+002
3	0	8.644133847066405E+002	3.2238024E-001	-2.7035559E+002
3	0	8.649133846940094E+002	3.2229513E-001	-2.7038742E+002
3	0	8.654133846813784E+002	3.2215726E-001	-2.7036618E+002
3	0	8.659133846687473E+002	3.2196265E-001	-2.7038031E+002
3	0	8.664133846561163E+002	3.2176501E-001	-2.7036267E+002
3	0	8.669133846434852E+002	3.2153016E-001	-2.7035559E+002
3	0	8.674133846308541E+002	3.2128823E-001	-2.7038031E+002
3	0	8.679133846182231E+002	3.2108220E-001	-2.7039093E+002
3	0	8.684133846055920E+002	3.2112956E-001	-2.7037326E+002
3	0	8.689133845929609E+002	3.2129115E-001	-2.7037677E+002
3	0	8.694133845803299E+002	3.2143646E-001	-2.7036267E+002
3	0	8.699133845676988E+002	3.2153359E-001	-2.7038031E+002
3	0	8.704133845550678E+002	3.2162151E-001	-2.7038031E+002
3	0	8.709133845424367E+002	3.2166460E-001	-2.7036972E+002
3	0	8.714133845298056E+002	3.2157412E-001	-2.7038385E+002
3	0	8.719133845171746E+002	3.2143360E-001	-2.7038385E+002
3	0	8.724133845045435E+002	3.2146320E-001	-2.7037677E+002
3	0	8.729133844919124E+002	3.2152063E-001	-2.7036618E+002
3	0	8.734133844792814E+002	3.2148549E-001	-2.7036618E+002
3	0	8.739133844666503E+002	3.2136998E-001	-2.7036972E+002
3	0	8.744133844540193E+002	3.2123303E-001	-2.7036618E+002
3	0	8.749133844413882E+002	3.2104677E-001	-2.7037677E+002
3	0	8.754133844287571E+002	3.2076377E-001	-2.7036267E+002
3	0	8.759133844161261E+002	3.2042596E-001	-2.7039093E+002
3	0	8.764133844034950E+002	3.2027972E-001	-2.7038385E+002
3	0	8.769133843908639E+002	3.2021865E-001	-2.7037326E+002
3	0	8.774133843782329E+002	3.2009044E-001	-2.7036618E+002
3	0	8.779133843656018E+002	3.1988636E-001	-2.7036972E+002
3	0	8.784133843529708E+002	3.1967708E-001	-2.7038385E+002
3	0	8.789133843403397E+002	3.1942824E-001	-2.7035205E+002
3	0	8.794133843277086E+002	3.1910038E-001	-2.7036618E+002
3	0	8.799133843150776E+002	3.1875756E-001	-2.7036972E+002
3	0	8.804133843024465E+002	3.1861123E-001	-2.7036267E+002
3	0	8.809133842898154E+002	3.1852731E-001	-2.7033789E+002
3	0	8.814133842771844E+002	3.1838259E-001	-2.7038031E+002
3	0	8.819133842645533E+002	3.1817418E-001	-2.7037677E+002
3	0	8.824133842519223E+002	3.1797469E-001	-2.7038385E+002
3	0	8.829133842392912E+002	3.1772020E-001	-2.7035559E+002
3	0	8.834133842266601E+002	3.1739354E-001	-2.7037677E+002
3	0	8.839133842140291E+002	3.1704023E-001	-2.7038385E+002
3	0	8.844133842013980E+002	3.1688085E-001	-2.7039447E+002
3	0	8.849133841887669E+002	3.1680229E-001	-2.7036267E+002
3	0	8.854133841761359E+002	3.1667194E-001	-2.7039447E+002
3	0	8.859133841635048E+002	3.1647834E-001	-2.7038031E+002
3	0	8.864133841508738E+002	3.1628051E-001	-2.7039801E+002
3	0	8.869133841382427E+002	3.1608522E-001	-2.7039447E+002
3	0	8.874133841256116E+002	3.1586522E-001	-2.7038742E+002
3	0	8.879133841129806E+002	3.1565931E-001	-2.7038031E+002
3	0	8.884133841003495E+002	3.1569114E-001	-2.7038031E+002
3	0	8.889133840877184E+002	3.1585011E-001	-2.7039093E+002
3	0	8.894133840750874E+002	3.1600967E-001	-2.7036972E+002
3	0	8.899133840624563E+002	3.1614122E-001	-2.7036618E+002
3	0	8.904133840498253E+002	3.1624430E-001	-2.7039801E+002
3	0	8.909133840371942E+002	3.1629226E-001	-2.7035913E+002
3	0	8.914133840245631E+002	3.1620702E-001	-2.7038031E+002
3	0	8.919133840119321E+002	3.1606168E-001	-2.7037677E+002
3	0	8.924133839993010E+002	3.1608352E-001	-2.7038385E+002
3	0	8.929133839866699E+002	3.1613621E-001	-2.7036267E+002
3	0	8.934133839740389E+002	3.1611452E-001	-2.7035205E+002
3	0	8.939133839614078E+002	3.1602657E-001	-2.7037326E+002
3	0	8.944133839487768E+002	3.1590608E-001	-2.7036972E+002
3	0	8.949133839361457E+002	3.1573191E-001	-2.7037677E+002
3	0	8.954133839235146E+002	3.1545278E-001	-2.7039093E+002
3	0	8.959133839108836E+002	3.1513113E-001	-2.7041568E+002
3	0	8.964133838982525E+002	3.1499389E-001	-2.7038385E+002
3	0	8.969133838856214E+002	3.1493068E-001	-2.7038742E+002
3	0	8.974133838729904E+002	3.1480339E-001	-2.7037677E+002
3	0	8.979133838603593E+002	3.1460926E-001	-2.7036618E+002
3	0	8.984133838477283E+002	3.1438643E-001	-2.7038742E+002
3	0	8.989133838350972E+002	3.1414288E-001	-2.7037677E+002
3	0	8.994133838224661E+002	3.1382594E-001	-2.7038031E+002
3	0	8.999133838098351E+002	3.1346250E-001	-2.7037326E+002
3	0	8.999367838092439E+002	3.1332764E-001	-2.7039447E+002