EC-Lab ASCII FILE
Nb header lines : 55                          

Open Circuit Voltage

Run on channel : 1 (SN 81504)
User : 
CE vs. WE compliance from -10 V to 10 V
Electrode connection : standard
Potential control : Ewe
Ewe ctrl range : min = -2.50 V, max = 2.50 V
Safety Limits :
	Do not start on E overload
Acquisition started on : 05/10/2026 06:22:15.566
Loaded Setting File :  C:\PEM-WE_measurements\2026\372_IV_IV IrOx, 5 min Pt, 30 min C, etched cathode\new station\Loopeis new\1,46 V different time gaps closed cell\Loopeis 1,46V_120s_3_PEIS from 6500Hz to 1000Hz.mps
Saved on :
	File : L_23_Loopeis 1,46V_120s_3_PEIS from 6500Hz to 1000Hz_04_OCV_C01.mpr
	Directory : C:\PEM-WE_measurements\2026\372_IV_IV IrOx, 5 min Pt, 30 min C, etched cathode\new station\Loopeis new\1,46 V different time gaps closed cell\
	Host : 192.168.0.2
Device : SP-150e (SN .005491)
Address : 192.168.0.91
EC-LAB for windows v11.71 (software)
Internet server v28.00 (firmware)
Command interpretor v14.01 (firmware)
Electrode material : 
Initial state : 
Electrolyte : 
Comments : 
Current amplifier : SP-150eB-20A
Electrode surface area : 0.001 cm²
Characteristic mass : 0.001 g
Equivalent Weight : 0.000 g/eq.
Density : 0.000 g/cm3
Volume (V) : 0.001 cm³
Record Analogic IN 1
Text export
   Mode : Standard
   Time format : Elapsed
Cycle Definition : Charge/Discharge alternance
External device configuration :
   device type : Temperature Probe
   device name : Other
   Analog IN 1 : 
      unit : T/Â°C
      max : 100.000 at 2.000 V
      min : 0.000 at 1.460 V
tR (h:m:s)          0:02:0.0000         
dER/dt (mV/h)       1.0                 
record              <Ewe>               
dER (mV)            10.00               
dtR (s)             0.5000              
E range min (V)     -2.500              
E range max (V)     2.500               

mode	error	time/s	<Ewe/V>	Analog IN 1/V	
3	0	2.104455979557679E+002	1.1250739E+000	-2.7037677E+002
3	0	2.109455979431368E+002	1.2590941E+000	-2.7038742E+002
3	0	2.114455979305058E+002	1.2574056E+000	-2.7038031E+002
3	0	2.119455979178747E+002	1.2503862E+000	-2.7038385E+002
3	0	2.124455979052436E+002	1.2360014E+000	-2.7037326E+002
3	0	2.129455978926126E+002	1.2109979E+000	-2.7036267E+002
3	0	2.134455978799815E+002	1.1696267E+000	-2.7039801E+002
3	0	2.139455978673504E+002	1.0969334E+000	-2.7038031E+002
3	0	2.144455978547194E+002	9.0628791E-001	-2.7037677E+002
3	0	2.149455978420883E+002	5.7618767E-001	-2.7038385E+002
3	0	2.154455978294573E+002	4.4325507E-001	-2.7038385E+002
3	0	2.159455978168262E+002	3.9857951E-001	-2.7036972E+002
3	0	2.164455978041951E+002	3.8554078E-001	-2.7038385E+002
3	0	2.169455977915641E+002	3.8072455E-001	-2.7038031E+002
3	0	2.174455977789330E+002	3.7740251E-001	-2.7038742E+002
3	0	2.179455977663019E+002	3.7474096E-001	-2.7039093E+002
3	0	2.184455977536709E+002	3.7330142E-001	-2.7037326E+002
3	0	2.189455977410398E+002	3.7209457E-001	-2.7037326E+002
3	0	2.194455977284088E+002	3.7079811E-001	-2.7039093E+002
3	0	2.199455977157777E+002	3.6965817E-001	-2.7035913E+002
3	0	2.204455977031466E+002	3.6878008E-001	-2.7040506E+002
3	0	2.209455976905156E+002	3.6787492E-001	-2.7040155E+002
3	0	2.214455976778845E+002	3.6699757E-001	-2.7036618E+002
3	0	2.219455976652534E+002	3.6641815E-001	-2.7038031E+002
3	0	2.224455976526224E+002	3.6678776E-001	-2.7036972E+002
3	0	2.229455976399913E+002	3.6733693E-001	-2.7037326E+002
3	0	2.234455976273603E+002	3.6775345E-001	-2.7038742E+002
3	0	2.239455976147292E+002	3.6816344E-001	-2.7036972E+002
3	0	2.244455976020981E+002	3.6874032E-001	-2.7037677E+002
3	0	2.249455975894671E+002	3.6923790E-001	-2.7040860E+002
3	0	2.254455975768360E+002	3.6949125E-001	-2.7038385E+002
3	0	2.259455975642049E+002	3.6969945E-001	-2.7038031E+002
3	0	2.264455975515739E+002	3.7059540E-001	-2.7036972E+002
3	0	2.269455975389428E+002	3.7145150E-001	-2.7037677E+002
3	0	2.274455975263118E+002	3.7200147E-001	-2.7036972E+002
3	0	2.279455975136807E+002	3.7240541E-001	-2.7039801E+002
3	0	2.284455975010496E+002	3.7278512E-001	-2.7036267E+002
3	0	2.289455974884186E+002	3.7306061E-001	-2.7039447E+002
3	0	2.294455974757875E+002	3.7301680E-001	-2.7038742E+002
3	0	2.299455974631564E+002	3.7301859E-001	-2.7035559E+002
3	0	2.304455974505254E+002	3.7366199E-001	-2.7039093E+002
3	0	2.309455974378943E+002	3.7427813E-001	-2.7035913E+002
3	0	2.314455974252633E+002	3.7462711E-001	-2.7035559E+002
3	0	2.319455974126322E+002	3.7487161E-001	-2.7040506E+002
3	0	2.324455974000011E+002	3.7507811E-001	-2.7038031E+002
3	0	2.329455973873701E+002	3.7511870E-001	-2.7039801E+002
3	0	2.334455973747390E+002	3.7489855E-001	-2.7040155E+002
3	0	2.339455973621079E+002	3.7463754E-001	-2.7038742E+002
3	0	2.344455973494769E+002	3.7507805E-001	-2.7039447E+002
3	0	2.349455973368458E+002	3.7545270E-001	-2.7039093E+002
3	0	2.354455973242148E+002	3.7558746E-001	-2.7037677E+002
3	0	2.359455973115837E+002	3.7555635E-001	-2.7038742E+002
3	0	2.364455972989526E+002	3.7550071E-001	-2.7037677E+002
3	0	2.369455972863216E+002	3.7538898E-001	-2.7039447E+002
3	0	2.374455972736905E+002	3.7498230E-001	-2.7039801E+002
3	0	2.379455972610594E+002	3.7461999E-001	-2.7038031E+002
3	0	2.384455972484284E+002	3.7487212E-001	-2.7039801E+002
3	0	2.389455972357973E+002	3.7511861E-001	-2.7037677E+002
3	0	2.394455972231663E+002	3.7511319E-001	-2.7038385E+002
3	0	2.399455972105352E+002	3.7498382E-001	-2.7036972E+002
3	0	2.404455971979041E+002	3.7479252E-001	-2.7038385E+002
3	0	2.409455971852731E+002	3.7440524E-001	-2.7039447E+002
3	0	2.414455971726420E+002	3.7397164E-001	-2.7038031E+002
3	0	2.419455971600109E+002	3.7368092E-001	-2.7037677E+002
3	0	2.424455971473799E+002	3.7409738E-001	-2.7036267E+002
3	0	2.429455971347488E+002	3.7461352E-001	-2.7040155E+002
3	0	2.434455971221178E+002	3.7502074E-001	-2.7036267E+002
3	0	2.439455971094867E+002	3.7542450E-001	-2.7038385E+002
3	0	2.444455970968556E+002	3.7593231E-001	-2.7038031E+002
3	0	2.449455970842246E+002	3.7640962E-001	-2.7038385E+002
3	0	2.454455970715935E+002	3.7659398E-001	-2.7038742E+002
3	0	2.459455970589624E+002	3.7677991E-001	-2.7038031E+002
3	0	2.464455970463314E+002	3.7755263E-001	-2.7039447E+002
3	0	2.469455970337003E+002	3.7822741E-001	-2.7040506E+002
3	0	2.474455970210693E+002	3.7860808E-001	-2.7035205E+002
3	0	2.479455970084382E+002	3.7880787E-001	-2.7037677E+002
3	0	2.484455969958071E+002	3.7898666E-001	-2.7038742E+002
3	0	2.489455969831761E+002	3.7904945E-001	-2.7036267E+002
3	0	2.494455969705450E+002	3.7889487E-001	-2.7038031E+002
3	0	2.499455969579139E+002	3.7868407E-001	-2.7038742E+002
3	0	2.504455969452829E+002	3.7902233E-001	-2.7036972E+002
3	0	2.509455969326518E+002	3.7930068E-001	-2.7038742E+002
3	0	2.514455969200208E+002	3.7932003E-001	-2.7035559E+002
3	0	2.519455969073897E+002	3.7916148E-001	-2.7038031E+002
3	0	2.524455968947586E+002	3.7898991E-001	-2.7040155E+002
3	0	2.529455968821276E+002	3.7863654E-001	-2.7036972E+002
3	0	2.534455968694965E+002	3.7807298E-001	-2.7039801E+002
3	0	2.539455968568655E+002	3.7754187E-001	-2.7039447E+002
3	0	2.544455968442344E+002	3.7759978E-001	-2.7040506E+002
3	0	2.549455968316033E+002	3.7761527E-001	-2.7038742E+002
3	0	2.554455968189723E+002	3.7744370E-001	-2.7037326E+002
3	0	2.559455968063412E+002	3.7708524E-001	-2.7039801E+002
3	0	2.564455967937101E+002	3.7673944E-001	-2.7036972E+002
3	0	2.569455967810791E+002	3.7631464E-001	-2.7036972E+002
3	0	2.574455967684480E+002	3.7568256E-001	-2.7036972E+002
3	0	2.579455967558170E+002	3.7499088E-001	-2.7037677E+002
3	0	2.584455967431859E+002	3.7493259E-001	-2.7036972E+002
3	0	2.589455967305548E+002	3.7487343E-001	-2.7038385E+002
3	0	2.594455967179238E+002	3.7455571E-001	-2.7035913E+002
3	0	2.599455967052927E+002	3.7413976E-001	-2.7037326E+002
3	0	2.604455966926616E+002	3.7370658E-001	-2.7040155E+002
3	0	2.609455966800306E+002	3.7322977E-001	-2.7039093E+002
3	0	2.614455966673995E+002	3.7259012E-001	-2.7035559E+002
3	0	2.619455966547685E+002	3.7202483E-001	-2.7039447E+002
3	0	2.624455966421374E+002	3.7210000E-001	-2.7034851E+002
3	0	2.629455966295063E+002	3.7232858E-001	-2.7039093E+002
3	0	2.634455966168753E+002	3.7242916E-001	-2.7037677E+002
3	0	2.639455966042442E+002	3.7253582E-001	-2.7040155E+002
3	0	2.644455965916131E+002	3.7271842E-001	-2.7042627E+002
3	0	2.649455965789821E+002	3.7286803E-001	-2.7036972E+002
3	0	2.654455965663510E+002	3.7287101E-001	-2.7035913E+002
3	0	2.659455965537200E+002	3.7286451E-001	-2.7036267E+002
3	0	2.664455965410889E+002	3.7330660E-001	-2.7037677E+002
3	0	2.669455965284578E+002	3.7368175E-001	-2.7037677E+002
3	0	2.674455965158268E+002	3.7379771E-001	-2.7038742E+002
3	0	2.679455965031957E+002	3.7374222E-001	-2.7039447E+002
3	0	2.684455964905646E+002	3.7366301E-001	-2.7038031E+002
3	0	2.689455964779336E+002	3.7351093E-001	-2.7040506E+002
3	0	2.694455964653025E+002	3.7312052E-001	-2.7039093E+002
3	0	2.699455964526715E+002	3.7273219E-001	-2.7039801E+002
3	0	2.704455964400404E+002	3.7287751E-001	-2.7038742E+002
3	0	2.709455964274093E+002	3.7299833E-001	-2.7038742E+002
3	0	2.714455964147783E+002	3.7288383E-001	-2.7037677E+002
3	0	2.719455964021472E+002	3.7259960E-001	-2.7037326E+002
3	0	2.724455963895161E+002	3.7229297E-001	-2.7038385E+002
3	0	2.729455963768851E+002	3.7191981E-001	-2.7041214E+002
3	0	2.734455963642540E+002	3.7134123E-001	-2.7039447E+002
3	0	2.739455963516230E+002	3.7075394E-001	-2.7036972E+002
3	0	2.744455963389919E+002	3.7064159E-001	-2.7037326E+002
3	0	2.749455963263608E+002	3.7056401E-001	-2.7036267E+002
3	0	2.754455963137298E+002	3.7030566E-001	-2.7036972E+002
3	0	2.759455963010987E+002	3.6990312E-001	-2.7039801E+002
3	0	2.764455962884676E+002	3.6950219E-001	-2.7039447E+002
3	0	2.769455962758366E+002	3.6903548E-001	-2.7040506E+002
3	0	2.774455962632055E+002	3.6836505E-001	-2.7037677E+002
3	0	2.779455962505745E+002	3.6776623E-001	-2.7039093E+002
3	0	2.784455962379434E+002	3.6766705E-001	-2.7039093E+002
3	0	2.789455962253123E+002	3.6756420E-001	-2.7039447E+002
3	0	2.794455962126813E+002	3.6726239E-001	-2.7037677E+002
3	0	2.799455962000502E+002	3.6688024E-001	-2.7035205E+002
3	0	2.804455961874191E+002	3.6645496E-001	-2.7037326E+002
3	0	2.809455961747881E+002	3.6598206E-001	-2.7038031E+002
3	0	2.814455961621570E+002	3.6534032E-001	-2.7038031E+002
3	0	2.819455961495260E+002	3.6479953E-001	-2.7036618E+002
3	0	2.824455961368949E+002	3.6480409E-001	-2.7040155E+002
3	0	2.829455961242638E+002	3.6491910E-001	-2.7038031E+002
3	0	2.834455961116328E+002	3.6493814E-001	-2.7036618E+002
3	0	2.839455960990017E+002	3.6496198E-001	-2.7040506E+002
3	0	2.844455960863706E+002	3.6504999E-001	-2.7039447E+002
3	0	2.849455960737396E+002	3.6513060E-001	-2.7038385E+002
3	0	2.854455960611085E+002	3.6507690E-001	-2.7038742E+002
3	0	2.859455960484775E+002	3.6499819E-001	-2.7036618E+002
3	0	2.864455960358464E+002	3.6528769E-001	-2.7039447E+002
3	0	2.869455960232153E+002	3.6557794E-001	-2.7037326E+002
3	0	2.874455960105843E+002	3.6566505E-001	-2.7038742E+002
3	0	2.879455959979532E+002	3.6557782E-001	-2.7036618E+002
3	0	2.884455959853221E+002	3.6546171E-001	-2.7035913E+002
3	0	2.889455959726911E+002	3.6525875E-001	-2.7039801E+002
3	0	2.894455959600600E+002	3.6489671E-001	-2.7040860E+002
3	0	2.899455959474290E+002	3.6453429E-001	-2.7038031E+002
3	0	2.904455959347979E+002	3.6457995E-001	-2.7038385E+002
3	0	2.909455959221668E+002	3.6461458E-001	-2.7038031E+002
3	0	2.914455959095358E+002	3.6445412E-001	-2.7039093E+002
3	0	2.919455958969047E+002	3.6415282E-001	-2.7039801E+002
3	0	2.924455958842736E+002	3.6388034E-001	-2.7039093E+002
3	0	2.929455958716426E+002	3.6352569E-001	-2.7038385E+002
3	0	2.934455958590115E+002	3.6300939E-001	-2.7037326E+002
3	0	2.939455958463805E+002	3.6247435E-001	-2.7036267E+002
3	0	2.944455958337494E+002	3.6235836E-001	-2.7038385E+002
3	0	2.949455958211183E+002	3.6229163E-001	-2.7036972E+002
3	0	2.954455958084873E+002	3.6204427E-001	-2.7036972E+002
3	0	2.959455957958562E+002	3.6170962E-001	-2.7038385E+002
3	0	2.964455957832251E+002	3.6136532E-001	-2.7037677E+002
3	0	2.969455957705941E+002	3.6092088E-001	-2.7036972E+002
3	0	2.974455957579630E+002	3.6036187E-001	-2.7038385E+002
3	0	2.979455957453320E+002	3.5978556E-001	-2.7037326E+002
3	0	2.984455957327009E+002	3.5961637E-001	-2.7037326E+002
3	0	2.989455957200698E+002	3.5952535E-001	-2.7036618E+002
3	0	2.994455957074388E+002	3.5927838E-001	-2.7038385E+002
3	0	2.999455956948077E+002	3.5892874E-001	-2.7040860E+002
3	0	3.004455956821766E+002	3.5857558E-001	-2.7037677E+002
3	0	3.009455956695456E+002	3.5812610E-001	-2.7038031E+002
3	0	3.014455956569145E+002	3.5754704E-001	-2.7037326E+002
3	0	3.019455956442835E+002	3.5705844E-001	-2.7038742E+002
3	0	3.024455956316524E+002	3.5704589E-001	-2.7039447E+002
3	0	3.029455956190213E+002	3.5711297E-001	-2.7038031E+002
3	0	3.034455956063903E+002	3.5710296E-001	-2.7039093E+002
3	0	3.039455955937592E+002	3.5707471E-001	-2.7036618E+002
3	0	3.044455955811281E+002	3.5712993E-001	-2.7036972E+002
3	0	3.049455955684971E+002	3.5711768E-001	-2.7035205E+002
3	0	3.054455955558660E+002	3.5700241E-001	-2.7036267E+002
3	0	3.059455955432350E+002	3.5688168E-001	-2.7037326E+002
3	0	3.064455955306039E+002	3.5713381E-001	-2.7035559E+002
3	0	3.069455955179728E+002	3.5739693E-001	-2.7037677E+002
3	0	3.074455955053418E+002	3.5746342E-001	-2.7038031E+002
3	0	3.079455954927107E+002	3.5741350E-001	-2.7036267E+002
3	0	3.084455954800796E+002	3.5730380E-001	-2.7039447E+002
3	0	3.089455954674486E+002	3.5711318E-001	-2.7037677E+002
3	0	3.094455954548175E+002	3.5672668E-001	-2.7037677E+002
3	0	3.099455954421865E+002	3.5634449E-001	-2.7036267E+002
3	0	3.104455954295554E+002	3.5632223E-001	-2.7040506E+002
3	0	3.109455954169243E+002	3.5635918E-001	-2.7038031E+002
3	0	3.114455954042933E+002	3.5624027E-001	-2.7035913E+002
3	0	3.119455953916622E+002	3.5602382E-001	-2.7039093E+002
3	0	3.124455953790311E+002	3.5579216E-001	-2.7038385E+002
3	0	3.129455953664001E+002	3.5546517E-001	-2.7037326E+002
3	0	3.134455953537690E+002	3.5499257E-001	-2.7038742E+002
3	0	3.139455953411380E+002	3.5452044E-001	-2.7038385E+002
3	0	3.144455953285069E+002	3.5439616E-001	-2.7040155E+002
3	0	3.149455953158758E+002	3.5432795E-001	-2.7038031E+002
3	0	3.154455953032448E+002	3.5411611E-001	-2.7036618E+002
3	0	3.159455952906137E+002	3.5382655E-001	-2.7038385E+002
3	0	3.164455952779826E+002	3.5353899E-001	-2.7039093E+002
3	0	3.169455952653516E+002	3.5318613E-001	-2.7038031E+002
3	0	3.174455952527205E+002	3.5264555E-001	-2.7036618E+002
3	0	3.179455952400895E+002	3.5212862E-001	-2.7038031E+002
3	0	3.184455952274584E+002	3.5195592E-001	-2.7038031E+002
3	0	3.189455952148273E+002	3.5186788E-001	-2.7036972E+002
3	0	3.194455952021963E+002	3.5163131E-001	-2.7039093E+002
3	0	3.199455951895652E+002	3.5132301E-001	-2.7038031E+002
3	0	3.204455951769341E+002	3.5100934E-001	-2.7039093E+002
3	0	3.209455951643031E+002	3.5067946E-001	-2.7036972E+002
3	0	3.214455951516720E+002	3.5018766E-001	-2.7037326E+002
3	0	3.219455951390410E+002	3.4972894E-001	-2.7037326E+002
3	0	3.224455951264099E+002	3.4961700E-001	-2.7037326E+002
3	0	3.229455951137788E+002	3.4964478E-001	-2.7039801E+002
3	0	3.234455951011478E+002	3.4963492E-001	-2.7038031E+002
3	0	3.239455950885167E+002	3.4961188E-001	-2.7038031E+002
3	0	3.244455950758856E+002	3.4964794E-001	-2.7037326E+002
3	0	3.249455950632546E+002	3.4967855E-001	-2.7036972E+002
3	0	3.254455950506235E+002	3.4958279E-001	-2.7039093E+002
3	0	3.259455950379925E+002	3.4952694E-001	-2.7036972E+002
3	0	3.264455950253614E+002	3.4978539E-001	-2.7039447E+002
3	0	3.269455950127303E+002	3.5006660E-001	-2.7038385E+002
3	0	3.274455950000993E+002	3.5017437E-001	-2.7038742E+002
3	0	3.279455949874682E+002	3.5018456E-001	-2.7038385E+002
3	0	3.284455949748372E+002	3.5015196E-001	-2.7040155E+002
3	0	3.289455949622061E+002	3.5002968E-001	-2.7036972E+002
3	0	3.294455949495750E+002	3.4972900E-001	-2.7038385E+002
3	0	3.299455949369440E+002	3.4941766E-001	-2.7036267E+002
3	0	3.299719949362770E+002	3.4936193E-001	-2.7040155E+002