EC-Lab ASCII FILE
Nb header lines : 55                          

Open Circuit Voltage

Run on channel : 1 (SN 81504)
User : 
CE vs. WE compliance from -10 V to 10 V
Electrode connection : standard
Potential control : Ewe
Ewe ctrl range : min = -2.50 V, max = 2.50 V
Safety Limits :
	Do not start on E overload
Acquisition started on : 05/07/2026 21:17:54.184
Loaded Setting File :  C:\PEM-WE_measurements\2026\372_IV_IV IrOx, 5 min Pt, 30 min C, etched cathode\new station\Loopeis new\1,46 V different time gaps open cell\Loopeis 1,46V_120s_3_PEIS from 6500Hz to 1000Hz.mps
Saved on :
	File : L_23_Loopeis 1,46V_120s_3_PEIS from 6500Hz to 1000Hz_04_OCV_C01.mpr
	Directory : C:\PEM-WE_measurements\2026\372_IV_IV IrOx, 5 min Pt, 30 min C, etched cathode\new station\Loopeis new\1,46 V different time gaps open cell\
	Host : 192.168.0.2
Device : SP-150e (SN .005491)
Address : 192.168.0.91
EC-LAB for windows v11.71 (software)
Internet server v28.00 (firmware)
Command interpretor v14.01 (firmware)
Electrode material : 
Initial state : 
Electrolyte : 
Comments : 
Current amplifier : SP-150eB-20A
Electrode surface area : 0.001 cm²
Characteristic mass : 0.001 g
Equivalent Weight : 0.000 g/eq.
Density : 0.000 g/cm3
Volume (V) : 0.001 cm³
Record Analogic IN 1
Text export
   Mode : Standard
   Time format : Elapsed
Cycle Definition : Charge/Discharge alternance
External device configuration :
   device type : Temperature Probe
   device name : Other
   Analog IN 1 : 
      unit : T/Â°C
      max : 100.000 at 2.000 V
      min : 0.000 at 1.460 V
tR (h:m:s)          0:02:0.0000         
dER/dt (mV/h)       1.0                 
record              <Ewe>               
dER (mV)            10.00               
dtR (s)             0.5000              
E range min (V)     -2.500              
E range max (V)     2.500               

mode	error	time/s	<Ewe/V>	Analog IN 1/V	
3	0	2.104495979559579E+002	9.5674020E-001	-2.7040155E+002
3	0	2.109495979433268E+002	1.1461823E+000	-2.7036618E+002
3	0	2.114495979306957E+002	8.4884274E-001	-2.7038031E+002
3	0	2.119495979180647E+002	4.2418084E-001	-2.7037677E+002
3	0	2.124495979054336E+002	3.2099059E-001	-2.7037677E+002
3	0	2.129495978928026E+002	3.0928740E-001	-2.7037677E+002
3	0	2.134495978801715E+002	3.0263317E-001	-2.7038385E+002
3	0	2.139495978675404E+002	2.9698458E-001	-2.7035205E+002
3	0	2.144495978549094E+002	2.9252172E-001	-2.7038031E+002
3	0	2.149495978422783E+002	2.8904986E-001	-2.7038031E+002
3	0	2.154495978296472E+002	2.8629673E-001	-2.7036618E+002
3	0	2.159495978170162E+002	2.8407606E-001	-2.7039447E+002
3	0	2.164495978043851E+002	2.8224042E-001	-2.7037677E+002
3	0	2.169495977917541E+002	2.8067073E-001	-2.7039093E+002
3	0	2.174495977791230E+002	2.7932918E-001	-2.7038031E+002
3	0	2.179495977664919E+002	2.7818057E-001	-2.7040860E+002
3	0	2.184495977538609E+002	2.7715075E-001	-2.7037326E+002
3	0	2.189495977412298E+002	2.7621469E-001	-2.7040506E+002
3	0	2.194495977285987E+002	2.7536020E-001	-2.7038742E+002
3	0	2.199495977159677E+002	2.7456784E-001	-2.7038742E+002
3	0	2.204495977033366E+002	2.7380869E-001	-2.7037326E+002
3	0	2.209495976907056E+002	2.7306744E-001	-2.7039801E+002
3	0	2.214495976780745E+002	2.7237588E-001	-2.7038742E+002
3	0	2.219495976654434E+002	2.7173865E-001	-2.7036267E+002
3	0	2.224495976528124E+002	2.7111149E-001	-2.7039447E+002
3	0	2.229495976401813E+002	2.7051330E-001	-2.7038742E+002
3	0	2.234495976275502E+002	2.6992285E-001	-2.7037326E+002
3	0	2.239495976149192E+002	2.6936430E-001	-2.7036972E+002
3	0	2.244495976022881E+002	2.6879361E-001	-2.7039447E+002
3	0	2.249495975896571E+002	2.6821074E-001	-2.7040506E+002
3	0	2.254495975770260E+002	2.6764992E-001	-2.7038385E+002
3	0	2.259495975643949E+002	2.6713070E-001	-2.7038742E+002
3	0	2.264495975517639E+002	2.6659799E-001	-2.7038385E+002
3	0	2.269495975391328E+002	2.6608121E-001	-2.7039801E+002
3	0	2.274495975265017E+002	2.6557341E-001	-2.7038385E+002
3	0	2.279495975138707E+002	2.6506352E-001	-2.7039093E+002
3	0	2.284495975012396E+002	2.6455554E-001	-2.7039801E+002
3	0	2.289495974886086E+002	2.6403555E-001	-2.7041214E+002
3	0	2.294495974759775E+002	2.6353428E-001	-2.7039801E+002
3	0	2.299495974633464E+002	2.6306278E-001	-2.7039801E+002
3	0	2.304495974507154E+002	2.6258177E-001	-2.7037677E+002
3	0	2.309495974380843E+002	2.6211238E-001	-2.7039801E+002
3	0	2.314495974254532E+002	2.6164782E-001	-2.7036267E+002
3	0	2.319495974128222E+002	2.6118135E-001	-2.7034497E+002
3	0	2.324495974001911E+002	2.6069960E-001	-2.7037326E+002
3	0	2.329495973875601E+002	2.6021013E-001	-2.7038031E+002
3	0	2.334495973749290E+002	2.5974005E-001	-2.7037326E+002
3	0	2.339495973622979E+002	2.5929752E-001	-2.7040860E+002
3	0	2.344495973496669E+002	2.5885263E-001	-2.7035913E+002
3	0	2.349495973370358E+002	2.5840968E-001	-2.7035205E+002
3	0	2.354495973244047E+002	2.5797814E-001	-2.7036618E+002
3	0	2.359495973117737E+002	2.5754723E-001	-2.7041568E+002
3	0	2.364495972991426E+002	2.5709504E-001	-2.7040506E+002
3	0	2.369495972865116E+002	2.5663862E-001	-2.7038031E+002
3	0	2.374495972738805E+002	2.5620255E-001	-2.7038742E+002
3	0	2.379495972612494E+002	2.5579506E-001	-2.7039801E+002
3	0	2.384495972486184E+002	2.5538644E-001	-2.7037326E+002
3	0	2.389495972359873E+002	2.5497919E-001	-2.7038385E+002
3	0	2.394495972233563E+002	2.5458494E-001	-2.7036618E+002
3	0	2.399495972107252E+002	2.5418761E-001	-2.7038031E+002
3	0	2.404495971980941E+002	2.5377464E-001	-2.7039801E+002
3	0	2.409495971854631E+002	2.5335315E-001	-2.7039801E+002
3	0	2.414495971728320E+002	2.5294909E-001	-2.7037326E+002
3	0	2.419495971602009E+002	2.5257036E-001	-2.7036972E+002
3	0	2.424495971475699E+002	2.5219014E-001	-2.7037326E+002
3	0	2.429495971349388E+002	2.5181875E-001	-2.7036267E+002
3	0	2.434495971223078E+002	2.5144076E-001	-2.7038385E+002
3	0	2.439495971096767E+002	2.5107378E-001	-2.7039801E+002
3	0	2.444495970970456E+002	2.5069132E-001	-2.7039447E+002
3	0	2.449495970844146E+002	2.5029656E-001	-2.7037677E+002
3	0	2.454495970717835E+002	2.4992040E-001	-2.7038742E+002
3	0	2.459495970591524E+002	2.4957767E-001	-2.7036267E+002
3	0	2.464495970465214E+002	2.4922979E-001	-2.7036267E+002
3	0	2.469495970338903E+002	2.4887852E-001	-2.7039093E+002
3	0	2.474495970212593E+002	2.4853870E-001	-2.7037677E+002
3	0	2.479495970086282E+002	2.4819452E-001	-2.7037326E+002
3	0	2.484495969959971E+002	2.4784674E-001	-2.7038031E+002
3	0	2.489495969833661E+002	2.4747545E-001	-2.7036618E+002
3	0	2.494495969707350E+002	2.4712579E-001	-2.7036267E+002
3	0	2.499495969581039E+002	2.4680834E-001	-2.7038031E+002
3	0	2.504495969454729E+002	2.4648665E-001	-2.7037677E+002
3	0	2.509495969328418E+002	2.4617021E-001	-2.7037326E+002
3	0	2.514495969202108E+002	2.4585670E-001	-2.7037677E+002
3	0	2.519495969075797E+002	2.4554525E-001	-2.7039447E+002
3	0	2.524495968949486E+002	2.4521676E-001	-2.7035559E+002
3	0	2.529495968823176E+002	2.4487200E-001	-2.7038385E+002
3	0	2.534495968696865E+002	2.4454801E-001	-2.7036972E+002
3	0	2.539495968570554E+002	2.4426481E-001	-2.7037326E+002
3	0	2.544495968444244E+002	2.4396442E-001	-2.7035913E+002
3	0	2.549495968317933E+002	2.4367478E-001	-2.7036972E+002
3	0	2.554495968191623E+002	2.4338612E-001	-2.7038742E+002
3	0	2.559495968065312E+002	2.4310514E-001	-2.7036972E+002
3	0	2.564495967939001E+002	2.4280199E-001	-2.7039801E+002
3	0	2.569495967812691E+002	2.4248195E-001	-2.7037677E+002
3	0	2.574495967686380E+002	2.4218680E-001	-2.7036972E+002
3	0	2.579495967560069E+002	2.4192686E-001	-2.7037677E+002
3	0	2.584495967433759E+002	2.4165817E-001	-2.7039801E+002
3	0	2.589495967307448E+002	2.4139181E-001	-2.7038031E+002
3	0	2.594495967181138E+002	2.4113244E-001	-2.7037326E+002
3	0	2.599495967054827E+002	2.4087115E-001	-2.7035913E+002
3	0	2.604495966928516E+002	2.4059892E-001	-2.7035559E+002
3	0	2.609495966802206E+002	2.4030411E-001	-2.7034497E+002
3	0	2.614495966675895E+002	2.4004261E-001	-2.7038385E+002
3	0	2.619495966549584E+002	2.3980267E-001	-2.7039093E+002
3	0	2.624495966423274E+002	2.3956129E-001	-2.7037326E+002
3	0	2.629495966296963E+002	2.3932016E-001	-2.7037326E+002
3	0	2.634495966170653E+002	2.3908055E-001	-2.7038031E+002
3	0	2.639495966044342E+002	2.3884146E-001	-2.7036972E+002
3	0	2.644495965918031E+002	2.3858705E-001	-2.7037326E+002
3	0	2.649495965791721E+002	2.3832105E-001	-2.7037326E+002
3	0	2.654495965665410E+002	2.3806976E-001	-2.7037677E+002
3	0	2.659495965539099E+002	2.3785563E-001	-2.7038385E+002
3	0	2.664495965412789E+002	2.3763302E-001	-2.7039447E+002
3	0	2.669495965286478E+002	2.3740885E-001	-2.7038742E+002
3	0	2.674495965160168E+002	2.3719120E-001	-2.7038385E+002
3	0	2.679495965033857E+002	2.3697652E-001	-2.7036267E+002
3	0	2.684495964907546E+002	2.3673831E-001	-2.7037677E+002
3	0	2.689495964781236E+002	2.3648590E-001	-2.7040155E+002
3	0	2.694495964654925E+002	2.3625480E-001	-2.7039093E+002
3	0	2.699495964528614E+002	2.3605356E-001	-2.7038742E+002
3	0	2.704495964402304E+002	2.3584835E-001	-2.7036972E+002
3	0	2.709495964275993E+002	2.3565434E-001	-2.7037326E+002
3	0	2.714495964149683E+002	2.3546146E-001	-2.7039093E+002
3	0	2.719495964023372E+002	2.3526888E-001	-2.7037677E+002
3	0	2.724495963897061E+002	2.3505367E-001	-2.7038742E+002
3	0	2.729495963770751E+002	2.3481511E-001	-2.7037326E+002
3	0	2.734495963644440E+002	2.3460191E-001	-2.7038031E+002
3	0	2.739495963518129E+002	2.3441911E-001	-2.7036972E+002
3	0	2.744495963391819E+002	2.3422973E-001	-2.7038385E+002
3	0	2.749495963265508E+002	2.3404108E-001	-2.7038385E+002
3	0	2.754495963139198E+002	2.3385775E-001	-2.7038385E+002
3	0	2.759495963012887E+002	2.3366617E-001	-2.7036618E+002
3	0	2.764495962886576E+002	2.3346706E-001	-2.7038742E+002
3	0	2.769495962760266E+002	2.3325187E-001	-2.7037326E+002
3	0	2.774495962633955E+002	2.3305795E-001	-2.7037677E+002
3	0	2.779495962507644E+002	2.3289709E-001	-2.7035913E+002
3	0	2.784495962381334E+002	2.3272689E-001	-2.7038385E+002
3	0	2.789495962255023E+002	2.3255865E-001	-2.7040506E+002
3	0	2.794495962128713E+002	2.3239528E-001	-2.7036618E+002
3	0	2.799495962002402E+002	2.3222379E-001	-2.7040506E+002
3	0	2.804495961876091E+002	2.3204227E-001	-2.7036618E+002
3	0	2.809495961749781E+002	2.3184328E-001	-2.7039801E+002
3	0	2.814495961623470E+002	2.3165800E-001	-2.7039093E+002
3	0	2.819495961497159E+002	2.3150712E-001	-2.7036972E+002
3	0	2.824495961370849E+002	2.3135075E-001	-2.7036618E+002
3	0	2.829495961244538E+002	2.3120627E-001	-2.7037677E+002
3	0	2.834495961118228E+002	2.3105584E-001	-2.7038742E+002
3	0	2.839495960991917E+002	2.3090512E-001	-2.7037677E+002
3	0	2.844495960865606E+002	2.3073636E-001	-2.7040506E+002
3	0	2.849495960739296E+002	2.3054737E-001	-2.7036972E+002
3	0	2.854495960612985E+002	2.3038326E-001	-2.7039447E+002
3	0	2.859495960486674E+002	2.3024273E-001	-2.7039447E+002
3	0	2.864495960360364E+002	2.3009896E-001	-2.7035913E+002
3	0	2.869495960234053E+002	2.2995831E-001	-2.7036972E+002
3	0	2.874495960107743E+002	2.2981574E-001	-2.7037326E+002
3	0	2.879495959981432E+002	2.2967505E-001	-2.7036972E+002
3	0	2.884495959855121E+002	2.2951362E-001	-2.7038031E+002
3	0	2.889495959728811E+002	2.2933736E-001	-2.7037677E+002
3	0	2.894495959602500E+002	2.2917347E-001	-2.7038031E+002
3	0	2.899495959476189E+002	2.2904782E-001	-2.7039801E+002
3	0	2.904495959349879E+002	2.2891127E-001	-2.7038385E+002
3	0	2.909495959223568E+002	2.2877160E-001	-2.7036267E+002
3	0	2.914495959097258E+002	2.2864144E-001	-2.7034497E+002
3	0	2.919495958970947E+002	2.2849904E-001	-2.7036618E+002
3	0	2.924495958844636E+002	2.2834215E-001	-2.7037677E+002
3	0	2.929495958718326E+002	2.2816867E-001	-2.7040860E+002
3	0	2.934495958592015E+002	2.2802231E-001	-2.7036972E+002
3	0	2.939495958465704E+002	2.2790074E-001	-2.7039093E+002
3	0	2.944495958339394E+002	2.2777225E-001	-2.7037677E+002
3	0	2.949495958213083E+002	2.2764657E-001	-2.7036972E+002
3	0	2.954495958086773E+002	2.2751698E-001	-2.7039093E+002
3	0	2.959495957960462E+002	2.2739188E-001	-2.7036618E+002
3	0	2.964495957834151E+002	2.2724608E-001	-2.7036972E+002
3	0	2.969495957707841E+002	2.2708419E-001	-2.7039093E+002
3	0	2.974495957581530E+002	2.2694568E-001	-2.7036972E+002
3	0	2.979495957455219E+002	2.2683790E-001	-2.7039447E+002
3	0	2.984495957328909E+002	2.2672418E-001	-2.7038742E+002
3	0	2.989495957202598E+002	2.2661702E-001	-2.7038031E+002
3	0	2.994495957076288E+002	2.2649549E-001	-2.7038742E+002
3	0	2.999495956949977E+002	2.2637796E-001	-2.7038742E+002
3	0	3.004495956823666E+002	2.2624667E-001	-2.7038031E+002
3	0	3.009495956697356E+002	2.2610047E-001	-2.7038031E+002
3	0	3.014495956571045E+002	2.2597599E-001	-2.7038385E+002
3	0	3.019495956444734E+002	2.2587381E-001	-2.7039093E+002
3	0	3.024495956318424E+002	2.2576888E-001	-2.7036267E+002
3	0	3.029495956192113E+002	2.2566715E-001	-2.7039093E+002
3	0	3.034495956065803E+002	2.2556436E-001	-2.7039447E+002
3	0	3.039495955939492E+002	2.2543292E-001	-2.7037326E+002
3	0	3.044495955813181E+002	2.2530651E-001	-2.7037326E+002
3	0	3.049495955686871E+002	2.2518721E-001	-2.7037326E+002
3	0	3.054495955560560E+002	2.2508146E-001	-2.7038742E+002
3	0	3.059495955434249E+002	2.2500631E-001	-2.7038385E+002
3	0	3.064495955307939E+002	2.2492160E-001	-2.7035559E+002
3	0	3.069495955181628E+002	2.2482516E-001	-2.7039801E+002
3	0	3.074495955055318E+002	2.2473656E-001	-2.7037326E+002
3	0	3.079495954929007E+002	2.2463800E-001	-2.7038385E+002
3	0	3.084495954802696E+002	2.2451225E-001	-2.7034497E+002
3	0	3.089495954676386E+002	2.2436781E-001	-2.7036972E+002
3	0	3.094495954550075E+002	2.2424804E-001	-2.7036972E+002
3	0	3.099495954423764E+002	2.2416744E-001	-2.7039801E+002
3	0	3.104495954297454E+002	2.2408263E-001	-2.7037677E+002
3	0	3.109495954171143E+002	2.2398941E-001	-2.7038742E+002
3	0	3.114495954044833E+002	2.2389846E-001	-2.7041214E+002
3	0	3.119495953918522E+002	2.2379544E-001	-2.7039093E+002
3	0	3.124495953792211E+002	2.2368282E-001	-2.7038385E+002
3	0	3.129495953665901E+002	2.2355142E-001	-2.7039093E+002
3	0	3.134495953539590E+002	2.2343145E-001	-2.7039093E+002
3	0	3.139495953413279E+002	2.2335474E-001	-2.7034497E+002
3	0	3.144495953286969E+002	2.2327137E-001	-2.7036618E+002
3	0	3.149495953160658E+002	2.2318898E-001	-2.7038031E+002
3	0	3.154495953034348E+002	2.2310126E-001	-2.7038385E+002
3	0	3.159495952908037E+002	2.2300526E-001	-2.7038742E+002
3	0	3.164495952781726E+002	2.2289257E-001	-2.7040506E+002
3	0	3.169495952655416E+002	2.2276007E-001	-2.7036972E+002
3	0	3.174495952529105E+002	2.2264552E-001	-2.7038031E+002
3	0	3.179495952402795E+002	2.2256824E-001	-2.7038742E+002
3	0	3.184495952276484E+002	2.2249176E-001	-2.7036972E+002
3	0	3.189495952150173E+002	2.2241254E-001	-2.7037677E+002
3	0	3.194495952023863E+002	2.2233109E-001	-2.7038031E+002
3	0	3.199495951897552E+002	2.2224699E-001	-2.7039093E+002
3	0	3.204495951771241E+002	2.2214282E-001	-2.7038031E+002
3	0	3.209495951644931E+002	2.2201681E-001	-2.7036972E+002
3	0	3.214495951518620E+002	2.2191203E-001	-2.7036267E+002
3	0	3.219495951392310E+002	2.2184391E-001	-2.7038031E+002
3	0	3.224495951265999E+002	2.2176778E-001	-2.7039447E+002
3	0	3.229495951139688E+002	2.2169134E-001	-2.7038742E+002
3	0	3.234495951013378E+002	2.2160980E-001	-2.7039447E+002
3	0	3.239495950887067E+002	2.2152647E-001	-2.7039447E+002
3	0	3.244495950760756E+002	2.2142635E-001	-2.7036972E+002
3	0	3.249495950634446E+002	2.2130467E-001	-2.7038742E+002
3	0	3.254495950508135E+002	2.2120714E-001	-2.7035205E+002
3	0	3.259495950381825E+002	2.2114564E-001	-2.7037326E+002
3	0	3.264495950255514E+002	2.2107908E-001	-2.7036972E+002
3	0	3.269495950129203E+002	2.2100572E-001	-2.7036618E+002
3	0	3.274495950002893E+002	2.2093344E-001	-2.7035559E+002
3	0	3.279495949876582E+002	2.2085406E-001	-2.7036972E+002
3	0	3.284495949750271E+002	2.2075519E-001	-2.7039093E+002
3	0	3.289495949623961E+002	2.2063901E-001	-2.7036618E+002
3	0	3.294495949497650E+002	2.2054429E-001	-2.7036618E+002
3	0	3.299495949371340E+002	2.2048302E-001	-2.7035913E+002
3	0	3.299759949364670E+002	2.2046037E-001	-2.7039447E+002