EC-Lab ASCII FILE
Nb header lines : 55                          

Open Circuit Voltage

Run on channel : 1 (SN 81504)
User : 
CE vs. WE compliance from -10 V to 10 V
Electrode connection : standard
Potential control : Ewe
Ewe ctrl range : min = -2.50 V, max = 2.50 V
Safety Limits :
	Do not start on E overload
Acquisition started on : 05/10/2026 05:01:31.658
Loaded Setting File :  C:\PEM-WE_measurements\2026\372_IV_IV IrOx, 5 min Pt, 30 min C, etched cathode\new station\Loopeis new\1,46 V different time gaps closed cell\Loopeis 1,46V_90s_5_PEIS from 65Hz to 10Hz.mps
Saved on :
	File : L_20_Loopeis 1,46V_90s_5_PEIS from 65Hz to 10Hz_10_OCV_C01.mpr
	Directory : C:\PEM-WE_measurements\2026\372_IV_IV IrOx, 5 min Pt, 30 min C, etched cathode\new station\Loopeis new\1,46 V different time gaps closed cell\
	Host : 192.168.0.2
Device : SP-150e (SN .005491)
Address : 192.168.0.91
EC-LAB for windows v11.71 (software)
Internet server v28.00 (firmware)
Command interpretor v14.01 (firmware)
Electrode material : 
Initial state : 
Electrolyte : 
Comments : 
Current amplifier : SP-150eB-20A
Electrode surface area : 0.001 cm²
Characteristic mass : 0.001 g
Equivalent Weight : 0.000 g/eq.
Density : 0.000 g/cm3
Volume (V) : 0.001 cm³
Record Analogic IN 1
Text export
   Mode : Standard
   Time format : Elapsed
Cycle Definition : Charge/Discharge alternance
External device configuration :
   device type : Temperature Probe
   device name : Other
   Analog IN 1 : 
      unit : T/Â°C
      max : 100.000 at 2.000 V
      min : 0.000 at 1.460 V
tR (h:m:s)          0:01:30.0000        
dER/dt (mV/h)       1.0                 
record              <Ewe>               
dER (mV)            10.00               
dtR (s)             0.5000              
E range min (V)     -2.500              
E range max (V)     2.500               

mode	error	time/s	<Ewe/V>	Analog IN 1/V	
3	0	5.926273920956737E+002	1.2884389E+000	-2.7036618E+002
3	0	5.931273920830427E+002	1.2952129E+000	-2.7037326E+002
3	0	5.936273920704116E+002	1.2955173E+000	-2.7038031E+002
3	0	5.941273920577805E+002	1.2942109E+000	-2.7037326E+002
3	0	5.946273920451495E+002	1.2914300E+000	-2.7038742E+002
3	0	5.951273920325184E+002	1.2863719E+000	-2.7037326E+002
3	0	5.956273920198873E+002	1.2774723E+000	-2.7036618E+002
3	0	5.961273920072563E+002	1.2626158E+000	-2.7036972E+002
3	0	5.966273919946252E+002	1.2389283E+000	-2.7037677E+002
3	0	5.971273919819942E+002	1.2013253E+000	-2.7040506E+002
3	0	5.976273919693631E+002	1.1371199E+000	-2.7036972E+002
3	0	5.981273919567320E+002	1.0028535E+000	-2.7036267E+002
3	0	5.986273919441010E+002	7.2485471E-001	-2.7037326E+002
3	0	5.991273919314699E+002	5.7982266E-001	-2.7035559E+002
3	0	5.996273919188388E+002	5.3493440E-001	-2.7037326E+002
3	0	6.001273919062078E+002	5.1826853E-001	-2.7039093E+002
3	0	6.006273918935767E+002	5.1258689E-001	-2.7036618E+002
3	0	6.011273918809457E+002	5.1062828E-001	-2.7037326E+002
3	0	6.016273918683146E+002	5.1025140E-001	-2.7039801E+002
3	0	6.021273918556835E+002	5.1200068E-001	-2.7037677E+002
3	0	6.026273918430525E+002	5.1507121E-001	-2.7040860E+002
3	0	6.031273918304214E+002	5.1815140E-001	-2.7038385E+002
3	0	6.036273918177903E+002	5.2121013E-001	-2.7037326E+002
3	0	6.041273918051593E+002	5.2446449E-001	-2.7036972E+002
3	0	6.046273917925282E+002	5.2771747E-001	-2.7037677E+002
3	0	6.051273917798972E+002	5.3036135E-001	-2.7038385E+002
3	0	6.056273917672661E+002	5.3278100E-001	-2.7038031E+002
3	0	6.061273917546350E+002	5.3617042E-001	-2.7037677E+002
3	0	6.066273917420040E+002	5.4030550E-001	-2.7037677E+002
3	0	6.071273917293729E+002	5.4413205E-001	-2.7039093E+002
3	0	6.076273917167418E+002	5.4759002E-001	-2.7035913E+002
3	0	6.081273917041108E+002	5.5103213E-001	-2.7036267E+002
3	0	6.086273916914797E+002	5.5421853E-001	-2.7037326E+002
3	0	6.091273916788487E+002	5.5678475E-001	-2.7038031E+002
3	0	6.096273916662176E+002	5.5888653E-001	-2.7038031E+002
3	0	6.101273916535865E+002	5.6186664E-001	-2.7036972E+002
3	0	6.106273916409555E+002	5.6549114E-001	-2.7038742E+002
3	0	6.111273916283244E+002	5.6863064E-001	-2.7039447E+002
3	0	6.116273916156933E+002	5.7127208E-001	-2.7037677E+002
3	0	6.121273916030623E+002	5.7380164E-001	-2.7036618E+002
3	0	6.126273915904312E+002	5.7591784E-001	-2.7037677E+002
3	0	6.131273915778002E+002	5.7720375E-001	-2.7038742E+002
3	0	6.136273915651691E+002	5.7783860E-001	-2.7040155E+002
3	0	6.141273915525380E+002	5.7931048E-001	-2.7040506E+002
3	0	6.146273915399070E+002	5.8142161E-001	-2.7038742E+002
3	0	6.151273915272759E+002	5.8311760E-001	-2.7035913E+002
3	0	6.156273915146448E+002	5.8432424E-001	-2.7037677E+002
3	0	6.161273915020138E+002	5.8531934E-001	-2.7039801E+002
3	0	6.166273914893827E+002	5.8607107E-001	-2.7040155E+002
3	0	6.171273914767517E+002	5.8634490E-001	-2.7037326E+002
3	0	6.176273914641206E+002	5.8653235E-001	-2.7036972E+002
3	0	6.181273914514895E+002	5.8789480E-001	-2.7036267E+002
3	0	6.186273914388585E+002	5.9045130E-001	-2.7037677E+002
3	0	6.191273914262274E+002	5.9315467E-001	-2.7039093E+002
3	0	6.196273914135963E+002	5.9598637E-001	-2.7037677E+002
3	0	6.201273914009653E+002	5.9894484E-001	-2.7037677E+002
3	0	6.206273913883342E+002	6.0169941E-001	-2.7039093E+002
3	0	6.211273913757032E+002	6.0354805E-001	-2.7037326E+002
3	0	6.216273913630721E+002	6.0503930E-001	-2.7039801E+002
3	0	6.221273913504410E+002	6.0755700E-001	-2.7035559E+002
3	0	6.226273913378100E+002	6.1060435E-001	-2.7040155E+002
3	0	6.231273913251789E+002	6.1314434E-001	-2.7036972E+002
3	0	6.236273913125478E+002	6.1529398E-001	-2.7039093E+002
3	0	6.241273912999168E+002	6.1705655E-001	-2.7036972E+002
3	0	6.246273912872857E+002	6.1844712E-001	-2.7036267E+002
3	0	6.251273912746547E+002	6.1912876E-001	-2.7038385E+002
3	0	6.256273912620236E+002	6.1905932E-001	-2.7036618E+002
3	0	6.261273912493925E+002	6.1984086E-001	-2.7038742E+002
3	0	6.266273912367615E+002	6.2130582E-001	-2.7036267E+002
3	0	6.271273912241304E+002	6.2223178E-001	-2.7036972E+002
3	0	6.276273912114993E+002	6.2257653E-001	-2.7036618E+002
3	0	6.281273911988683E+002	6.2261307E-001	-2.7038031E+002
3	0	6.286273911862372E+002	6.2213224E-001	-2.7038385E+002
3	0	6.291273911736062E+002	6.2105447E-001	-2.7036972E+002
3	0	6.296273911609751E+002	6.1939126E-001	-2.7038031E+002
3	0	6.301273911483440E+002	6.1862445E-001	-2.7038385E+002
3	0	6.306273911357130E+002	6.1870813E-001	-2.7039093E+002
3	0	6.311273911230819E+002	6.1842167E-001	-2.7038031E+002
3	0	6.316273911104508E+002	6.1755615E-001	-2.7037677E+002
3	0	6.321273910978198E+002	6.1641514E-001	-2.7038031E+002
3	0	6.326273910851887E+002	6.1488944E-001	-2.7035913E+002
3	0	6.331273910725577E+002	6.1260384E-001	-2.7037677E+002
3	0	6.336273910599266E+002	6.0982192E-001	-2.7040155E+002
3	0	6.341273910472955E+002	6.0805643E-001	-2.7036618E+002
3	0	6.346273910346645E+002	6.0707843E-001	-2.7038742E+002
3	0	6.351273910220334E+002	6.0576600E-001	-2.7039447E+002
3	0	6.356273910094023E+002	6.0402030E-001	-2.7035913E+002
3	0	6.361273909967713E+002	6.0206848E-001	-2.7038742E+002
3	0	6.366273909841402E+002	5.9993231E-001	-2.7036618E+002
3	0	6.371273909715092E+002	5.9736174E-001	-2.7037326E+002
3	0	6.376273909588781E+002	5.9461850E-001	-2.7037326E+002
3	0	6.381273909462470E+002	5.9357220E-001	-2.7036972E+002
3	0	6.386273909336160E+002	5.9401244E-001	-2.7039093E+002
3	0	6.391273909209849E+002	5.9480804E-001	-2.7035559E+002
3	0	6.396273909083538E+002	5.9573478E-001	-2.7036972E+002
3	0	6.401273908957228E+002	5.9696418E-001	-2.7035559E+002
3	0	6.406273908830917E+002	5.9834421E-001	-2.7038385E+002
3	0	6.411273908704607E+002	5.9929729E-001	-2.7036972E+002
3	0	6.416273908578296E+002	5.9984940E-001	-2.7040860E+002
3	0	6.421273908451985E+002	6.0136878E-001	-2.7034497E+002
3	0	6.426273908325675E+002	6.0372788E-001	-2.7039447E+002
3	0	6.431273908199364E+002	6.0579562E-001	-2.7038742E+002
3	0	6.436273908073053E+002	6.0720062E-001	-2.7039447E+002
3	0	6.441273907946743E+002	6.0811126E-001	-2.7037677E+002
3	0	6.446273907820432E+002	6.0848647E-001	-2.7038031E+002
3	0	6.451273907694122E+002	6.0792816E-001	-2.7035205E+002
3	0	6.456273907567811E+002	6.0659611E-001	-2.7036267E+002
3	0	6.461273907441500E+002	6.0616755E-001	-2.7035205E+002
3	0	6.466273907315190E+002	6.0653234E-001	-2.7038742E+002
3	0	6.471273907188879E+002	6.0650569E-001	-2.7037326E+002
3	0	6.476273907062568E+002	6.0594171E-001	-2.7036972E+002
3	0	6.481273906936258E+002	6.0494173E-001	-2.7038385E+002
3	0	6.486273906809947E+002	6.0335338E-001	-2.7038031E+002
3	0	6.491273906683637E+002	6.0083330E-001	-2.7039093E+002
3	0	6.496273906557326E+002	5.9765905E-001	-2.7038742E+002
3	0	6.501273906431015E+002	5.9543860E-001	-2.7037677E+002
3	0	6.506273906304705E+002	5.9405768E-001	-2.7038742E+002
3	0	6.511273906178394E+002	5.9237444E-001	-2.7035913E+002
3	0	6.516273906052083E+002	5.9021306E-001	-2.7038385E+002
3	0	6.521273905925773E+002	5.8768529E-001	-2.7037326E+002
3	0	6.526273905799462E+002	5.8472937E-001	-2.7036972E+002
3	0	6.531273905673152E+002	5.8116925E-001	-2.7034497E+002
3	0	6.536273905546841E+002	5.7718462E-001	-2.7037326E+002
3	0	6.541273905420530E+002	5.7410878E-001	-2.7035559E+002
3	0	6.546273905294220E+002	5.7189268E-001	-2.7038385E+002
3	0	6.551273905167909E+002	5.6947237E-001	-2.7037677E+002
3	0	6.556273905041598E+002	5.6666052E-001	-2.7038385E+002
3	0	6.561273904915288E+002	5.6363320E-001	-2.7036618E+002
3	0	6.566273904788977E+002	5.6038719E-001	-2.7036972E+002
3	0	6.571273904662667E+002	5.5657649E-001	-2.7038031E+002
3	0	6.576273904536356E+002	5.5272400E-001	-2.7038742E+002
3	0	6.581273904410045E+002	5.5031514E-001	-2.7036267E+002
3	0	6.586273904283735E+002	5.4933351E-001	-2.7036267E+002
3	0	6.591273904157424E+002	5.4876941E-001	-2.7035205E+002
3	0	6.596273904031113E+002	5.4835856E-001	-2.7037326E+002
3	0	6.601273903904803E+002	5.4848516E-001	-2.7038742E+002
3	0	6.606273903778492E+002	5.4877543E-001	-2.7037326E+002
3	0	6.611273903652182E+002	5.4879749E-001	-2.7036618E+002
3	0	6.616273903525871E+002	5.4854923E-001	-2.7039801E+002
3	0	6.621273903399560E+002	5.4936182E-001	-2.7039093E+002
3	0	6.626273903273250E+002	5.5105191E-001	-2.7039447E+002
3	0	6.631273903146939E+002	5.5255055E-001	-2.7036972E+002
3	0	6.636273903020629E+002	5.5357313E-001	-2.7038385E+002
3	0	6.641273902894318E+002	5.5427492E-001	-2.7035559E+002
3	0	6.646273902768007E+002	5.5470139E-001	-2.7040155E+002
3	0	6.651273902641697E+002	5.5436736E-001	-2.7037677E+002
3	0	6.656273902515386E+002	5.5337667E-001	-2.7035913E+002
3	0	6.661273902389075E+002	5.5313289E-001	-2.7039801E+002
3	0	6.666273902262765E+002	5.5355328E-001	-2.7038031E+002
3	0	6.671273902136454E+002	5.5358040E-001	-2.7034851E+002
3	0	6.676273902010144E+002	5.5298585E-001	-2.7039801E+002
3	0	6.681273901883833E+002	5.5204988E-001	-2.7036972E+002
3	0	6.686273901757522E+002	5.5057228E-001	-2.7037326E+002
3	0	6.691273901631212E+002	5.4812598E-001	-2.7037326E+002
3	0	6.696273901504901E+002	5.4513675E-001	-2.7035913E+002
3	0	6.701273901378590E+002	5.4296798E-001	-2.7038385E+002
3	0	6.706273901252280E+002	5.4139680E-001	-2.7037326E+002
3	0	6.711273901125969E+002	5.3953075E-001	-2.7037677E+002
3	0	6.716273900999659E+002	5.3716332E-001	-2.7037677E+002
3	0	6.721273900873348E+002	5.3455877E-001	-2.7038742E+002
3	0	6.726273900747037E+002	5.3158206E-001	-2.7039447E+002
3	0	6.731273900620727E+002	5.2791345E-001	-2.7037677E+002
3	0	6.736273900494416E+002	5.2382672E-001	-2.7036267E+002
3	0	6.741273900368105E+002	5.2070773E-001	-2.7034851E+002
3	0	6.746273900241795E+002	5.1831102E-001	-2.7035559E+002
3	0	6.751273900115484E+002	5.1556659E-001	-2.7035559E+002
3	0	6.756273899989174E+002	5.1241028E-001	-2.7039801E+002
3	0	6.761273899862863E+002	5.0909871E-001	-2.7040860E+002
3	0	6.766273899736552E+002	5.0572866E-001	-2.7037677E+002
3	0	6.771273899610242E+002	5.0202245E-001	-2.7036618E+002
3	0	6.776273899483931E+002	4.9819630E-001	-2.7039093E+002
3	0	6.781273899357620E+002	4.9548879E-001	-2.7035913E+002
3	0	6.786273899231310E+002	4.9393693E-001	-2.7036267E+002
3	0	6.791273899104999E+002	4.9262160E-001	-2.7036618E+002
3	0	6.796273898978689E+002	4.9155319E-001	-2.7038031E+002
3	0	6.801273898852378E+002	4.9086612E-001	-2.7038031E+002
3	0	6.806273898726067E+002	4.9031213E-001	-2.7036972E+002
3	0	6.811273898599757E+002	4.8956639E-001	-2.7039801E+002
3	0	6.816273898473446E+002	4.8864940E-001	-2.7038031E+002
3	0	6.821273898347135E+002	4.8863995E-001	-2.7038031E+002
3	0	6.821277898347034E+002	4.8890418E-001	-2.7040860E+002