EC-Lab ASCII FILE
Nb header lines : 55                          

Open Circuit Voltage

Run on channel : 1 (SN 81504)
User : 
CE vs. WE compliance from -10 V to 10 V
Electrode connection : standard
Potential control : Ewe
Ewe ctrl range : min = -2.50 V, max = 2.50 V
Safety Limits :
	Do not start on E overload
Acquisition started on : 05/10/2026 10:21:59.442
Loaded Setting File :  C:\PEM-WE_measurements\2026\372_IV_IV IrOx, 5 min Pt, 30 min C, etched cathode\new station\Loopeis new\1,46 V different time gaps closed cell\Loopeis 1,46V_180s_5_PEIS from 65Hz to 10Hz.mps
Saved on :
	File : L_30_Loopeis 1,46V_180s_5_PEIS from 65Hz to 10Hz_18_OCV_C01.mpr
	Directory : C:\PEM-WE_measurements\2026\372_IV_IV IrOx, 5 min Pt, 30 min C, etched cathode\new station\Loopeis new\1,46 V different time gaps closed cell\
	Host : 192.168.0.2
Device : SP-150e (SN .005491)
Address : 192.168.0.91
EC-LAB for windows v11.71 (software)
Internet server v28.00 (firmware)
Command interpretor v14.01 (firmware)
Electrode material : 
Initial state : 
Electrolyte : 
Comments : 
Current amplifier : SP-150eB-20A
Electrode surface area : 0.001 cm²
Characteristic mass : 0.001 g
Equivalent Weight : 0.000 g/eq.
Density : 0.000 g/cm3
Volume (V) : 0.001 cm³
Record Analogic IN 1
Text export
   Mode : Standard
   Time format : Elapsed
Cycle Definition : Charge/Discharge alternance
External device configuration :
   device type : Temperature Probe
   device name : Other
   Analog IN 1 : 
      unit : T/Â°C
      max : 100.000 at 2.000 V
      min : 0.000 at 1.460 V
tR (h:m:s)          0:03:0.0000         
dER/dt (mV/h)       1.0                 
record              <Ewe>               
dER (mV)            10.00               
dtR (s)             0.5000              
E range min (V)     -2.500              
E range max (V)     2.500               

mode	error	time/s	<Ewe/V>	Analog IN 1/V	
3	0	2.071376977203545E+003	1.2927651E+000	-2.7037677E+002
3	0	2.071876977190914E+003	1.3002017E+000	-2.7037326E+002
3	0	2.072376977178283E+003	1.2970860E+000	-2.7037326E+002
3	0	2.072876977165652E+003	1.2909129E+000	-2.7039447E+002
3	0	2.073376977153021E+003	1.2794759E+000	-2.7036972E+002
3	0	2.073876977140390E+003	1.2594299E+000	-2.7037326E+002
3	0	2.074376977127758E+003	1.2243301E+000	-2.7036618E+002
3	0	2.074876977115127E+003	1.1535137E+000	-2.7040506E+002
3	0	2.075376977102496E+003	8.7594378E-001	-2.7038031E+002
3	0	2.075876977089865E+003	5.2761722E-001	-2.7038742E+002
3	0	2.076376977077234E+003	4.4528201E-001	-2.7038385E+002
3	0	2.076876977064603E+003	4.2655236E-001	-2.7038385E+002
3	0	2.077376977051972E+003	4.2066184E-001	-2.7037326E+002
3	0	2.077876977039341E+003	4.1780847E-001	-2.7036618E+002
3	0	2.078376977026710E+003	4.1606253E-001	-2.7038385E+002
3	0	2.078876977014079E+003	4.1484129E-001	-2.7038742E+002
3	0	2.079376977001448E+003	4.1374099E-001	-2.7040155E+002
3	0	2.079876976988817E+003	4.1281500E-001	-2.7037326E+002
3	0	2.080376976976186E+003	4.1249064E-001	-2.7035205E+002
3	0	2.080876976963555E+003	4.1255182E-001	-2.7036267E+002
3	0	2.081376976950924E+003	4.1258997E-001	-2.7037677E+002
3	0	2.081876976938293E+003	4.1258654E-001	-2.7038031E+002
3	0	2.082376976925661E+003	4.1270116E-001	-2.7037677E+002
3	0	2.082876976913030E+003	4.1283700E-001	-2.7038031E+002
3	0	2.083376976900399E+003	4.1284484E-001	-2.7038385E+002
3	0	2.083876976887768E+003	4.1275409E-001	-2.7037677E+002
3	0	2.084376976875137E+003	4.1301942E-001	-2.7035559E+002
3	0	2.084876976862506E+003	4.1351628E-001	-2.7040860E+002
3	0	2.085376976849875E+003	4.1383436E-001	-2.7037677E+002
3	0	2.085876976837244E+003	4.1399607E-001	-2.7036618E+002
3	0	2.086376976824613E+003	4.1413397E-001	-2.7038031E+002
3	0	2.086876976811982E+003	4.1416150E-001	-2.7038031E+002
3	0	2.087376976799351E+003	4.1405261E-001	-2.7036972E+002
3	0	2.087876976786720E+003	4.1383705E-001	-2.7037326E+002
3	0	2.088376976774089E+003	4.1396511E-001	-2.7036972E+002
3	0	2.088876976761458E+003	4.1435939E-001	-2.7038385E+002
3	0	2.089376976748827E+003	4.1457561E-001	-2.7038385E+002
3	0	2.089876976736196E+003	4.1459134E-001	-2.7041214E+002
3	0	2.090376976723564E+003	4.1463214E-001	-2.7039447E+002
3	0	2.090876976710933E+003	4.1462401E-001	-2.7038031E+002
3	0	2.091376976698302E+003	4.1444159E-001	-2.7038742E+002
3	0	2.091876976685671E+003	4.1414896E-001	-2.7037677E+002
3	0	2.092376976673040E+003	4.1419408E-001	-2.7035559E+002
3	0	2.092876976660409E+003	4.1448009E-001	-2.7036618E+002
3	0	2.093376976647778E+003	4.1461322E-001	-2.7033789E+002
3	0	2.093876976635147E+003	4.1458240E-001	-2.7038031E+002
3	0	2.094376976622516E+003	4.1452315E-001	-2.7036618E+002
3	0	2.094876976609885E+003	4.1444045E-001	-2.7036972E+002
3	0	2.095376976597254E+003	4.1414896E-001	-2.7039447E+002
3	0	2.095876976584623E+003	4.1380838E-001	-2.7038385E+002
3	0	2.096376976571992E+003	4.1380847E-001	-2.7039093E+002
3	0	2.096876976559361E+003	4.1404772E-001	-2.7038031E+002
3	0	2.097376976546730E+003	4.1414031E-001	-2.7039093E+002
3	0	2.097876976534099E+003	4.1404325E-001	-2.7039447E+002
3	0	2.098376976521467E+003	4.1395599E-001	-2.7036972E+002
3	0	2.098876976508836E+003	4.1383493E-001	-2.7037677E+002
3	0	2.099376976496205E+003	4.1356570E-001	-2.7038742E+002
3	0	2.099876976483574E+003	4.1328084E-001	-2.7037326E+002
3	0	2.100376976470943E+003	4.1332185E-001	-2.7039447E+002
3	0	2.100876976458312E+003	4.1369182E-001	-2.7038385E+002
3	0	2.101376976445681E+003	4.1403461E-001	-2.7037677E+002
3	0	2.101876976433050E+003	4.1431135E-001	-2.7036618E+002
3	0	2.102376976420419E+003	4.1460896E-001	-2.7038742E+002
3	0	2.102876976407788E+003	4.1486424E-001	-2.7036618E+002
3	0	2.103376976395157E+003	4.1496995E-001	-2.7039447E+002
3	0	2.103876976382526E+003	4.1490343E-001	-2.7037326E+002
3	0	2.104376976369895E+003	4.1517249E-001	-2.7038742E+002
3	0	2.104876976357264E+003	4.1559315E-001	-2.7037677E+002
3	0	2.105376976344633E+003	4.1587234E-001	-2.7036618E+002
3	0	2.105876976332002E+003	4.1599324E-001	-2.7036972E+002
3	0	2.106376976319370E+003	4.1603088E-001	-2.7037326E+002
3	0	2.106876976306739E+003	4.1602337E-001	-2.7038742E+002
3	0	2.107376976294108E+003	4.1583923E-001	-2.7038385E+002
3	0	2.107876976281477E+003	4.1550940E-001	-2.7037326E+002
3	0	2.108376976268846E+003	4.1546583E-001	-2.7037326E+002
3	0	2.108876976256215E+003	4.1564083E-001	-2.7038031E+002
3	0	2.109376976243584E+003	4.1567874E-001	-2.7035205E+002
3	0	2.109876976230953E+003	4.1557121E-001	-2.7038385E+002
3	0	2.110376976218322E+003	4.1543660E-001	-2.7035205E+002
3	0	2.110876976205691E+003	4.1526955E-001	-2.7038031E+002
3	0	2.111376976193060E+003	4.1496310E-001	-2.7037326E+002
3	0	2.111876976180429E+003	4.1453835E-001	-2.7037677E+002
3	0	2.112376976167798E+003	4.1437858E-001	-2.7036618E+002
3	0	2.112876976155167E+003	4.1445398E-001	-2.7034143E+002
3	0	2.113376976142536E+003	4.1442999E-001	-2.7035559E+002
3	0	2.113876976129905E+003	4.1423810E-001	-2.7034143E+002
3	0	2.114376976117273E+003	4.1400886E-001	-2.7034851E+002
3	0	2.114876976104642E+003	4.1376010E-001	-2.7040860E+002
3	0	2.115376976092011E+003	4.1334763E-001	-2.7038742E+002
3	0	2.115876976079380E+003	4.1285416E-001	-2.7035205E+002
3	0	2.116376976066749E+003	4.1266432E-001	-2.7037677E+002
3	0	2.116876976054118E+003	4.1270521E-001	-2.7036972E+002
3	0	2.117376976041487E+003	4.1265124E-001	-2.7039447E+002
3	0	2.117876976028856E+003	4.1246691E-001	-2.7038031E+002
3	0	2.118376976016225E+003	4.1225216E-001	-2.7036618E+002
3	0	2.118876976003594E+003	4.1201857E-001	-2.7038385E+002
3	0	2.119376975990963E+003	4.1166833E-001	-2.7038742E+002
3	0	2.119876975978332E+003	4.1119847E-001	-2.7036267E+002
3	0	2.120376975965701E+003	4.1107711E-001	-2.7037677E+002
3	0	2.120876975953070E+003	4.1126394E-001	-2.7035913E+002
3	0	2.121376975940439E+003	4.1142252E-001	-2.7034143E+002
3	0	2.121876975927808E+003	4.1151786E-001	-2.7037326E+002
3	0	2.122376975915176E+003	4.1164681E-001	-2.7039093E+002
3	0	2.122876975902545E+003	4.1175929E-001	-2.7038385E+002
3	0	2.123376975889914E+003	4.1175064E-001	-2.7040506E+002
3	0	2.123876975877283E+003	4.1161752E-001	-2.7038031E+002
3	0	2.124376975864652E+003	4.1170514E-001	-2.7035913E+002
3	0	2.124876975852021E+003	4.1204050E-001	-2.7035913E+002
3	0	2.125376975839390E+003	4.1222069E-001	-2.7035205E+002
3	0	2.125876975826759E+003	4.1223264E-001	-2.7038385E+002
3	0	2.126376975814128E+003	4.1220716E-001	-2.7038385E+002
3	0	2.126876975801497E+003	4.1209769E-001	-2.7037326E+002
3	0	2.127376975788866E+003	4.1182405E-001	-2.7039447E+002
3	0	2.127876975776235E+003	4.1143835E-001	-2.7038742E+002
3	0	2.128376975763604E+003	4.1128537E-001	-2.7037677E+002
3	0	2.128876975750973E+003	4.1134128E-001	-2.7040506E+002
3	0	2.129376975738342E+003	4.1130126E-001	-2.7037326E+002
3	0	2.129876975725711E+003	4.1114029E-001	-2.7037677E+002
3	0	2.130376975713079E+003	4.1096488E-001	-2.7037326E+002
3	0	2.130876975700448E+003	4.1073620E-001	-2.7042273E+002
3	0	2.131376975687817E+003	4.1033420E-001	-2.7038031E+002
3	0	2.131876975675186E+003	4.0984115E-001	-2.7037326E+002
3	0	2.132376975662555E+003	4.0959227E-001	-2.7039801E+002
3	0	2.132876975649924E+003	4.0959886E-001	-2.7039093E+002
3	0	2.133376975637293E+003	4.0950376E-001	-2.7035559E+002
3	0	2.133876975624662E+003	4.0928972E-001	-2.7034851E+002
3	0	2.134376975612031E+003	4.0903923E-001	-2.7037677E+002
3	0	2.134876975599400E+003	4.0875003E-001	-2.7038385E+002
3	0	2.135376975586769E+003	4.0832728E-001	-2.7036972E+002
3	0	2.135876975574138E+003	4.0781605E-001	-2.7038031E+002
3	0	2.136376975561507E+003	4.0751565E-001	-2.7036618E+002
3	0	2.136876975548876E+003	4.0746745E-001	-2.7039801E+002
3	0	2.137376975536245E+003	4.0734813E-001	-2.7038385E+002
3	0	2.137876975523614E+003	4.0712193E-001	-2.7038385E+002
3	0	2.138376975510982E+003	4.0685081E-001	-2.7037326E+002
3	0	2.138876975498351E+003	4.0650287E-001	-2.7037326E+002
3	0	2.139376975485720E+003	4.0604010E-001	-2.7037326E+002
3	0	2.139876975473089E+003	4.0553689E-001	-2.7039447E+002
3	0	2.140376975460458E+003	4.0534756E-001	-2.7038031E+002
3	0	2.140876975447827E+003	4.0546229E-001	-2.7037677E+002
3	0	2.141376975435196E+003	4.0556610E-001	-2.7038385E+002
3	0	2.141876975422565E+003	4.0562502E-001	-2.7039093E+002
3	0	2.142376975409934E+003	4.0569684E-001	-2.7038742E+002
3	0	2.142876975397303E+003	4.0578935E-001	-2.7036267E+002
3	0	2.143376975384672E+003	4.0574890E-001	-2.7036618E+002
3	0	2.143876975372041E+003	4.0558934E-001	-2.7037677E+002
3	0	2.144376975359410E+003	4.0563646E-001	-2.7036618E+002
3	0	2.144876975346779E+003	4.0587798E-001	-2.7036267E+002
3	0	2.145376975334148E+003	4.0601534E-001	-2.7038031E+002
3	0	2.145876975321517E+003	4.0601391E-001	-2.7038031E+002
3	0	2.146376975308885E+003	4.0596506E-001	-2.7038385E+002
3	0	2.146876975296254E+003	4.0582323E-001	-2.7041214E+002
3	0	2.147376975283623E+003	4.0554613E-001	-2.7041919E+002
3	0	2.147876975270992E+003	4.0519813E-001	-2.7037677E+002
3	0	2.148376975258361E+003	4.0503940E-001	-2.7036972E+002
3	0	2.148876975245730E+003	4.0508917E-001	-2.7037677E+002
3	0	2.149376975233099E+003	4.0506855E-001	-2.7039447E+002
3	0	2.149876975220468E+003	4.0491953E-001	-2.7039093E+002
3	0	2.150376975207837E+003	4.0473574E-001	-2.7039801E+002
3	0	2.150876975195206E+003	4.0451458E-001	-2.7039801E+002
3	0	2.151376975182575E+003	4.0414339E-001	-2.7036618E+002
3	0	2.151876975169944E+003	4.0365651E-001	-2.7038031E+002
3	0	2.152376975157313E+003	4.0338606E-001	-2.7039093E+002
3	0	2.152876975144682E+003	4.0333664E-001	-2.7035559E+002
3	0	2.153376975132051E+003	4.0322870E-001	-2.7039093E+002
3	0	2.153876975119420E+003	4.0299842E-001	-2.7038031E+002
3	0	2.154376975106788E+003	4.0277702E-001	-2.7035913E+002
3	0	2.154876975094157E+003	4.0248141E-001	-2.7038742E+002
3	0	2.155376975081526E+003	4.0208638E-001	-2.7035205E+002
3	0	2.155876975068895E+003	4.0155551E-001	-2.7039801E+002
3	0	2.156376975056264E+003	4.0123191E-001	-2.7038742E+002
3	0	2.156876975043633E+003	4.0116441E-001	-2.7039801E+002
3	0	2.157376975031002E+003	4.0104485E-001	-2.7034851E+002
3	0	2.157876975018371E+003	4.0082201E-001	-2.7035913E+002
3	0	2.158376975005740E+003	4.0054902E-001	-2.7038742E+002
3	0	2.158876974993109E+003	4.0023190E-001	-2.7039447E+002
3	0	2.159376974980478E+003	3.9977962E-001	-2.7039801E+002
3	0	2.159876974967847E+003	3.9928871E-001	-2.7039447E+002
3	0	2.160376974955216E+003	3.9906105E-001	-2.7038385E+002
3	0	2.160876974942585E+003	3.9912650E-001	-2.7036618E+002
3	0	2.161376974929954E+003	3.9920497E-001	-2.7038385E+002
3	0	2.161876974917323E+003	3.9923793E-001	-2.7036618E+002
3	0	2.162376974904691E+003	3.9930353E-001	-2.7036972E+002
3	0	2.162876974892060E+003	3.9938685E-001	-2.7038742E+002
3	0	2.163376974879429E+003	3.9938217E-001	-2.7037326E+002
3	0	2.163876974866798E+003	3.9928058E-001	-2.7041214E+002
3	0	2.164376974854167E+003	3.9936510E-001	-2.7038031E+002
3	0	2.164876974841536E+003	3.9962998E-001	-2.7038385E+002
3	0	2.165376974828905E+003	3.9980277E-001	-2.7041214E+002
3	0	2.165876974816274E+003	3.9983666E-001	-2.7036972E+002
3	0	2.166376974803643E+003	3.9981031E-001	-2.7036267E+002
3	0	2.166876974791012E+003	3.9973390E-001	-2.7038385E+002
3	0	2.167376974778381E+003	3.9948782E-001	-2.7040155E+002
3	0	2.167876974765750E+003	3.9913201E-001	-2.7036972E+002
3	0	2.168376974753119E+003	3.9895919E-001	-2.7038385E+002
3	0	2.168876974740488E+003	3.9897770E-001	-2.7037677E+002
3	0	2.169376974727857E+003	3.9891994E-001	-2.7039093E+002
3	0	2.169876974715226E+003	3.9873329E-001	-2.7038031E+002
3	0	2.170376974702594E+003	3.9851528E-001	-2.7036267E+002
3	0	2.170876974689963E+003	3.9826623E-001	-2.7037326E+002
3	0	2.171376974677332E+003	3.9788753E-001	-2.7037677E+002
3	0	2.171876974664701E+003	3.9743769E-001	-2.7039093E+002
3	0	2.172376974652070E+003	3.9715302E-001	-2.7039801E+002
3	0	2.172876974639439E+003	3.9709082E-001	-2.7037677E+002
3	0	2.173376974626808E+003	3.9697561E-001	-2.7035205E+002
3	0	2.173876974614177E+003	3.9676100E-001	-2.7039447E+002
3	0	2.174376974601546E+003	3.9651996E-001	-2.7038742E+002
3	0	2.174876974588915E+003	3.9624733E-001	-2.7038031E+002
3	0	2.175376974576284E+003	3.9583170E-001	-2.7038742E+002
3	0	2.175876974563653E+003	3.9533725E-001	-2.7038031E+002
3	0	2.176376974551022E+003	3.9503404E-001	-2.7038742E+002
3	0	2.176876974538391E+003	3.9494276E-001	-2.7036972E+002
3	0	2.177376974525760E+003	3.9482206E-001	-2.7037677E+002
3	0	2.177876974513129E+003	3.9458638E-001	-2.7039801E+002
3	0	2.178376974500497E+003	3.9431933E-001	-2.7035205E+002
3	0	2.178876974487866E+003	3.9401141E-001	-2.7036267E+002
3	0	2.179376974475235E+003	3.9359134E-001	-2.7038031E+002
3	0	2.179876974462604E+003	3.9309543E-001	-2.7035913E+002
3	0	2.180376974449973E+003	3.9282405E-001	-2.7036972E+002
3	0	2.180876974437342E+003	3.9282924E-001	-2.7035913E+002
3	0	2.181376974424711E+003	3.9284813E-001	-2.7038031E+002
3	0	2.181876974412080E+003	3.9280435E-001	-2.7036267E+002
3	0	2.182376974399449E+003	3.9272550E-001	-2.7038742E+002
3	0	2.182876974386818E+003	3.9259863E-001	-2.7037326E+002
3	0	2.183376974374187E+003	3.9237034E-001	-2.7037326E+002
3	0	2.183876974361556E+003	3.9203605E-001	-2.7038031E+002
3	0	2.184376974348925E+003	3.9187467E-001	-2.7035205E+002
3	0	2.184876974336294E+003	3.9187473E-001	-2.7036267E+002
3	0	2.185376974323663E+003	3.9181823E-001	-2.7039447E+002
3	0	2.185876974311032E+003	3.9165205E-001	-2.7038031E+002
3	0	2.186376974298400E+003	3.9143595E-001	-2.7037326E+002
3	0	2.186876974285769E+003	3.9121041E-001	-2.7036972E+002
3	0	2.187376974273138E+003	3.9085910E-001	-2.7035559E+002
3	0	2.187876974260507E+003	3.9044562E-001	-2.7037677E+002
3	0	2.188376974247876E+003	3.9019397E-001	-2.7037326E+002
3	0	2.188876974235245E+003	3.9012253E-001	-2.7039447E+002
3	0	2.189376974222614E+003	3.9000705E-001	-2.7038385E+002
3	0	2.189876974209983E+003	3.8981676E-001	-2.7039093E+002
3	0	2.190376974197352E+003	3.8960218E-001	-2.7037326E+002
3	0	2.190876974184721E+003	3.8935849E-001	-2.7039093E+002
3	0	2.191376974172090E+003	3.8903058E-001	-2.7038031E+002
3	0	2.191876974159459E+003	3.8861457E-001	-2.7039447E+002
3	0	2.192376974146828E+003	3.8836765E-001	-2.7038031E+002
3	0	2.192876974134197E+003	3.8831922E-001	-2.7039447E+002
3	0	2.193376974121566E+003	3.8822889E-001	-2.7037326E+002
3	0	2.193876974108935E+003	3.8805240E-001	-2.7037326E+002
3	0	2.194376974096303E+003	3.8785642E-001	-2.7036972E+002
3	0	2.194876974083672E+003	3.8764143E-001	-2.7037326E+002
3	0	2.195376974071041E+003	3.8731399E-001	-2.7038385E+002
3	0	2.195876974058410E+003	3.8691410E-001	-2.7036618E+002
3	0	2.196376974045779E+003	3.8665983E-001	-2.7036972E+002
3	0	2.196876974033148E+003	3.8657525E-001	-2.7037677E+002
3	0	2.197376974020517E+003	3.8647050E-001	-2.7038742E+002
3	0	2.197876974007886E+003	3.8629752E-001	-2.7038742E+002
3	0	2.198376973995255E+003	3.8608924E-001	-2.7038031E+002
3	0	2.198876973982624E+003	3.8584119E-001	-2.7038385E+002
3	0	2.199376973969993E+003	3.8551453E-001	-2.7039447E+002
3	0	2.199876973957362E+003	3.8510329E-001	-2.7039447E+002
3	0	2.200376973944731E+003	3.8486990E-001	-2.7035559E+002
3	0	2.200876973932100E+003	3.8488424E-001	-2.7038742E+002
3	0	2.201376973919469E+003	3.8494170E-001	-2.7037326E+002
3	0	2.201876973906838E+003	3.8498205E-001	-2.7036267E+002
3	0	2.202376973894206E+003	3.8503551E-001	-2.7038385E+002
3	0	2.202876973881575E+003	3.8512278E-001	-2.7039801E+002
3	0	2.203376973868944E+003	3.8514745E-001	-2.7037677E+002
3	0	2.203876973856313E+003	3.8510475E-001	-2.7037326E+002
3	0	2.204376973843682E+003	3.8520536E-001	-2.7038742E+002
3	0	2.204876973831051E+003	3.8548866E-001	-2.7038031E+002
3	0	2.205376973818420E+003	3.8573065E-001	-2.7035913E+002
3	0	2.205876973805789E+003	3.8584721E-001	-2.7037326E+002
3	0	2.206376973793158E+003	3.8588288E-001	-2.7040506E+002
3	0	2.206876973780527E+003	3.8586935E-001	-2.7039093E+002
3	0	2.207376973767896E+003	3.8574439E-001	-2.7035913E+002
3	0	2.207876973755265E+003	3.8547271E-001	-2.7036972E+002
3	0	2.208376973742634E+003	3.8529670E-001	-2.7040155E+002
3	0	2.208876973730003E+003	3.8529247E-001	-2.7036267E+002
3	0	2.209376973717372E+003	3.8525629E-001	-2.7037326E+002
3	0	2.209876973704741E+003	3.8512579E-001	-2.7038742E+002
3	0	2.210376973692109E+003	3.8496974E-001	-2.7036972E+002
3	0	2.210876973679478E+003	3.8477015E-001	-2.7036618E+002
3	0	2.211376973666847E+003	3.8445097E-001	-2.7039093E+002
3	0	2.211876973654216E+003	3.8404003E-001	-2.7039447E+002
3	0	2.212376973641585E+003	3.8377139E-001	-2.7038742E+002
3	0	2.212876973628954E+003	3.8367674E-001	-2.7039447E+002
3	0	2.213376973616323E+003	3.8356990E-001	-2.7038742E+002
3	0	2.213876973603692E+003	3.8340443E-001	-2.7037326E+002
3	0	2.214376973591061E+003	3.8319066E-001	-2.7038742E+002
3	0	2.214876973578430E+003	3.8296044E-001	-2.7038742E+002
3	0	2.215376973565799E+003	3.8264257E-001	-2.7037677E+002
3	0	2.215876973553168E+003	3.8223264E-001	-2.7038742E+002
3	0	2.216376973540537E+003	3.8195023E-001	-2.7038031E+002
3	0	2.216876973527906E+003	3.8185844E-001	-2.7038031E+002
3	0	2.217376973515275E+003	3.8174552E-001	-2.7039093E+002
3	0	2.217876973502644E+003	3.8155013E-001	-2.7038031E+002
3	0	2.218376973490012E+003	3.8132530E-001	-2.7037677E+002
3	0	2.218876973477381E+003	3.8108361E-001	-2.7038031E+002
3	0	2.219376973464750E+003	3.8075700E-001	-2.7036972E+002
3	0	2.219876973452119E+003	3.8033551E-001	-2.7035559E+002
3	0	2.220376973439488E+003	3.8007313E-001	-2.7036267E+002
3	0	2.220876973426857E+003	3.8004389E-001	-2.7037326E+002
3	0	2.221376973414226E+003	3.8004538E-001	-2.7036972E+002
3	0	2.221876973401595E+003	3.8004154E-001	-2.7038385E+002
3	0	2.222376973388964E+003	3.8005677E-001	-2.7038385E+002
3	0	2.222876973376333E+003	3.8007778E-001	-2.7038385E+002
3	0	2.223376973363702E+003	3.8005483E-001	-2.7036267E+002
3	0	2.223876973351071E+003	3.7996900E-001	-2.7039093E+002
3	0	2.224376973338440E+003	3.7999773E-001	-2.7038031E+002
3	0	2.224876973325809E+003	3.8019729E-001	-2.7038031E+002
3	0	2.225376973313178E+003	3.8035685E-001	-2.7039801E+002
3	0	2.225876973300547E+003	3.8041818E-001	-2.7038385E+002
3	0	2.226376973287915E+003	3.8040921E-001	-2.7037677E+002
3	0	2.226876973275284E+003	3.8035607E-001	-2.7035913E+002
3	0	2.227376973262653E+003	3.8017917E-001	-2.7036972E+002
3	0	2.227876973250022E+003	3.7986898E-001	-2.7038742E+002
3	0	2.228376973237391E+003	3.7966508E-001	-2.7039093E+002
3	0	2.228876973224760E+003	3.7962240E-001	-2.7041214E+002
3	0	2.229376973212129E+003	3.7955111E-001	-2.7036972E+002
3	0	2.229876973199498E+003	3.7940165E-001	-2.7040506E+002
3	0	2.230376973186867E+003	3.7920666E-001	-2.7037677E+002
3	0	2.230876973174236E+003	3.7898397E-001	-2.7036618E+002
3	0	2.231376973161605E+003	3.7867761E-001	-2.7038031E+002
3	0	2.231876973148974E+003	3.7829244E-001	-2.7039093E+002
3	0	2.232376973136343E+003	3.7800607E-001	-2.7037677E+002
3	0	2.232876973123712E+003	3.7788570E-001	-2.7038031E+002
3	0	2.233376973111081E+003	3.7775907E-001	-2.7039447E+002
3	0	2.233876973098450E+003	3.7756273E-001	-2.7037677E+002
3	0	2.234376973085818E+003	3.7732789E-001	-2.7035559E+002
3	0	2.234876973073187E+003	3.7705970E-001	-2.7035913E+002
3	0	2.235376973060556E+003	3.7669501E-001	-2.7037677E+002
3	0	2.235876973047925E+003	3.7624863E-001	-2.7038031E+002
3	0	2.236376973035294E+003	3.7594539E-001	-2.7040860E+002
3	0	2.236876973022663E+003	3.7581950E-001	-2.7034851E+002
3	0	2.237376973010032E+003	3.7570396E-001	-2.7038385E+002
3	0	2.237876972997401E+003	3.7551507E-001	-2.7037326E+002
3	0	2.238376972984770E+003	3.7530342E-001	-2.7039093E+002
3	0	2.238876972972139E+003	3.7507230E-001	-2.7038031E+002
3	0	2.239376972959508E+003	3.7476084E-001	-2.7035205E+002
3	0	2.239876972946877E+003	3.7435567E-001	-2.7038742E+002
3	0	2.240376972934246E+003	3.7409830E-001	-2.7036972E+002
3	0	2.240876972921615E+003	3.7403682E-001	-2.7036618E+002
3	0	2.241376972908984E+003	3.7401602E-001	-2.7036618E+002
3	0	2.241876972896353E+003	3.7398615E-001	-2.7038385E+002
3	0	2.242376972883721E+003	3.7399110E-001	-2.7036972E+002
3	0	2.242876972871090E+003	3.7402076E-001	-2.7036972E+002
3	0	2.243376972858459E+003	3.7402037E-001	-2.7037677E+002
3	0	2.243876972845828E+003	3.7395152E-001	-2.7037677E+002
3	0	2.244376972833197E+003	3.7400925E-001	-2.7039447E+002
3	0	2.244876972820566E+003	3.7421259E-001	-2.7036267E+002
3	0	2.245376972807935E+003	3.7439498E-001	-2.7035205E+002
3	0	2.245876972795304E+003	3.7447169E-001	-2.7036972E+002
3	0	2.246376972782673E+003	3.7448338E-001	-2.7040860E+002
3	0	2.246876972770042E+003	3.7444171E-001	-2.7036618E+002
3	0	2.247376972757411E+003	3.7427890E-001	-2.7035559E+002
3	0	2.247876972744780E+003	3.7400785E-001	-2.7036267E+002
3	0	2.248376972732149E+003	3.7383392E-001	-2.7036972E+002
3	0	2.248876972719518E+003	3.7380573E-001	-2.7035559E+002
3	0	2.249376972706887E+003	3.7376162E-001	-2.7036618E+002
3	0	2.249876972694256E+003	3.7363836E-001	-2.7036972E+002
3	0	2.250376972681624E+003	3.7345648E-001	-2.7037677E+002
3	0	2.250876972668993E+003	3.7324980E-001	-2.7036972E+002
3	0	2.250877372668983E+003	3.7310338E-001	-2.7036972E+002