EC-Lab ASCII FILE
Nb header lines : 55                          

Open Circuit Voltage

Run on channel : 1 (SN 81504)
User : 
CE vs. WE compliance from -10 V to 10 V
Electrode connection : standard
Potential control : Ewe
Ewe ctrl range : min = -2.50 V, max = 2.50 V
Safety Limits :
	Do not start on E overload
Acquisition started on : 05/07/2026 17:51:53.741
Loaded Setting File :  C:\PEM-WE_measurements\2026\372_IV_IV IrOx, 5 min Pt, 30 min C, etched cathode\new station\Loopeis new\1,46 V different time gaps open cell\Loopeis 1,46V_60s_5_PEIS from 65Hz to 10Hz.mps
Saved on :
	File : L_15_Loopeis 1,46V_60s_5_PEIS from 65Hz to 10Hz_08_OCV_C01.mpr
	Directory : C:\PEM-WE_measurements\2026\372_IV_IV IrOx, 5 min Pt, 30 min C, etched cathode\new station\Loopeis new\1,46 V different time gaps open cell\
	Host : 192.168.0.2
Device : SP-150e (SN .005491)
Address : 192.168.0.91
EC-LAB for windows v11.71 (software)
Internet server v28.00 (firmware)
Command interpretor v14.01 (firmware)
Electrode material : 
Initial state : 
Electrolyte : 
Comments : 
Current amplifier : SP-150eB-20A
Electrode surface area : 0.001 cm²
Characteristic mass : 0.001 g
Equivalent Weight : 0.000 g/eq.
Density : 0.000 g/cm3
Volume (V) : 0.001 cm³
Record Analogic IN 1
Text export
   Mode : Standard
   Time format : Elapsed
Cycle Definition : Charge/Discharge alternance
External device configuration :
   device type : Temperature Probe
   device name : Other
   Analog IN 1 : 
      unit : T/Â°C
      max : 100.000 at 2.000 V
      min : 0.000 at 1.460 V
tR (h:m:s)          0:01:0.0000         
dER/dt (mV/h)       1.0                 
record              <Ewe>               
dER (mV)            10.00               
dtR (s)             0.5000              
E range min (V)     -2.500              
E range max (V)     2.500               

mode	error	time/s	<Ewe/V>	Analog IN 1/V	
3	0	8.124654189100693E+002	1.2762415E+000	-2.7035913E+002
3	0	8.129654188974382E+002	1.2709337E+000	-2.7039093E+002
3	0	8.134654188848072E+002	1.2349582E+000	-2.7035559E+002
3	0	8.139654188721761E+002	1.1628174E+000	-2.7037326E+002
3	0	8.144654188595450E+002	9.4515991E-001	-2.7038385E+002
3	0	8.149654188469140E+002	4.8945066E-001	-2.7038742E+002
3	0	8.154654188342829E+002	3.5594690E-001	-2.7036618E+002
3	0	8.159654188216518E+002	3.3746099E-001	-2.7038385E+002
3	0	8.164654188090208E+002	3.2857469E-001	-2.7037326E+002
3	0	8.169654187963897E+002	3.2151708E-001	-2.7038742E+002
3	0	8.174654187837587E+002	3.1615800E-001	-2.7038031E+002
3	0	8.179654187711276E+002	3.1206319E-001	-2.7037677E+002
3	0	8.184654187584965E+002	3.0887797E-001	-2.7035559E+002
3	0	8.189654187458655E+002	3.0633539E-001	-2.7036972E+002
3	0	8.194654187332344E+002	3.0425614E-001	-2.7037326E+002
3	0	8.199654187206033E+002	3.0250376E-001	-2.7040506E+002
3	0	8.204654187079723E+002	3.0099103E-001	-2.7039801E+002
3	0	8.209654186953412E+002	2.9967621E-001	-2.7036618E+002
3	0	8.214654186827102E+002	2.9847741E-001	-2.7038742E+002
3	0	8.219654186700791E+002	2.9737204E-001	-2.7038385E+002
3	0	8.224654186574480E+002	2.9637274E-001	-2.7038742E+002
3	0	8.229654186448170E+002	2.9547775E-001	-2.7038031E+002
3	0	8.234654186321859E+002	2.9464647E-001	-2.7038031E+002
3	0	8.239654186195548E+002	2.9385802E-001	-2.7036972E+002
3	0	8.244654186069238E+002	2.9311147E-001	-2.7038385E+002
3	0	8.249654185942927E+002	2.9238233E-001	-2.7036972E+002
3	0	8.254654185816617E+002	2.9166844E-001	-2.7039447E+002
3	0	8.259654185690306E+002	2.9095024E-001	-2.7037326E+002
3	0	8.264654185563995E+002	2.9028895E-001	-2.7040506E+002
3	0	8.269654185437685E+002	2.8965691E-001	-2.7038031E+002
3	0	8.274654185311374E+002	2.8903952E-001	-2.7038385E+002
3	0	8.279654185185063E+002	2.8843132E-001	-2.7034851E+002
3	0	8.284654185058753E+002	2.8783625E-001	-2.7040506E+002
3	0	8.289654184932442E+002	2.8724566E-001	-2.7038742E+002
3	0	8.294654184806132E+002	2.8664693E-001	-2.7040155E+002
3	0	8.299654184679821E+002	2.8603792E-001	-2.7036972E+002
3	0	8.304654184553510E+002	2.8545651E-001	-2.7038742E+002
3	0	8.309654184427200E+002	2.8490737E-001	-2.7040155E+002
3	0	8.314654184300889E+002	2.8436372E-001	-2.7036972E+002
3	0	8.319654184174578E+002	2.8382376E-001	-2.7037677E+002
3	0	8.324654184048268E+002	2.8329152E-001	-2.7038031E+002
3	0	8.329654183921957E+002	2.8275791E-001	-2.7038742E+002
3	0	8.334654183795647E+002	2.8221300E-001	-2.7038031E+002
3	0	8.339654183669336E+002	2.8165624E-001	-2.7036972E+002
3	0	8.344654183543025E+002	2.8112251E-001	-2.7038742E+002
3	0	8.349654183416715E+002	2.8062174E-001	-2.7038031E+002
3	0	8.354654183290404E+002	2.8012854E-001	-2.7040506E+002
3	0	8.359654183164093E+002	2.7962661E-001	-2.7037326E+002
3	0	8.364654183037783E+002	2.7913371E-001	-2.7040155E+002
3	0	8.369654182911472E+002	2.7864468E-001	-2.7040506E+002
3	0	8.374654182785162E+002	2.7812555E-001	-2.7038031E+002
3	0	8.379654182658851E+002	2.7760911E-001	-2.7036972E+002
3	0	8.384654182532540E+002	2.7711743E-001	-2.7037326E+002
3	0	8.389654182406230E+002	2.7664760E-001	-2.7040155E+002
3	0	8.394654182279919E+002	2.7618301E-001	-2.7041214E+002
3	0	8.399654182153608E+002	2.7572197E-001	-2.7038031E+002
3	0	8.404654182027298E+002	2.7526826E-001	-2.7038031E+002
3	0	8.409654181900987E+002	2.7479923E-001	-2.7037677E+002
3	0	8.414654181774677E+002	2.7432653E-001	-2.7036972E+002
3	0	8.419654181648366E+002	2.7384806E-001	-2.7037677E+002
3	0	8.424654181522055E+002	2.7338329E-001	-2.7038742E+002
3	0	8.429654181395745E+002	2.7294797E-001	-2.7040860E+002
3	0	8.434654181269434E+002	2.7252227E-001	-2.7038031E+002
3	0	8.439654181143123E+002	2.7208978E-001	-2.7039447E+002
3	0	8.444654181016813E+002	2.7166405E-001	-2.7039447E+002
3	0	8.449654180890502E+002	2.7123839E-001	-2.7036972E+002
3	0	8.454654180764192E+002	2.7079883E-001	-2.7038742E+002
3	0	8.459654180637881E+002	2.7035123E-001	-2.7039447E+002
3	0	8.464654180511570E+002	2.6992741E-001	-2.7036618E+002
3	0	8.469654180385260E+002	2.6952481E-001	-2.7036972E+002
3	0	8.474654180258949E+002	2.6912400E-001	-2.7039447E+002
3	0	8.479654180132638E+002	2.6873249E-001	-2.7037677E+002
3	0	8.484654180006328E+002	2.6833832E-001	-2.7036618E+002
3	0	8.489654179880017E+002	2.6794666E-001	-2.7038031E+002
3	0	8.494654179753707E+002	2.6753855E-001	-2.7039093E+002
3	0	8.499654179627396E+002	2.6711383E-001	-2.7036972E+002
3	0	8.504654179501085E+002	2.6672181E-001	-2.7035205E+002
3	0	8.509654179374775E+002	2.6635501E-001	-2.7035913E+002
3	0	8.514654179248464E+002	2.6599005E-001	-2.7039801E+002
3	0	8.519654179122153E+002	2.6562890E-001	-2.7038742E+002
3	0	8.524654178995843E+002	2.6526752E-001	-2.7039093E+002
3	0	8.529654178869532E+002	2.6489815E-001	-2.7039801E+002
3	0	8.534654178743222E+002	2.6451552E-001	-2.7036972E+002
3	0	8.539654178616911E+002	2.6413065E-001	-2.7039801E+002
3	0	8.544654178490600E+002	2.6375675E-001	-2.7039093E+002
3	0	8.549654178364290E+002	2.6342508E-001	-2.7038742E+002
3	0	8.554654178237979E+002	2.6308879E-001	-2.7037677E+002
3	0	8.559654178111668E+002	2.6275739E-001	-2.7036972E+002
3	0	8.564654177985358E+002	2.6242363E-001	-2.7038742E+002
3	0	8.569654177859047E+002	2.6208878E-001	-2.7035913E+002
3	0	8.574654177732737E+002	2.6173475E-001	-2.7039093E+002
3	0	8.579654177606426E+002	2.6136765E-001	-2.7038031E+002
3	0	8.584654177480115E+002	2.6103243E-001	-2.7034497E+002
3	0	8.589654177353805E+002	2.6073021E-001	-2.7039447E+002
3	0	8.594654177227494E+002	2.6042354E-001	-2.7034497E+002
3	0	8.599654177101183E+002	2.6010746E-001	-2.7038031E+002
3	0	8.604654176974873E+002	2.5980255E-001	-2.7036267E+002
3	0	8.609654176848562E+002	2.5949141E-001	-2.7036618E+002
3	0	8.614654176722252E+002	2.5917047E-001	-2.7037326E+002
3	0	8.619654176595941E+002	2.5883183E-001	-2.7037326E+002
3	0	8.624654176469630E+002	2.5852486E-001	-2.7038385E+002
3	0	8.629654176343320E+002	2.5824285E-001	-2.7038031E+002
3	0	8.634654176217009E+002	2.5797227E-001	-2.7035559E+002
3	0	8.639654176090698E+002	2.5768897E-001	-2.7038385E+002
3	0	8.644654175964388E+002	2.5740331E-001	-2.7038031E+002
3	0	8.649654175838077E+002	2.5712872E-001	-2.7038742E+002
3	0	8.654654175711767E+002	2.5683481E-001	-2.7036618E+002
3	0	8.659654175585456E+002	2.5652274E-001	-2.7035913E+002
3	0	8.664654175459145E+002	2.5623667E-001	-2.7040155E+002
3	0	8.669654175332835E+002	2.5599024E-001	-2.7038031E+002
3	0	8.674654175206524E+002	2.5574639E-001	-2.7037677E+002
3	0	8.679654175080213E+002	2.5549847E-001	-2.7038031E+002
3	0	8.684654174953903E+002	2.5523835E-001	-2.7038385E+002
3	0	8.689654174827592E+002	2.5498226E-001	-2.7034497E+002
3	0	8.694654174701282E+002	2.5470260E-001	-2.7037326E+002
3	0	8.699654174574971E+002	2.5442159E-001	-2.7038385E+002
3	0	8.704654174448660E+002	2.5415492E-001	-2.7039447E+002
3	0	8.709654174322350E+002	2.5392091E-001	-2.7038742E+002
3	0	8.714654174196039E+002	2.5368941E-001	-2.7035205E+002
3	0	8.719654174069728E+002	2.5345573E-001	-2.7035559E+002
3	0	8.719888174063817E+002	2.5334442E-001	-2.7037326E+002