EC-Lab ASCII FILE
Nb header lines : 55                          

Open Circuit Voltage

Run on channel : 1 (SN 81504)
User : 
CE vs. WE compliance from -10 V to 10 V
Electrode connection : standard
Potential control : Ewe
Ewe ctrl range : min = -2.50 V, max = 2.50 V
Safety Limits :
	Do not start on E overload
Acquisition started on : 05/10/2026 10:21:59.442
Loaded Setting File :  C:\PEM-WE_measurements\2026\372_IV_IV IrOx, 5 min Pt, 30 min C, etched cathode\new station\Loopeis new\1,46 V different time gaps closed cell\Loopeis 1,46V_180s_5_PEIS from 65Hz to 10Hz.mps
Saved on :
	File : L_30_Loopeis 1,46V_180s_5_PEIS from 65Hz to 10Hz_16_OCV_C01.mpr
	Directory : C:\PEM-WE_measurements\2026\372_IV_IV IrOx, 5 min Pt, 30 min C, etched cathode\new station\Loopeis new\1,46 V different time gaps closed cell\
	Host : 192.168.0.2
Device : SP-150e (SN .005491)
Address : 192.168.0.91
EC-LAB for windows v11.71 (software)
Internet server v28.00 (firmware)
Command interpretor v14.01 (firmware)
Electrode material : 
Initial state : 
Electrolyte : 
Comments : 
Current amplifier : SP-150eB-20A
Electrode surface area : 0.001 cm²
Characteristic mass : 0.001 g
Equivalent Weight : 0.000 g/eq.
Density : 0.000 g/cm3
Volume (V) : 0.001 cm³
Record Analogic IN 1
Text export
   Mode : Standard
   Time format : Elapsed
Cycle Definition : Charge/Discharge alternance
External device configuration :
   device type : Temperature Probe
   device name : Other
   Analog IN 1 : 
      unit : T/Â°C
      max : 100.000 at 2.000 V
      min : 0.000 at 1.460 V
tR (h:m:s)          0:03:0.0000         
dER/dt (mV/h)       1.0                 
record              <Ewe>               
dER (mV)            10.00               
dtR (s)             0.5000              
E range min (V)     -2.500              
E range max (V)     2.500               

mode	error	time/s	<Ewe/V>	Analog IN 1/V	
3	0	1.846352782888134E+003	1.2913704E+000	-2.7036267E+002
3	0	1.846852782875503E+003	1.2988515E+000	-2.7036267E+002
3	0	1.847352782862872E+003	1.2954428E+000	-2.7037677E+002
3	0	1.847852782850241E+003	1.2870610E+000	-2.7038385E+002
3	0	1.848352782837610E+003	1.2722175E+000	-2.7039093E+002
3	0	1.848852782824979E+003	1.2477496E+000	-2.7036618E+002
3	0	1.849352782812348E+003	1.2081572E+000	-2.7038385E+002
3	0	1.849852782799717E+003	1.1355290E+000	-2.7036972E+002
3	0	1.850352782787086E+003	8.6137164E-001	-2.7037326E+002
3	0	1.850852782774455E+003	5.2031779E-001	-2.7038385E+002
3	0	1.851352782761824E+003	4.3325305E-001	-2.7037677E+002
3	0	1.851852782749193E+003	4.1266081E-001	-2.7037677E+002
3	0	1.852352782736561E+003	4.0697932E-001	-2.7037326E+002
3	0	1.852852782723930E+003	4.0489477E-001	-2.7039093E+002
3	0	1.853352782711299E+003	4.0358692E-001	-2.7039093E+002
3	0	1.853852782698668E+003	4.0256715E-001	-2.7039447E+002
3	0	1.854352782686037E+003	4.0169430E-001	-2.7036267E+002
3	0	1.854852782673406E+003	4.0103886E-001	-2.7036267E+002
3	0	1.855352782660775E+003	4.0034467E-001	-2.7037326E+002
3	0	1.855852782648144E+003	3.9964750E-001	-2.7037326E+002
3	0	1.856352782635513E+003	3.9940614E-001	-2.7040155E+002
3	0	1.856852782622882E+003	3.9944112E-001	-2.7038385E+002
3	0	1.857352782610251E+003	3.9940602E-001	-2.7038031E+002
3	0	1.857852782597620E+003	3.9933622E-001	-2.7039447E+002
3	0	1.858352782584989E+003	3.9928430E-001	-2.7038385E+002
3	0	1.858852782572358E+003	3.9931476E-001	-2.7039093E+002
3	0	1.859352782559727E+003	3.9931110E-001	-2.7037326E+002
3	0	1.859852782547096E+003	3.9929822E-001	-2.7038385E+002
3	0	1.860352782534465E+003	3.9967290E-001	-2.7039093E+002
3	0	1.860852782521833E+003	4.0032670E-001	-2.7039447E+002
3	0	1.861352782509202E+003	4.0091950E-001	-2.7036972E+002
3	0	1.861852782496571E+003	4.0138870E-001	-2.7037326E+002
3	0	1.862352782483940E+003	4.0176973E-001	-2.7038031E+002
3	0	1.862852782471309E+003	4.0205619E-001	-2.7036972E+002
3	0	1.863352782458678E+003	4.0216976E-001	-2.7037677E+002
3	0	1.863852782446047E+003	4.0217644E-001	-2.7035559E+002
3	0	1.864352782433416E+003	4.0248045E-001	-2.7038031E+002
3	0	1.864852782420785E+003	4.0296632E-001	-2.7038742E+002
3	0	1.865352782408154E+003	4.0334153E-001	-2.7037677E+002
3	0	1.865852782395523E+003	4.0359971E-001	-2.7036618E+002
3	0	1.866352782382892E+003	4.0379289E-001	-2.7039447E+002
3	0	1.866852782370261E+003	4.0393090E-001	-2.7035913E+002
3	0	1.867352782357630E+003	4.0388489E-001	-2.7038742E+002
3	0	1.867852782344999E+003	4.0370768E-001	-2.7038742E+002
3	0	1.868352782332368E+003	4.0381590E-001	-2.7034851E+002
3	0	1.868852782319736E+003	4.0414011E-001	-2.7038742E+002
3	0	1.869352782307105E+003	4.0437093E-001	-2.7037326E+002
3	0	1.869852782294474E+003	4.0450206E-001	-2.7036618E+002
3	0	1.870352782281843E+003	4.0454122E-001	-2.7036972E+002
3	0	1.870852782269212E+003	4.0452874E-001	-2.7038385E+002
3	0	1.871352782256581E+003	4.0434813E-001	-2.7039093E+002
3	0	1.871852782243950E+003	4.0409335E-001	-2.7036972E+002
3	0	1.872352782231319E+003	4.0408128E-001	-2.7039093E+002
3	0	1.872852782218688E+003	4.0429437E-001	-2.7038031E+002
3	0	1.873352782206057E+003	4.0440682E-001	-2.7038385E+002
3	0	1.873852782193426E+003	4.0444374E-001	-2.7039447E+002
3	0	1.874352782180795E+003	4.0442652E-001	-2.7038385E+002
3	0	1.874852782168164E+003	4.0432721E-001	-2.7039093E+002
3	0	1.875352782155533E+003	4.0407059E-001	-2.7038031E+002
3	0	1.875852782142902E+003	4.0368065E-001	-2.7038385E+002
3	0	1.876352782130271E+003	4.0359288E-001	-2.7036618E+002
3	0	1.876852782117639E+003	4.0371257E-001	-2.7035913E+002
3	0	1.877352782105008E+003	4.0375948E-001	-2.7039801E+002
3	0	1.877852782092377E+003	4.0375760E-001	-2.7038385E+002
3	0	1.878352782079746E+003	4.0371352E-001	-2.7037326E+002
3	0	1.878852782067115E+003	4.0375653E-001	-2.7036972E+002
3	0	1.879352782054484E+003	4.0367502E-001	-2.7036267E+002
3	0	1.879852782041853E+003	4.0356049E-001	-2.7037677E+002
3	0	1.880352782029222E+003	4.0379426E-001	-2.7040506E+002
3	0	1.880852782016591E+003	4.0431008E-001	-2.7037677E+002
3	0	1.881352782003960E+003	4.0480998E-001	-2.7038742E+002
3	0	1.881852781991329E+003	4.0522569E-001	-2.7037677E+002
3	0	1.882352781978698E+003	4.0551534E-001	-2.7038742E+002
3	0	1.882852781966067E+003	4.0574738E-001	-2.7039801E+002
3	0	1.883352781953436E+003	4.0577328E-001	-2.7038385E+002
3	0	1.883852781940805E+003	4.0564400E-001	-2.7036972E+002
3	0	1.884352781928174E+003	4.0570873E-001	-2.7039447E+002
3	0	1.884852781915542E+003	4.0597665E-001	-2.7037326E+002
3	0	1.885352781902911E+003	4.0614423E-001	-2.7036618E+002
3	0	1.885852781890280E+003	4.0623039E-001	-2.7036972E+002
3	0	1.886352781877649E+003	4.0616405E-001	-2.7039801E+002
3	0	1.886852781865018E+003	4.0592352E-001	-2.7038385E+002
3	0	1.887352781852387E+003	4.0579212E-001	-2.7035913E+002
3	0	1.887852781839756E+003	4.0559506E-001	-2.7040506E+002
3	0	1.888352781827125E+003	4.0552643E-001	-2.7036618E+002
3	0	1.888852781814494E+003	4.0562192E-001	-2.7038031E+002
3	0	1.889352781801863E+003	4.0551412E-001	-2.7036267E+002
3	0	1.889852781789232E+003	4.0540725E-001	-2.7036618E+002
3	0	1.890352781776601E+003	4.0527144E-001	-2.7036618E+002
3	0	1.890852781763970E+003	4.0507212E-001	-2.7037326E+002
3	0	1.891352781751339E+003	4.0472218E-001	-2.7037677E+002
3	0	1.891852781738708E+003	4.0426344E-001	-2.7038742E+002
3	0	1.892352781726077E+003	4.0406978E-001	-2.7036618E+002
3	0	1.892852781713445E+003	4.0409398E-001	-2.7038031E+002
3	0	1.893352781700814E+003	4.0393549E-001	-2.7035913E+002
3	0	1.893852781688183E+003	4.0375993E-001	-2.7039093E+002
3	0	1.894352781675552E+003	4.0352958E-001	-2.7039093E+002
3	0	1.894852781662921E+003	4.0329537E-001	-2.7036618E+002
3	0	1.895352781650290E+003	4.0289620E-001	-2.7036618E+002
3	0	1.895852781637659E+003	4.0243316E-001	-2.7039447E+002
3	0	1.896352781625028E+003	4.0219852E-001	-2.7036267E+002
3	0	1.896852781612397E+003	4.0232807E-001	-2.7039801E+002
3	0	1.897352781599766E+003	4.0268388E-001	-2.7038031E+002
3	0	1.897852781587135E+003	4.0273505E-001	-2.7037677E+002
3	0	1.898352781574504E+003	4.0260339E-001	-2.7038031E+002
3	0	1.898852781561873E+003	4.0245962E-001	-2.7038742E+002
3	0	1.899352781549242E+003	4.0217841E-001	-2.7036972E+002
3	0	1.899852781536611E+003	4.0180475E-001	-2.7035205E+002
3	0	1.900352781523980E+003	4.0178287E-001	-2.7039093E+002
3	0	1.900852781511348E+003	4.0206537E-001	-2.7036972E+002
3	0	1.901352781498717E+003	4.0225458E-001	-2.7038742E+002
3	0	1.901852781486086E+003	4.0246642E-001	-2.7038031E+002
3	0	1.902352781473455E+003	4.0264913E-001	-2.7038031E+002
3	0	1.902852781460824E+003	4.0277275E-001	-2.7036972E+002
3	0	1.903352781448193E+003	4.0270165E-001	-2.7035205E+002
3	0	1.903852781435562E+003	4.0247503E-001	-2.7035913E+002
3	0	1.904352781422931E+003	4.0245241E-001	-2.7038385E+002
3	0	1.904852781410300E+003	4.0263620E-001	-2.7039801E+002
3	0	1.905352781397669E+003	4.0264592E-001	-2.7039093E+002
3	0	1.905852781385038E+003	4.0262729E-001	-2.7038385E+002
3	0	1.906352781372407E+003	4.0250930E-001	-2.7038031E+002
3	0	1.906852781359776E+003	4.0237600E-001	-2.7035559E+002
3	0	1.907352781347145E+003	4.0207079E-001	-2.7037326E+002
3	0	1.907852781334514E+003	4.0163797E-001	-2.7039093E+002
3	0	1.908352781321883E+003	4.0140507E-001	-2.7035559E+002
3	0	1.908852781309251E+003	4.0143451E-001	-2.7039801E+002
3	0	1.909352781296620E+003	4.0135348E-001	-2.7038742E+002
3	0	1.909852781283989E+003	4.0123752E-001	-2.7039447E+002
3	0	1.910352781271358E+003	4.0106067E-001	-2.7038742E+002
3	0	1.910852781258727E+003	4.0081716E-001	-2.7038031E+002
3	0	1.911352781246096E+003	4.0043172E-001	-2.7038742E+002
3	0	1.911852781233465E+003	3.9994162E-001	-2.7037326E+002
3	0	1.912352781220834E+003	3.9967149E-001	-2.7038031E+002
3	0	1.912852781208203E+003	3.9962229E-001	-2.7038031E+002
3	0	1.913352781195572E+003	3.9945567E-001	-2.7036972E+002
3	0	1.913852781182941E+003	3.9926490E-001	-2.7038385E+002
3	0	1.914352781170310E+003	3.9914829E-001	-2.7037326E+002
3	0	1.914852781157679E+003	3.9907113E-001	-2.7037677E+002
3	0	1.915352781145048E+003	3.9875469E-001	-2.7036618E+002
3	0	1.915852781132417E+003	3.9823619E-001	-2.7036972E+002
3	0	1.916352781119786E+003	3.9784625E-001	-2.7035205E+002
3	0	1.916852781107154E+003	3.9769846E-001	-2.7035913E+002
3	0	1.917352781094523E+003	3.9742211E-001	-2.7036618E+002
3	0	1.917852781081892E+003	3.9720803E-001	-2.7039093E+002
3	0	1.918352781069261E+003	3.9707223E-001	-2.7036972E+002
3	0	1.918852781056630E+003	3.9695391E-001	-2.7038031E+002
3	0	1.919352781043999E+003	3.9665720E-001	-2.7036618E+002
3	0	1.919852781031368E+003	3.9629433E-001	-2.7039447E+002
3	0	1.920352781018737E+003	3.9622200E-001	-2.7038385E+002
3	0	1.920852781006106E+003	3.9641541E-001	-2.7035913E+002
3	0	1.921352780993475E+003	3.9657572E-001	-2.7039801E+002
3	0	1.921852780980844E+003	3.9676073E-001	-2.7038385E+002
3	0	1.922352780968213E+003	3.9687577E-001	-2.7038385E+002
3	0	1.922852780955582E+003	3.9690980E-001	-2.7037326E+002
3	0	1.923352780942951E+003	3.9684209E-001	-2.7036618E+002
3	0	1.923852780930320E+003	3.9659721E-001	-2.7038742E+002
3	0	1.924352780917689E+003	3.9655119E-001	-2.7038742E+002
3	0	1.924852780905057E+003	3.9665782E-001	-2.7035559E+002
3	0	1.925352780892426E+003	3.9664662E-001	-2.7036972E+002
3	0	1.925852780879795E+003	3.9659142E-001	-2.7039447E+002
3	0	1.926352780867164E+003	3.9646351E-001	-2.7038031E+002
3	0	1.926852780854533E+003	3.9629245E-001	-2.7038385E+002
3	0	1.927352780841902E+003	3.9598146E-001	-2.7040506E+002
3	0	1.927852780829271E+003	3.9554420E-001	-2.7037326E+002
3	0	1.928352780816640E+003	3.9531541E-001	-2.7035913E+002
3	0	1.928852780804009E+003	3.9527547E-001	-2.7037677E+002
3	0	1.929352780791378E+003	3.9512256E-001	-2.7035913E+002
3	0	1.929852780778747E+003	3.9496991E-001	-2.7039801E+002
3	0	1.930352780766116E+003	3.9472038E-001	-2.7035913E+002
3	0	1.930852780753485E+003	3.9443201E-001	-2.7038385E+002
3	0	1.931352780740854E+003	3.9401126E-001	-2.7038031E+002
3	0	1.931852780728223E+003	3.9353269E-001	-2.7038031E+002
3	0	1.932352780715592E+003	3.9322674E-001	-2.7039447E+002
3	0	1.932852780702960E+003	3.9315763E-001	-2.7036267E+002
3	0	1.933352780690329E+003	3.9298728E-001	-2.7037326E+002
3	0	1.933852780677698E+003	3.9281204E-001	-2.7036267E+002
3	0	1.934352780665067E+003	3.9258054E-001	-2.7035559E+002
3	0	1.934852780652436E+003	3.9234579E-001	-2.7039093E+002
3	0	1.935352780639805E+003	3.9197612E-001	-2.7037326E+002
3	0	1.935852780627174E+003	3.9149106E-001	-2.7038742E+002
3	0	1.936352780614543E+003	3.9119208E-001	-2.7037677E+002
3	0	1.936852780601912E+003	3.9106998E-001	-2.7038385E+002
3	0	1.937352780589281E+003	3.9083877E-001	-2.7036267E+002
3	0	1.937852780576650E+003	3.9063802E-001	-2.7037677E+002
3	0	1.938352780564019E+003	3.9037862E-001	-2.7038031E+002
3	0	1.938852780551388E+003	3.9013773E-001	-2.7037326E+002
3	0	1.939352780538757E+003	3.8984227E-001	-2.7039447E+002
3	0	1.939852780526126E+003	3.8949686E-001	-2.7036618E+002
3	0	1.940352780513495E+003	3.8940006E-001	-2.7038031E+002
3	0	1.940852780500863E+003	3.8959119E-001	-2.7038031E+002
3	0	1.941352780488232E+003	3.8976562E-001	-2.7039093E+002
3	0	1.941852780475601E+003	3.8995826E-001	-2.7036972E+002
3	0	1.942352780462970E+003	3.9008844E-001	-2.7037326E+002
3	0	1.942852780450339E+003	3.9012975E-001	-2.7036267E+002
3	0	1.943352780437708E+003	3.9003691E-001	-2.7037677E+002
3	0	1.943852780425077E+003	3.8979846E-001	-2.7038742E+002
3	0	1.944352780412446E+003	3.8970211E-001	-2.7037326E+002
3	0	1.944852780399815E+003	3.8977718E-001	-2.7035205E+002
3	0	1.945352780387184E+003	3.8975367E-001	-2.7037677E+002
3	0	1.945852780374553E+003	3.8969225E-001	-2.7039801E+002
3	0	1.946352780361922E+003	3.8957432E-001	-2.7037677E+002
3	0	1.946852780349291E+003	3.8936737E-001	-2.7037677E+002
3	0	1.947352780336660E+003	3.8901609E-001	-2.7035913E+002
3	0	1.947852780324029E+003	3.8860023E-001	-2.7037677E+002
3	0	1.948352780311398E+003	3.8836285E-001	-2.7037326E+002
3	0	1.948852780298766E+003	3.8830203E-001	-2.7038031E+002
3	0	1.949352780286135E+003	3.8814095E-001	-2.7038742E+002
3	0	1.949852780273504E+003	3.8795573E-001	-2.7035913E+002
3	0	1.950352780260873E+003	3.8773042E-001	-2.7036972E+002
3	0	1.950852780248242E+003	3.8745493E-001	-2.7038031E+002
3	0	1.951352780235611E+003	3.8708666E-001	-2.7038385E+002
3	0	1.951852780222980E+003	3.8665035E-001	-2.7037677E+002
3	0	1.952352780210349E+003	3.8636449E-001	-2.7039447E+002
3	0	1.952852780197718E+003	3.8625881E-001	-2.7040860E+002
3	0	1.953352780185087E+003	3.8605833E-001	-2.7037677E+002
3	0	1.953852780172456E+003	3.8585171E-001	-2.7038385E+002
3	0	1.954352780159825E+003	3.8559633E-001	-2.7036972E+002
3	0	1.954852780147194E+003	3.8529417E-001	-2.7035559E+002
3	0	1.955352780134563E+003	3.8491556E-001	-2.7039447E+002
3	0	1.955852780121932E+003	3.8445345E-001	-2.7038385E+002
3	0	1.956352780109301E+003	3.8413897E-001	-2.7038385E+002
3	0	1.956852780096669E+003	3.8401768E-001	-2.7040155E+002
3	0	1.957352780084038E+003	3.8381979E-001	-2.7037677E+002
3	0	1.957852780071407E+003	3.8361546E-001	-2.7038742E+002
3	0	1.958352780058776E+003	3.8333535E-001	-2.7038031E+002
3	0	1.958852780046145E+003	3.8292322E-001	-2.7039093E+002
3	0	1.959352780033514E+003	3.8278064E-001	-2.7038031E+002
3	0	1.959852780020883E+003	3.8262621E-001	-2.7036618E+002
3	0	1.960352780008252E+003	3.8259259E-001	-2.7036618E+002
3	0	1.960852779995621E+003	3.8279212E-001	-2.7038742E+002
3	0	1.961352779982990E+003	3.8291001E-001	-2.7039801E+002
3	0	1.961852779970359E+003	3.8301846E-001	-2.7036618E+002
3	0	1.962352779957728E+003	3.8313231E-001	-2.7039801E+002
3	0	1.962852779945097E+003	3.8317227E-001	-2.7039447E+002
3	0	1.963352779932466E+003	3.8305184E-001	-2.7038385E+002
3	0	1.963852779919835E+003	3.8279426E-001	-2.7037677E+002
3	0	1.964352779907204E+003	3.8269529E-001	-2.7038742E+002
3	0	1.964852779894572E+003	3.8279802E-001	-2.7038385E+002
3	0	1.965352779881941E+003	3.8282123E-001	-2.7038742E+002
3	0	1.965852779869310E+003	3.8274482E-001	-2.7036972E+002
3	0	1.966352779856679E+003	3.8261023E-001	-2.7036972E+002
3	0	1.966852779844048E+003	3.8241583E-001	-2.7038031E+002
3	0	1.967352779831417E+003	3.8211572E-001	-2.7036618E+002
3	0	1.967852779818786E+003	3.8170210E-001	-2.7036267E+002
3	0	1.968352779806155E+003	3.8147047E-001	-2.7038742E+002
3	0	1.968852779793524E+003	3.8148007E-001	-2.7037677E+002
3	0	1.969352779780893E+003	3.8142636E-001	-2.7039093E+002
3	0	1.969852779768262E+003	3.8124520E-001	-2.7035913E+002
3	0	1.970352779755631E+003	3.8104755E-001	-2.7039447E+002
3	0	1.970852779743000E+003	3.8081947E-001	-2.7035913E+002
3	0	1.971352779730369E+003	3.8041952E-001	-2.7038385E+002
3	0	1.971852779717738E+003	3.7992853E-001	-2.7036972E+002
3	0	1.972352779705107E+003	3.7963733E-001	-2.7036618E+002
3	0	1.972852779692475E+003	3.7958500E-001	-2.7038385E+002
3	0	1.973352779679844E+003	3.7946483E-001	-2.7036972E+002
3	0	1.973852779667213E+003	3.7922877E-001	-2.7036267E+002
3	0	1.974352779654582E+003	3.7898266E-001	-2.7038031E+002
3	0	1.974852779641951E+003	3.7870002E-001	-2.7038385E+002
3	0	1.975352779629320E+003	3.7831464E-001	-2.7037677E+002
3	0	1.975852779616689E+003	3.7784189E-001	-2.7039093E+002
3	0	1.976352779604058E+003	3.7750301E-001	-2.7037677E+002
3	0	1.976852779591427E+003	3.7740913E-001	-2.7036618E+002
3	0	1.977352779578796E+003	3.7727726E-001	-2.7038031E+002
3	0	1.977852779566165E+003	3.7707892E-001	-2.7037677E+002
3	0	1.978352779553534E+003	3.7687042E-001	-2.7038031E+002
3	0	1.978852779540903E+003	3.7662983E-001	-2.7040506E+002
3	0	1.979352779528272E+003	3.7636316E-001	-2.7039801E+002
3	0	1.979852779515641E+003	3.7603822E-001	-2.7038742E+002
3	0	1.980352779503010E+003	3.7587172E-001	-2.7036267E+002
3	0	1.980852779490378E+003	3.7593848E-001	-2.7038031E+002
3	0	1.981352779477747E+003	3.7595639E-001	-2.7036267E+002
3	0	1.981852779465116E+003	3.7588578E-001	-2.7039447E+002
3	0	1.982352779452485E+003	3.7578475E-001	-2.7040155E+002
3	0	1.982852779439854E+003	3.7563232E-001	-2.7034497E+002
3	0	1.983352779427223E+003	3.7539208E-001	-2.7035559E+002
3	0	1.983852779414592E+003	3.7500998E-001	-2.7037326E+002
3	0	1.984352779401961E+003	3.7476397E-001	-2.7040860E+002
3	0	1.984852779389330E+003	3.7474099E-001	-2.7039093E+002
3	0	1.985352779376699E+003	3.7468374E-001	-2.7034143E+002
3	0	1.985852779364068E+003	3.7453708E-001	-2.7038742E+002
3	0	1.986352779351437E+003	3.7435228E-001	-2.7039093E+002
3	0	1.986852779338806E+003	3.7415892E-001	-2.7036267E+002
3	0	1.987352779326175E+003	3.7384018E-001	-2.7038031E+002
3	0	1.987852779313544E+003	3.7338614E-001	-2.7036618E+002
3	0	1.988352779300913E+003	3.7309611E-001	-2.7038385E+002
3	0	1.988852779288281E+003	3.7303892E-001	-2.7036267E+002
3	0	1.989352779275650E+003	3.7296125E-001	-2.7038031E+002
3	0	1.989852779263019E+003	3.7282547E-001	-2.7038742E+002
3	0	1.990352779250388E+003	3.7265199E-001	-2.7036972E+002
3	0	1.990852779237757E+003	3.7241191E-001	-2.7037677E+002
3	0	1.991352779225126E+003	3.7209433E-001	-2.7035205E+002
3	0	1.991852779212495E+003	3.7167943E-001	-2.7038742E+002
3	0	1.992352779199864E+003	3.7136555E-001	-2.7038031E+002
3	0	1.992852779187233E+003	3.7129512E-001	-2.7039447E+002
3	0	1.993352779174602E+003	3.7121257E-001	-2.7034851E+002
3	0	1.993852779161971E+003	3.7105301E-001	-2.7039447E+002
3	0	1.994352779149340E+003	3.7085885E-001	-2.7037677E+002
3	0	1.994852779136709E+003	3.7062576E-001	-2.7035913E+002
3	0	1.995352779124078E+003	3.7032330E-001	-2.7039801E+002
3	0	1.995852779111447E+003	3.6999744E-001	-2.7038742E+002
3	0	1.996352779098816E+003	3.6980224E-001	-2.7035913E+002
3	0	1.996852779086184E+003	3.6975726E-001	-2.7039093E+002
3	0	1.997352779073553E+003	3.6968529E-001	-2.7036618E+002
3	0	1.997852779060922E+003	3.6957538E-001	-2.7038385E+002
3	0	1.998352779048291E+003	3.6944899E-001	-2.7039093E+002
3	0	1.998852779035660E+003	3.6930794E-001	-2.7035913E+002
3	0	1.999352779023029E+003	3.6907181E-001	-2.7037677E+002
3	0	1.999852779010398E+003	3.6873183E-001	-2.7036972E+002
3	0	2.000352778997767E+003	3.6856019E-001	-2.7036972E+002
3	0	2.000852778985136E+003	3.6866045E-001	-2.7038742E+002
3	0	2.001352778972505E+003	3.6880249E-001	-2.7037677E+002
3	0	2.001852778959874E+003	3.6889911E-001	-2.7036618E+002
3	0	2.002352778947243E+003	3.6905041E-001	-2.7041568E+002
3	0	2.002852778934612E+003	3.6918655E-001	-2.7038742E+002
3	0	2.003352778921981E+003	3.6923021E-001	-2.7037326E+002
3	0	2.003852778909350E+003	3.6917174E-001	-2.7038031E+002
3	0	2.004352778896719E+003	3.6919406E-001	-2.7037326E+002
3	0	2.004852778884087E+003	3.6938870E-001	-2.7038031E+002
3	0	2.005352778871456E+003	3.6952564E-001	-2.7035559E+002
3	0	2.005852778858825E+003	3.6955696E-001	-2.7039093E+002
3	0	2.006352778846194E+003	3.6953822E-001	-2.7037677E+002
3	0	2.006852778833563E+003	3.6945751E-001	-2.7036972E+002
3	0	2.007352778820932E+003	3.6925867E-001	-2.7039447E+002
3	0	2.007852778808301E+003	3.6892775E-001	-2.7039093E+002
3	0	2.008352778795670E+003	3.6871156E-001	-2.7039093E+002
3	0	2.008852778783039E+003	3.6869588E-001	-2.7035559E+002
3	0	2.009352778770408E+003	3.6865038E-001	-2.7035559E+002
3	0	2.009852778757777E+003	3.6851317E-001	-2.7039093E+002
3	0	2.010352778745146E+003	3.6833453E-001	-2.7036618E+002
3	0	2.010852778732515E+003	3.6813399E-001	-2.7035913E+002
3	0	2.011352778719884E+003	3.6782882E-001	-2.7036972E+002
3	0	2.011852778707253E+003	3.6740491E-001	-2.7036618E+002
3	0	2.012352778694622E+003	3.6710665E-001	-2.7039093E+002
3	0	2.012852778681990E+003	3.6702797E-001	-2.7036267E+002
3	0	2.013352778669359E+003	3.6691946E-001	-2.7039447E+002
3	0	2.013852778656728E+003	3.6674309E-001	-2.7035913E+002
3	0	2.014352778644097E+003	3.6653888E-001	-2.7038385E+002
3	0	2.014852778631466E+003	3.6630380E-001	-2.7037326E+002
3	0	2.015352778618835E+003	3.6597112E-001	-2.7037326E+002
3	0	2.015852778606204E+003	3.6553302E-001	-2.7038742E+002
3	0	2.016352778593573E+003	3.6520457E-001	-2.7038031E+002
3	0	2.016852778580942E+003	3.6509675E-001	-2.7037326E+002
3	0	2.017352778568311E+003	3.6500409E-001	-2.7041919E+002
3	0	2.017852778555680E+003	3.6482248E-001	-2.7040506E+002
3	0	2.018352778543049E+003	3.6460501E-001	-2.7035205E+002
3	0	2.018852778530418E+003	3.6439148E-001	-2.7036618E+002
3	0	2.019352778517787E+003	3.6408257E-001	-2.7036267E+002
3	0	2.019852778505156E+003	3.6370453E-001	-2.7037326E+002
3	0	2.020352778492525E+003	3.6350703E-001	-2.7036618E+002
3	0	2.020852778479893E+003	3.6356565E-001	-2.7037326E+002
3	0	2.021352778467262E+003	3.6366144E-001	-2.7036267E+002
3	0	2.021852778454631E+003	3.6372599E-001	-2.7038385E+002
3	0	2.022352778442000E+003	3.6384079E-001	-2.7037677E+002
3	0	2.022852778429369E+003	3.6397210E-001	-2.7039093E+002
3	0	2.023352778416738E+003	3.6401448E-001	-2.7035913E+002
3	0	2.023852778404107E+003	3.6391962E-001	-2.7038031E+002
3	0	2.024352778391476E+003	3.6389446E-001	-2.7038742E+002
3	0	2.024852778378845E+003	3.6404535E-001	-2.7037677E+002
3	0	2.025352778366214E+003	3.6415160E-001	-2.7038385E+002
3	0	2.025852778353583E+003	3.6412245E-001	-2.7037677E+002
3	0	2.025876378352987E+003	3.6408025E-001	-2.7037326E+002