EC-Lab ASCII FILE
Nb header lines : 48                          

Open Circuit Voltage

Run on channel : 1 (SN 81504)
User : 
CE vs. WE compliance from -10 V to 10 V
Electrode connection : standard
Potential control : Ewe
Ewe ctrl range : min = -2.50 V, max = 2.50 V
Safety Limits :
	Do not start on E overload
Acquisition started on : 05/10/2026 03:53:31.165
Loaded Setting File :  C:\PEM-WE_measurements\2026\372_IV_IV IrOx, 5 min Pt, 30 min C, etched cathode\new station\Loopeis new\1,46 V different time gaps closed cell\Loopeis 1,46V_90s_2_PEIS from 65kHz to 10kHz.mps
Saved on :
	File : L_17_Loopeis 1,46V_90s_2_PEIS from 65kHz to 10kHz_14_OCV_C01.mpr
	Directory : C:\PEM-WE_measurements\2026\372_IV_IV IrOx, 5 min Pt, 30 min C, etched cathode\new station\Loopeis new\1,46 V different time gaps closed cell\
	Host : 192.168.0.2
Device : SP-150e (SN .005491)
Address : 192.168.0.91
EC-LAB for windows v11.71 (software)
Internet server v28.00 (firmware)
Command interpretor v14.01 (firmware)
Electrode material : 
Initial state : 
Electrolyte : 
Comments : 
Current amplifier : SP-150eB-20A
Electrode surface area : 0.001 cm²
Characteristic mass : 0.001 g
Equivalent Weight : 0.000 g/eq.
Density : 0.000 g/cm3
Volume (V) : 0.001 cm³
Record Analogic IN 1
Text export
   Mode : Standard
   Time format : Elapsed
Cycle Definition : Charge/Discharge alternance
tR (h:m:s)          0:01:30.0000        
dER/dt (mV/h)       1.0                 
record              <Ewe>               
dER (mV)            10.00               
dtR (s)             0.5000              
E range min (V)     -2.500              
E range max (V)     2.500               

mode	error	time/s	<Ewe/V>	Analog IN 1/V	
3	0	8.556711882185482E+002	1.2831120E+000	2.2950437E-005
3	0	8.561711882059171E+002	1.2897906E+000	-9.1562819E-005
3	0	8.566711881932861E+002	1.2910486E+000	-7.2477276E-005
3	0	8.571711881806550E+002	1.2909863E+000	3.8648941E-006
3	0	8.576711881680239E+002	1.2902137E+000	1.3746369E-004
3	0	8.581711881553929E+002	1.2889218E+000	9.9292607E-005
3	0	8.586711881427618E+002	1.2872434E+000	-1.5220648E-005
3	0	8.591711881301308E+002	1.2852604E+000	-1.6790499E-004
3	0	8.596711881174997E+002	1.2828237E+000	6.1121522E-005
3	0	8.601711881048686E+002	1.2797287E+000	1.1837815E-004
3	0	8.606711880922376E+002	1.2755275E+000	-1.6790499E-004
3	0	8.611711880796065E+002	1.2695563E+000	1.3746369E-004
3	0	8.616711880669754E+002	1.2608476E+000	6.1121522E-005
3	0	8.621711880543444E+002	1.2482649E+000	-7.2477276E-005
3	0	8.626711880417133E+002	1.2306036E+000	-1.6790499E-004
3	0	8.631711880290823E+002	1.2057768E+000	-7.2477276E-005
3	0	8.636711880164512E+002	1.1699396E+000	3.8648941E-006
3	0	8.641711880038201E+002	1.1173078E+000	-1.2973390E-004
3	0	8.646711879911891E+002	1.0411707E+000	-1.6790499E-004
3	0	8.651711879785580E+002	9.3851018E-001	-1.4881945E-004
3	0	8.656711879659269E+002	8.2396597E-001	-3.4306191E-005
3	0	8.661711879532959E+002	7.3374283E-001	-7.2477276E-005
3	0	8.666711879406648E+002	6.9203973E-001	8.0207064E-005
3	0	8.671711879280338E+002	6.7946565E-001	-1.2973390E-004
3	0	8.676711879154027E+002	6.7358565E-001	-5.3391734E-005
3	0	8.681711879027716E+002	6.7017013E-001	-1.5220648E-005
3	0	8.686711878901406E+002	6.6807908E-001	-1.1064836E-004
3	0	8.691711878775095E+002	6.6691440E-001	-7.2477276E-005
3	0	8.696711878648784E+002	6.6554713E-001	-7.2477276E-005
3	0	8.701711878522474E+002	6.6407984E-001	-1.1064836E-004
3	0	8.706711878396163E+002	6.6350985E-001	-9.1562819E-005
3	0	8.711711878269853E+002	6.6501993E-001	-7.2477276E-005
3	0	8.716711878143542E+002	6.6686368E-001	-1.1064836E-004
3	0	8.721711878017231E+002	6.6800225E-001	-7.2477276E-005
3	0	8.726711877890921E+002	6.6860861E-001	-1.1064836E-004
3	0	8.731711877764610E+002	6.6897005E-001	4.2035979E-005
3	0	8.736711877638299E+002	6.6922158E-001	-3.4306191E-005
3	0	8.741711877511989E+002	6.6935015E-001	-1.2973390E-004
3	0	8.746711877385678E+002	6.7124075E-001	6.1121522E-005
3	0	8.751711877259368E+002	6.7620122E-001	2.2950437E-005
3	0	8.756711877133057E+002	6.8269628E-001	2.2950437E-005
3	0	8.761711877006746E+002	6.8995476E-001	-1.2973390E-004
3	0	8.766711876880436E+002	6.9776964E-001	-7.2477276E-005
3	0	8.771711876754125E+002	7.0610631E-001	3.8648941E-006
3	0	8.776711876627814E+002	7.1467400E-001	2.2950437E-005
3	0	8.781711876501504E+002	7.2321731E-001	-3.4306191E-005
3	0	8.786711876375193E+002	7.3302156E-001	4.2035979E-005
3	0	8.791711876248883E+002	7.4536836E-001	-1.1064836E-004
3	0	8.796711876122572E+002	7.5873476E-001	2.2950437E-005
3	0	8.801711875996261E+002	7.7170295E-001	-5.3391734E-005
3	0	8.806711875869951E+002	7.8355026E-001	-3.4306191E-005
3	0	8.811711875743640E+002	7.9386008E-001	-2.0607607E-004
3	0	8.816711875617330E+002	8.0257070E-001	-9.1562819E-005
3	0	8.821711875491019E+002	8.0981559E-001	9.9292607E-005
3	0	8.826711875364708E+002	8.1663620E-001	8.0207064E-005
3	0	8.831711875238398E+002	8.2411236E-001	-9.1562819E-005
3	0	8.836711875112087E+002	8.3143884E-001	-1.6790499E-004
3	0	8.841711874985776E+002	8.3758938E-001	-1.4881945E-004
3	0	8.846711874859466E+002	8.4202731E-001	-1.5220648E-005
3	0	8.851711874733155E+002	8.4462124E-001	-1.4881945E-004
3	0	8.856711874606845E+002	8.4523219E-001	-1.5220648E-005
3	0	8.861711874480534E+002	8.4426177E-001	-5.3391734E-005
3	0	8.866711874354223E+002	8.4301823E-001	3.8648941E-006
3	0	8.871711874227913E+002	8.4240729E-001	-1.8699054E-004
3	0	8.876711874101602E+002	8.4176421E-001	-1.1064836E-004
3	0	8.881711873975291E+002	8.4021246E-001	8.0207064E-005
3	0	8.886711873848981E+002	8.3737320E-001	2.2950437E-005
3	0	8.891711873722670E+002	8.3325881E-001	-1.5220648E-005
3	0	8.896711873596360E+002	8.2779026E-001	-3.4306191E-005
3	0	8.901711873470049E+002	8.2126731E-001	-1.4881945E-004
3	0	8.906711873343738E+002	8.1478935E-001	-1.4881945E-004
3	0	8.911711873217428E+002	8.0940938E-001	-7.2477276E-005
3	0	8.916711873091117E+002	8.0459118E-001	-1.1064836E-004
3	0	8.921711872964806E+002	7.9944319E-001	-7.2477276E-005
3	0	8.926711872838496E+002	7.9351008E-001	-1.5220648E-005
3	0	8.931711872712185E+002	7.8693634E-001	-5.3391734E-005
3	0	8.936711872585875E+002	7.8002805E-001	-7.2477276E-005
3	0	8.941711872459564E+002	7.7354074E-001	-1.4881945E-004
3	0	8.946711872333253E+002	7.6898038E-001	-9.1562819E-005
3	0	8.951711872206943E+002	7.6769727E-001	-3.4306191E-005
3	0	8.956711872080632E+002	7.6934969E-001	-7.2477276E-005
3	0	8.961711871954321E+002	7.7311409E-001	8.0207064E-005
3	0	8.966711871828011E+002	7.7844465E-001	-3.4306191E-005
3	0	8.971711871701700E+002	7.8485221E-001	3.8648941E-006
3	0	8.976711871575390E+002	7.9178625E-001	-1.5220648E-005
3	0	8.981711871449079E+002	7.9905951E-001	-1.4881945E-004
3	0	8.986711871322768E+002	8.0717081E-001	-3.4306191E-005
3	0	8.991711871196458E+002	8.1647772E-001	-1.6790499E-004
3	0	8.996711871070147E+002	8.2607204E-001	4.2035979E-005
3	0	9.001711870943836E+002	8.3500171E-001	-3.4306191E-005
3	0	9.006711870817526E+002	8.4280759E-001	-1.5220648E-005
3	0	9.011711870691215E+002	8.4926236E-001	4.2035979E-005
3	0	9.016711870564905E+002	8.5426283E-001	-9.1562819E-005
3	0	9.021711870438594E+002	8.5810238E-001	-1.2973390E-004
3	0	9.026711870312283E+002	8.6160356E-001	2.2950437E-005
3	0	9.031711870185973E+002	8.6522037E-001	4.2035979E-005
3	0	9.036711870059662E+002	8.6837339E-001	2.2950437E-005
3	0	9.041711869933351E+002	8.7050062E-001	-1.5220648E-005
3	0	9.046711869807041E+002	8.7137258E-001	3.8648941E-006
3	0	9.051711869680730E+002	8.7087631E-001	-1.5220648E-005
3	0	9.056711869554420E+002	8.6898881E-001	-1.4881945E-004
3	0	9.061711869428109E+002	8.6602014E-001	-7.2477276E-005
3	0	9.066711869301798E+002	8.6269516E-001	-1.5220648E-005
3	0	9.071711869175488E+002	8.5954183E-001	4.2035979E-005
3	0	9.076711869049177E+002	8.5607195E-001	-5.3391734E-005
3	0	9.081711868922866E+002	8.5172808E-001	8.0207064E-005
3	0	9.086711868796556E+002	8.4628463E-001	-9.1562819E-005
3	0	9.091711868670245E+002	8.3961040E-001	-9.1562819E-005
3	0	9.096711868543935E+002	8.3167917E-001	-7.2477276E-005
3	0	9.101711868417624E+002	8.2277632E-001	-3.4306191E-005
3	0	9.106711868291313E+002	8.1378353E-001	2.2950437E-005
3	0	9.111711868165003E+002	8.0540305E-001	-9.1562819E-005
3	0	9.116711868038692E+002	7.9719239E-001	3.8648941E-006
3	0	9.121711867912381E+002	7.8854769E-001	9.9292607E-005
3	0	9.126711867786071E+002	7.7927381E-001	-1.1064836E-004
3	0	9.131711867659760E+002	7.6939422E-001	-7.2477276E-005
3	0	9.136711867533450E+002	7.5913554E-001	-7.2477276E-005
3	0	9.141711867407139E+002	7.4911803E-001	-5.3391734E-005
3	0	9.146711867280828E+002	7.4086797E-001	2.2950437E-005
3	0	9.151711867154518E+002	7.3574013E-001	2.2950437E-005
3	0	9.156711867028207E+002	7.3337346E-001	3.8648941E-006
3	0	9.161711866901896E+002	7.3316580E-001	-5.3391734E-005
3	0	9.166711866775586E+002	7.3483145E-001	-1.1064836E-004
3	0	9.171711866649275E+002	7.3801142E-001	2.2950437E-005
3	0	9.176711866522965E+002	7.4210209E-001	2.2950437E-005
3	0	9.181711866396654E+002	7.4684495E-001	4.2035979E-005
3	0	9.186711866270343E+002	7.5265652E-001	-9.1562819E-005
3	0	9.191711866144033E+002	7.5992453E-001	-5.3391734E-005
3	0	9.196711866017722E+002	7.6773322E-001	-9.1562819E-005
3	0	9.201711865891411E+002	7.7514255E-001	-3.4306191E-005
3	0	9.206711865765101E+002	7.8163779E-001	-3.4306191E-005
3	0	9.211711865638790E+002	7.8684109E-001	-1.4881945E-004
3	0	9.216711865512480E+002	7.9035330E-001	6.1121522E-005
3	0	9.221711865386169E+002	7.9234099E-001	-1.5220648E-005
3	0	9.226711865259858E+002	7.9365230E-001	-3.4306191E-005
3	0	9.231711865133548E+002	7.9493755E-001	-1.5220648E-005
3	0	9.236711865007237E+002	7.9574448E-001	-1.1064836E-004
3	0	9.241711864880926E+002	7.9549539E-001	-1.1064836E-004
3	0	9.246711864754616E+002	7.9396099E-001	4.2035979E-005
3	0	9.251711864628305E+002	7.9101390E-001	-1.6790499E-004
3	0	9.256711864501995E+002	7.8656536E-001	3.8648941E-006
3	0	9.261711864375684E+002	7.8078240E-001	8.0207064E-005
3	0	9.266711864249373E+002	7.7450305E-001	9.9292607E-005
3	0	9.271711864123063E+002	7.6850164E-001	-3.4306191E-005
3	0	9.276711863996752E+002	7.6234645E-001	-2.0607607E-004
3	0	9.281711863870441E+002	7.5553894E-001	-7.2477276E-005
3	0	9.286711863744131E+002	7.4795151E-001	-1.5220648E-005
3	0	9.291711863617820E+002	7.3957521E-001	-7.2477276E-005
3	0	9.296711863491510E+002	7.3029554E-001	-5.3391734E-005
3	0	9.301711863365199E+002	7.2030330E-001	2.2950437E-005
3	0	9.306711863238888E+002	7.1061563E-001	-3.4306191E-005
3	0	9.311711863112578E+002	7.0241535E-001	2.2950437E-005
3	0	9.316711862986267E+002	6.9508338E-001	-5.3391734E-005
3	0	9.321711862859956E+002	6.8788958E-001	4.2035979E-005
3	0	9.326711862733646E+002	6.8062508E-001	-7.2477276E-005
3	0	9.331711862607335E+002	6.7337269E-001	-3.4306191E-005
3	0	9.336711862481025E+002	6.6612345E-001	-1.1064836E-004
3	0	9.341711862354714E+002	6.5933657E-001	-1.2973390E-004
3	0	9.346711862228403E+002	6.5437025E-001	-3.4306191E-005
3	0	9.351711862102093E+002	6.5240431E-001	-3.4306191E-005
3	0	9.356711861975782E+002	6.5262043E-001	3.8648941E-006
3	0	9.361711861849471E+002	6.5429115E-001	-9.1562819E-005
3	0	9.366711861723161E+002	6.5726829E-001	2.2950437E-005
3	0	9.371711861596850E+002	6.6132331E-001	-1.5220648E-005
3	0	9.376711861470540E+002	6.6567111E-001	-1.2973390E-004
3	0	9.381711861344229E+002	6.7012686E-001	-3.4306191E-005
3	0	9.386711861217918E+002	6.7527395E-001	-1.5220648E-005
3	0	9.391711861091608E+002	6.8186271E-001	6.1121522E-005
3	0	9.396711860965297E+002	6.8883401E-001	-1.2973390E-004
3	0	9.401711860838986E+002	6.9535881E-001	6.1121522E-005
3	0	9.406711860712676E+002	7.0106304E-001	-3.0150381E-004
3	0	9.411711860586365E+002	7.0550370E-001	2.2950437E-005
3	0	9.416711860460055E+002	7.0826942E-001	-1.5220648E-005
3	0	9.421711860333744E+002	7.0937270E-001	2.2950437E-005
3	0	9.426711860207433E+002	7.0969200E-001	4.2035979E-005
3	0	9.431711860081123E+002	7.1040833E-001	-9.1562819E-005
3	0	9.436711859954812E+002	7.1083790E-001	8.0207064E-005
3	0	9.441711859828501E+002	7.1024972E-001	-5.3391734E-005
3	0	9.446711859702191E+002	7.0827264E-001	-3.4306191E-005
3	0	9.451711859575880E+002	7.0485675E-001	-5.3391734E-005
3	0	9.451715859575779E+002	7.0255738E-001	-1.2973390E-004