EC-Lab ASCII FILE
Nb header lines : 55                          

Open Circuit Voltage

Run on channel : 1 (SN 81504)
User : 
CE vs. WE compliance from -10 V to 10 V
Electrode connection : standard
Potential control : Ewe
Ewe ctrl range : min = -2.50 V, max = 2.50 V
Safety Limits :
	Do not start on E overload
Acquisition started on : 05/07/2026 19:49:57.838
Loaded Setting File :  C:\PEM-WE_measurements\2026\372_IV_IV IrOx, 5 min Pt, 30 min C, etched cathode\new station\Loopeis new\1,46 V different time gaps open cell\Loopeis 1,46V_90s_5_PEIS from 65Hz to 10Hz.mps
Saved on :
	File : L_20_Loopeis 1,46V_90s_5_PEIS from 65Hz to 10Hz_06_OCV_C01.mpr
	Directory : C:\PEM-WE_measurements\2026\372_IV_IV IrOx, 5 min Pt, 30 min C, etched cathode\new station\Loopeis new\1,46 V different time gaps open cell\
	Host : 192.168.0.2
Device : SP-150e (SN .005491)
Address : 192.168.0.91
EC-LAB for windows v11.71 (software)
Internet server v28.00 (firmware)
Command interpretor v14.01 (firmware)
Electrode material : 
Initial state : 
Electrolyte : 
Comments : 
Current amplifier : SP-150eB-20A
Electrode surface area : 0.001 cm²
Characteristic mass : 0.001 g
Equivalent Weight : 0.000 g/eq.
Density : 0.000 g/cm3
Volume (V) : 0.001 cm³
Record Analogic IN 1
Text export
   Mode : Standard
   Time format : Elapsed
Cycle Definition : Charge/Discharge alternance
External device configuration :
   device type : Temperature Probe
   device name : Other
   Analog IN 1 : 
      unit : T/Â°C
      max : 100.000 at 2.000 V
      min : 0.000 at 1.460 V
tR (h:m:s)          0:01:30.0000        
dER/dt (mV/h)       1.0                 
record              <Ewe>               
dER (mV)            10.00               
dtR (s)             0.5000              
E range min (V)     -2.500              
E range max (V)     2.500               

mode	error	time/s	<Ewe/V>	Analog IN 1/V	
3	0	7.566706162583432E+002	1.2618390E+000	-2.7040155E+002
3	0	7.571706162457122E+002	1.2425187E+000	-2.7038742E+002
3	0	7.576706162330811E+002	1.1608495E+000	-2.7035205E+002
3	0	7.581706162204500E+002	9.0824509E-001	-2.7038385E+002
3	0	7.586706162078190E+002	4.6231765E-001	-2.7036972E+002
3	0	7.591706161951879E+002	3.4086096E-001	-2.7038385E+002
3	0	7.596706161825568E+002	3.2580277E-001	-2.7037677E+002
3	0	7.601706161699258E+002	3.1761456E-001	-2.7038031E+002
3	0	7.606706161572947E+002	3.1098872E-001	-2.7036972E+002
3	0	7.611706161446637E+002	3.0591512E-001	-2.7037326E+002
3	0	7.616706161320326E+002	3.0204231E-001	-2.7037326E+002
3	0	7.621706161194015E+002	2.9904228E-001	-2.7036618E+002
3	0	7.626706161067705E+002	2.9667112E-001	-2.7038031E+002
3	0	7.631706160941394E+002	2.9473710E-001	-2.7040506E+002
3	0	7.636706160815083E+002	2.9312259E-001	-2.7039093E+002
3	0	7.641706160688773E+002	2.9172945E-001	-2.7037677E+002
3	0	7.646706160562462E+002	2.9050863E-001	-2.7039093E+002
3	0	7.651706160436152E+002	2.8940320E-001	-2.7037326E+002
3	0	7.656706160309841E+002	2.8838921E-001	-2.7038031E+002
3	0	7.661706160183530E+002	2.8746608E-001	-2.7037326E+002
3	0	7.666706160057220E+002	2.8663260E-001	-2.7037677E+002
3	0	7.671706159930909E+002	2.8585491E-001	-2.7035913E+002
3	0	7.676706159804598E+002	2.8511366E-001	-2.7038385E+002
3	0	7.681706159678288E+002	2.8441107E-001	-2.7035559E+002
3	0	7.686706159551977E+002	2.8373042E-001	-2.7037326E+002
3	0	7.691706159425667E+002	2.8305328E-001	-2.7038385E+002
3	0	7.696706159299356E+002	2.8238142E-001	-2.7038031E+002
3	0	7.701706159173045E+002	2.8174189E-001	-2.7039447E+002
3	0	7.706706159046735E+002	2.8113386E-001	-2.7035913E+002
3	0	7.711706158920424E+002	2.8055143E-001	-2.7038031E+002
3	0	7.716706158794113E+002	2.7997059E-001	-2.7036267E+002
3	0	7.721706158667803E+002	2.7940634E-001	-2.7040506E+002
3	0	7.726706158541492E+002	2.7884746E-001	-2.7036618E+002
3	0	7.731706158415182E+002	2.7828366E-001	-2.7039093E+002
3	0	7.736706158288871E+002	2.7769178E-001	-2.7038385E+002
3	0	7.741706158162560E+002	2.7713105E-001	-2.7036972E+002
3	0	7.746706158036250E+002	2.7660155E-001	-2.7038742E+002
3	0	7.751706157909939E+002	2.7607721E-001	-2.7038031E+002
3	0	7.756706157783628E+002	2.7556035E-001	-2.7039093E+002
3	0	7.761706157657318E+002	2.7504593E-001	-2.7037677E+002
3	0	7.766706157531007E+002	2.7454498E-001	-2.7036618E+002
3	0	7.771706157404697E+002	2.7401978E-001	-2.7039093E+002
3	0	7.776706157278386E+002	2.7348390E-001	-2.7035913E+002
3	0	7.781706157152075E+002	2.7295783E-001	-2.7038385E+002
3	0	7.786706157025765E+002	2.7247557E-001	-2.7038742E+002
3	0	7.791706156899454E+002	2.7199328E-001	-2.7038385E+002
3	0	7.796706156773143E+002	2.7150899E-001	-2.7036618E+002
3	0	7.801706156646833E+002	2.7102509E-001	-2.7039093E+002
3	0	7.806706156520522E+002	2.7055296E-001	-2.7039093E+002
3	0	7.811706156394212E+002	2.7005136E-001	-2.7038385E+002
3	0	7.816706156267901E+002	2.6955241E-001	-2.7039447E+002
3	0	7.821706156141590E+002	2.6907539E-001	-2.7037326E+002
3	0	7.826706156015280E+002	2.6861766E-001	-2.7037677E+002
3	0	7.831706155888969E+002	2.6816803E-001	-2.7038031E+002
3	0	7.836706155762658E+002	2.6772064E-001	-2.7037677E+002
3	0	7.841706155636348E+002	2.6728317E-001	-2.7035913E+002
3	0	7.846706155510037E+002	2.6684070E-001	-2.7037677E+002
3	0	7.851706155383727E+002	2.6638719E-001	-2.7039093E+002
3	0	7.856706155257416E+002	2.6591626E-001	-2.7037326E+002
3	0	7.861706155131105E+002	2.6546943E-001	-2.7037677E+002
3	0	7.866706155004795E+002	2.6504874E-001	-2.7036267E+002
3	0	7.871706154878484E+002	2.6463315E-001	-2.7037677E+002
3	0	7.876706154752173E+002	2.6421791E-001	-2.7037326E+002
3	0	7.881706154625863E+002	2.6380935E-001	-2.7040155E+002
3	0	7.886706154499552E+002	2.6340607E-001	-2.7039093E+002
3	0	7.891706154373242E+002	2.6298323E-001	-2.7039093E+002
3	0	7.896706154246931E+002	2.6254651E-001	-2.7038742E+002
3	0	7.901706154120620E+002	2.6213208E-001	-2.7037677E+002
3	0	7.906706153994310E+002	2.6175138E-001	-2.7038742E+002
3	0	7.911706153867999E+002	2.6136100E-001	-2.7036267E+002
3	0	7.916706153741688E+002	2.6097855E-001	-2.7039801E+002
3	0	7.921706153615378E+002	2.6059940E-001	-2.7038742E+002
3	0	7.926706153489067E+002	2.6022184E-001	-2.7040506E+002
3	0	7.931706153362757E+002	2.5983116E-001	-2.7040860E+002
3	0	7.936706153236446E+002	2.5942698E-001	-2.7037326E+002
3	0	7.941706153110135E+002	2.5905040E-001	-2.7038385E+002
3	0	7.946706152983825E+002	2.5869733E-001	-2.7036972E+002
3	0	7.951706152857514E+002	2.5833422E-001	-2.7039093E+002
3	0	7.956706152731203E+002	2.5798675E-001	-2.7039093E+002
3	0	7.961706152604893E+002	2.5763878E-001	-2.7036972E+002
3	0	7.966706152478582E+002	2.5729048E-001	-2.7038031E+002
3	0	7.971706152352272E+002	2.5692856E-001	-2.7037326E+002
3	0	7.976706152225961E+002	2.5655186E-001	-2.7038031E+002
3	0	7.981706152099650E+002	2.5620246E-001	-2.7034851E+002
3	0	7.986706151973340E+002	2.5587958E-001	-2.7040155E+002
3	0	7.991706151847029E+002	2.5555328E-001	-2.7038742E+002
3	0	7.996706151720718E+002	2.5522578E-001	-2.7041568E+002
3	0	8.001706151594408E+002	2.5490972E-001	-2.7036972E+002
3	0	8.006706151468097E+002	2.5458577E-001	-2.7037326E+002
3	0	8.011706151341787E+002	2.5425714E-001	-2.7038385E+002
3	0	8.016706151215476E+002	2.5390995E-001	-2.7035913E+002
3	0	8.021706151089165E+002	2.5358215E-001	-2.7038031E+002
3	0	8.026706150962855E+002	2.5328758E-001	-2.7038385E+002
3	0	8.031706150836544E+002	2.5298911E-001	-2.7037326E+002
3	0	8.036706150710233E+002	2.5269657E-001	-2.7038385E+002
3	0	8.041706150583923E+002	2.5240341E-001	-2.7038385E+002
3	0	8.046706150457612E+002	2.5211018E-001	-2.7038742E+002
3	0	8.051706150331302E+002	2.5179946E-001	-2.7038385E+002
3	0	8.056706150204991E+002	2.5147411E-001	-2.7035913E+002
3	0	8.061706150078680E+002	2.5117943E-001	-2.7037677E+002
3	0	8.066706149952370E+002	2.5090823E-001	-2.7038742E+002
3	0	8.071706149826059E+002	2.5063631E-001	-2.7038742E+002
3	0	8.076706149699748E+002	2.5036862E-001	-2.7037677E+002
3	0	8.081706149573438E+002	2.5010109E-001	-2.7037326E+002
3	0	8.086706149447127E+002	2.4983677E-001	-2.7037677E+002
3	0	8.091706149320817E+002	2.4955772E-001	-2.7038031E+002
3	0	8.096706149194506E+002	2.4926686E-001	-2.7036972E+002
3	0	8.101706149068195E+002	2.4899665E-001	-2.7038385E+002
3	0	8.106706148941885E+002	2.4875358E-001	-2.7037326E+002
3	0	8.111706148815574E+002	2.4850446E-001	-2.7039801E+002
3	0	8.116706148689264E+002	2.4825773E-001	-2.7039093E+002
3	0	8.121706148562953E+002	2.4801691E-001	-2.7038031E+002
3	0	8.126706148436642E+002	2.4777533E-001	-2.7034497E+002
3	0	8.131706148310332E+002	2.4751851E-001	-2.7040155E+002
3	0	8.136706148184021E+002	2.4724232E-001	-2.7038031E+002
3	0	8.141706148057710E+002	2.4699216E-001	-2.7038742E+002
3	0	8.146706147931400E+002	2.4677369E-001	-2.7040155E+002
3	0	8.151706147805089E+002	2.4655379E-001	-2.7036972E+002
3	0	8.156706147678779E+002	2.4633370E-001	-2.7036618E+002
3	0	8.161706147552468E+002	2.4610829E-001	-2.7036267E+002
3	0	8.166706147426157E+002	2.4586050E-001	-2.7038742E+002
3	0	8.171706147299847E+002	2.4563046E-001	-2.7037326E+002
3	0	8.176706147173536E+002	2.4539876E-001	-2.7036618E+002
3	0	8.181706147047225E+002	2.4518980E-001	-2.7040155E+002
3	0	8.186706146920915E+002	2.4499589E-001	-2.7038385E+002
3	0	8.191706146794604E+002	2.4479310E-001	-2.7037326E+002
3	0	8.196706146668294E+002	2.4458878E-001	-2.7037677E+002
3	0	8.201706146541983E+002	2.4438822E-001	-2.7037326E+002
3	0	8.206706146415672E+002	2.4418141E-001	-2.7037326E+002
3	0	8.211706146289362E+002	2.4395140E-001	-2.7036618E+002
3	0	8.216706146163051E+002	2.4371015E-001	-2.7037677E+002
3	0	8.221706146036740E+002	2.4349432E-001	-2.7036618E+002
3	0	8.226706145910430E+002	2.4332003E-001	-2.7038742E+002
3	0	8.231706145784119E+002	2.4313641E-001	-2.7039447E+002
3	0	8.236706145657809E+002	2.4295114E-001	-2.7036618E+002
3	0	8.241706145531498E+002	2.4276946E-001	-2.7037677E+002
3	0	8.246706145405187E+002	2.4258468E-001	-2.7038031E+002
3	0	8.251706145278877E+002	2.4237533E-001	-2.7037326E+002
3	0	8.256706145152566E+002	2.4215868E-001	-2.7038742E+002
3	0	8.261706145026255E+002	2.4197035E-001	-2.7036267E+002
3	0	8.266706144899945E+002	2.4181268E-001	-2.7036618E+002
3	0	8.271706144773634E+002	2.4164757E-001	-2.7039447E+002
3	0	8.276706144647324E+002	2.4148470E-001	-2.7036618E+002
3	0	8.281706144521013E+002	2.4131979E-001	-2.7040155E+002
3	0	8.286706144394702E+002	2.4114220E-001	-2.7036972E+002
3	0	8.291706144268392E+002	2.4094786E-001	-2.7038031E+002
3	0	8.296706144142081E+002	2.4074525E-001	-2.7039801E+002
3	0	8.301706144015770E+002	2.4056861E-001	-2.7039093E+002
3	0	8.306706143889460E+002	2.4042316E-001	-2.7038385E+002
3	0	8.311706143763149E+002	2.4027479E-001	-2.7040506E+002
3	0	8.316706143636839E+002	2.4012159E-001	-2.7036618E+002
3	0	8.321706143510528E+002	2.3997480E-001	-2.7039093E+002
3	0	8.326706143384217E+002	2.3981735E-001	-2.7037326E+002
3	0	8.331706143257907E+002	2.3964749E-001	-2.7035205E+002
3	0	8.336706143131596E+002	2.3945965E-001	-2.7038385E+002
3	0	8.341706143005285E+002	2.3929100E-001	-2.7036267E+002
3	0	8.346706142878975E+002	2.3915917E-001	-2.7039447E+002
3	0	8.351706142752664E+002	2.3902237E-001	-2.7038742E+002
3	0	8.356706142626354E+002	2.3888317E-001	-2.7038385E+002
3	0	8.361706142500043E+002	2.3874122E-001	-2.7037326E+002
3	0	8.366706142373732E+002	2.3859318E-001	-2.7036972E+002
3	0	8.371706142247422E+002	2.3842821E-001	-2.7037677E+002
3	0	8.376706142121111E+002	2.3825152E-001	-2.7039801E+002
3	0	8.381706141994800E+002	2.3809540E-001	-2.7036267E+002
3	0	8.386706141868490E+002	2.3797663E-001	-2.7038031E+002
3	0	8.391706141742179E+002	2.3785755E-001	-2.7039093E+002
3	0	8.396706141615869E+002	2.3772778E-001	-2.7039093E+002
3	0	8.401706141489558E+002	2.3759706E-001	-2.7039801E+002
3	0	8.406706141363247E+002	2.3745829E-001	-2.7036972E+002
3	0	8.411706141236937E+002	2.3729925E-001	-2.7041214E+002
3	0	8.416706141110626E+002	2.3712979E-001	-2.7036972E+002
3	0	8.421706140984315E+002	2.3698446E-001	-2.7036972E+002
3	0	8.426706140858005E+002	2.3687132E-001	-2.7039093E+002
3	0	8.431706140731694E+002	2.3675665E-001	-2.7037326E+002
3	0	8.436706140605384E+002	2.3664124E-001	-2.7038742E+002
3	0	8.441706140479073E+002	2.3652746E-001	-2.7038385E+002
3	0	8.446706140352762E+002	2.3640609E-001	-2.7034143E+002
3	0	8.451706140226452E+002	2.3626280E-001	-2.7035913E+002
3	0	8.456706140100141E+002	2.3609816E-001	-2.7039093E+002
3	0	8.461706139973830E+002	2.3596725E-001	-2.7038385E+002
3	0	8.461710139973729E+002	2.3597020E-001	-2.7040155E+002