EC-Lab ASCII FILE
Nb header lines : 55                          

Open Circuit Voltage

Run on channel : 1 (SN 81504)
User : 
CE vs. WE compliance from -10 V to 10 V
Electrode connection : standard
Potential control : Ewe
Ewe ctrl range : min = -2.50 V, max = 2.50 V
Safety Limits :
	Do not start on E overload
Acquisition started on : 05/10/2026 02:27:32.112
Loaded Setting File :  C:\PEM-WE_measurements\2026\372_IV_IV IrOx, 5 min Pt, 30 min C, etched cathode\new station\Loopeis new\1,46 V different time gaps closed cell\Loopeis 1,46V_60s_3_PEIS from 6500Hz to 1000Hz.mps
Saved on :
	File : L_13_Loopeis 1,46V_60s_3_PEIS from 6500Hz to 1000Hz_20_OCV_C01.mpr
	Directory : C:\PEM-WE_measurements\2026\372_IV_IV IrOx, 5 min Pt, 30 min C, etched cathode\new station\Loopeis new\1,46 V different time gaps closed cell\
	Host : 192.168.0.2
Device : SP-150e (SN .005491)
Address : 192.168.0.91
EC-LAB for windows v11.71 (software)
Internet server v28.00 (firmware)
Command interpretor v14.01 (firmware)
Electrode material : 
Initial state : 
Electrolyte : 
Comments : 
Current amplifier : SP-150eB-20A
Electrode surface area : 0.001 cm²
Characteristic mass : 0.001 g
Equivalent Weight : 0.000 g/eq.
Density : 0.000 g/cm3
Volume (V) : 0.001 cm³
Record Analogic IN 1
Text export
   Mode : Standard
   Time format : Elapsed
Cycle Definition : Charge/Discharge alternance
External device configuration :
   device type : Temperature Probe
   device name : Other
   Analog IN 1 : 
      unit : T/Â°C
      max : 100.000 at 2.000 V
      min : 0.000 at 1.460 V
tR (h:m:s)          0:01:0.0000         
dER/dt (mV/h)       1.0                 
record              <Ewe>               
dER (mV)            10.00               
dtR (s)             0.5000              
E range min (V)     -2.500              
E range max (V)     2.500               

mode	error	time/s	<Ewe/V>	Analog IN 1/V	
3	0	9.996605917851412E+002	1.1836317E+000	-2.7039093E+002
3	0	1.000160591772510E+003	1.2595357E+000	-2.7040506E+002
3	0	1.000660591759879E+003	1.2634017E+000	-2.7035559E+002
3	0	1.001160591747248E+003	1.2656307E+000	-2.7037677E+002
3	0	1.001660591734617E+003	1.2670506E+000	-2.7039447E+002
3	0	1.002160591721986E+003	1.2679945E+000	-2.7038031E+002
3	0	1.002660591709355E+003	1.2687165E+000	-2.7040860E+002
3	0	1.003160591696724E+003	1.2692792E+000	-2.7039093E+002
3	0	1.003660591684093E+003	1.2696999E+000	-2.7036618E+002
3	0	1.004160591671462E+003	1.2700080E+000	-2.7034497E+002
3	0	1.004660591658831E+003	1.2702296E+000	-2.7036618E+002
3	0	1.005160591646199E+003	1.2703897E+000	-2.7038385E+002
3	0	1.005660591633568E+003	1.2704363E+000	-2.7037326E+002
3	0	1.006160591620937E+003	1.2703960E+000	-2.7036972E+002
3	0	1.006660591608306E+003	1.2703825E+000	-2.7038385E+002
3	0	1.007160591595675E+003	1.2703981E+000	-2.7037326E+002
3	0	1.007660591583044E+003	1.2703927E+000	-2.7038742E+002
3	0	1.008160591570413E+003	1.2703762E+000	-2.7040155E+002
3	0	1.008660591557782E+003	1.2703443E+000	-2.7039447E+002
3	0	1.009160591545151E+003	1.2702900E+000	-2.7036267E+002
3	0	1.009660591532520E+003	1.2701708E+000	-2.7037677E+002
3	0	1.010160591519889E+003	1.2700119E+000	-2.7037677E+002
3	0	1.010660591507258E+003	1.2698992E+000	-2.7039447E+002
3	0	1.011160591494627E+003	1.2698452E+000	-2.7038742E+002
3	0	1.011660591481996E+003	1.2697871E+000	-2.7039447E+002
3	0	1.012160591469365E+003	1.2697228E+000	-2.7039093E+002
3	0	1.012660591456734E+003	1.2696638E+000	-2.7039093E+002
3	0	1.013160591444102E+003	1.2695943E+000	-2.7039093E+002
3	0	1.013660591431471E+003	1.2694654E+000	-2.7039447E+002
3	0	1.014160591418840E+003	1.2692791E+000	-2.7039093E+002
3	0	1.014660591406209E+003	1.2691603E+000	-2.7039447E+002
3	0	1.015160591393578E+003	1.2690909E+000	-2.7038742E+002
3	0	1.015660591380947E+003	1.2690190E+000	-2.7035913E+002
3	0	1.016160591368316E+003	1.2689508E+000	-2.7038742E+002
3	0	1.016660591355685E+003	1.2688897E+000	-2.7039093E+002
3	0	1.017160591343054E+003	1.2688221E+000	-2.7038031E+002
3	0	1.017660591330423E+003	1.2687001E+000	-2.7038742E+002
3	0	1.018160591317792E+003	1.2685167E+000	-2.7038385E+002
3	0	1.018660591305161E+003	1.2684032E+000	-2.7038031E+002
3	0	1.019160591292530E+003	1.2683594E+000	-2.7038385E+002
3	0	1.019660591279899E+003	1.2683179E+000	-2.7037677E+002
3	0	1.020160591267268E+003	1.2682887E+000	-2.7036972E+002
3	0	1.020660591254637E+003	1.2682731E+000	-2.7040506E+002
3	0	1.021160591242005E+003	1.2682587E+000	-2.7038742E+002
3	0	1.021660591229374E+003	1.2681906E+000	-2.7039093E+002
3	0	1.022160591216743E+003	1.2680695E+000	-2.7038385E+002
3	0	1.022660591204112E+003	1.2680130E+000	-2.7038031E+002
3	0	1.023160591191481E+003	1.2680218E+000	-2.7037677E+002
3	0	1.023660591178850E+003	1.2680377E+000	-2.7038742E+002
3	0	1.024160591166219E+003	1.2680451E+000	-2.7038385E+002
3	0	1.024660591153588E+003	1.2680503E+000	-2.7037677E+002
3	0	1.025160591140957E+003	1.2680414E+000	-2.7036618E+002
3	0	1.025660591128326E+003	1.2679638E+000	-2.7035913E+002
3	0	1.026160591115695E+003	1.2678188E+000	-2.7039447E+002
3	0	1.026660591103064E+003	1.2677395E+000	-2.7036972E+002
3	0	1.027160591090433E+003	1.2677108E+000	-2.7038031E+002
3	0	1.027660591077802E+003	1.2676705E+000	-2.7038385E+002
3	0	1.028160591065171E+003	1.2676255E+000	-2.7038385E+002
3	0	1.028660591052540E+003	1.2675760E+000	-2.7035913E+002
3	0	1.029160591039908E+003	1.2675012E+000	-2.7036267E+002
3	0	1.029660591027277E+003	1.2673657E+000	-2.7038385E+002
3	0	1.030160591014646E+003	1.2671597E+000	-2.7038031E+002
3	0	1.030660591002015E+003	1.2670087E+000	-2.7041214E+002
3	0	1.031160590989384E+003	1.2669110E+000	-2.7038742E+002
3	0	1.031660590976753E+003	1.2668098E+000	-2.7040155E+002
3	0	1.032160590964122E+003	1.2667007E+000	-2.7039093E+002
3	0	1.032660590951491E+003	1.2665843E+000	-2.7036972E+002
3	0	1.033160590938860E+003	1.2664480E+000	-2.7037326E+002
3	0	1.033660590926229E+003	1.2662512E+000	-2.7038031E+002
3	0	1.034160590913598E+003	1.2659969E+000	-2.7036618E+002
3	0	1.034660590900967E+003	1.2658036E+000	-2.7039093E+002
3	0	1.035160590888336E+003	1.2656652E+000	-2.7035205E+002
3	0	1.035660590875705E+003	1.2655206E+000	-2.7036267E+002
3	0	1.036160590863074E+003	1.2653632E+000	-2.7037677E+002
3	0	1.036660590850443E+003	1.2652045E+000	-2.7038031E+002
3	0	1.037160590837811E+003	1.2650237E+000	-2.7038031E+002
3	0	1.037660590825180E+003	1.2647797E+000	-2.7038385E+002
3	0	1.038160590812549E+003	1.2644807E+000	-2.7038385E+002
3	0	1.038660590799918E+003	1.2642502E+000	-2.7036618E+002
3	0	1.039160590787287E+003	1.2640778E+000	-2.7039093E+002
3	0	1.039660590774656E+003	1.2639076E+000	-2.7035559E+002
3	0	1.040160590762025E+003	1.2637464E+000	-2.7039801E+002
3	0	1.040660590749394E+003	1.2636030E+000	-2.7036618E+002
3	0	1.041160590736763E+003	1.2634591E+000	-2.7035205E+002
3	0	1.041660590724132E+003	1.2632602E+000	-2.7039801E+002
3	0	1.042160590711501E+003	1.2630100E+000	-2.7036618E+002
3	0	1.042660590698870E+003	1.2628342E+000	-2.7037677E+002
3	0	1.043160590686239E+003	1.2627130E+000	-2.7037326E+002
3	0	1.043660590673608E+003	1.2626028E+000	-2.7037326E+002
3	0	1.044160590660977E+003	1.2624958E+000	-2.7041214E+002
3	0	1.044660590648346E+003	1.2623852E+000	-2.7036972E+002
3	0	1.045160590635714E+003	1.2622491E+000	-2.7036267E+002
3	0	1.045660590623083E+003	1.2620676E+000	-2.7037326E+002
3	0	1.046160590610452E+003	1.2618194E+000	-2.7038385E+002
3	0	1.046660590597821E+003	1.2616364E+000	-2.7038031E+002
3	0	1.047160590585190E+003	1.2615055E+000	-2.7036972E+002
3	0	1.047660590572559E+003	1.2613726E+000	-2.7040155E+002
3	0	1.048160590559928E+003	1.2612292E+000	-2.7038385E+002
3	0	1.048660590547297E+003	1.2610940E+000	-2.7037326E+002
3	0	1.049160590534666E+003	1.2609195E+000	-2.7038385E+002
3	0	1.049660590522035E+003	1.2606781E+000	-2.7039447E+002
3	0	1.050160590509404E+003	1.2603703E+000	-2.7038742E+002
3	0	1.050660590496773E+003	1.2601303E+000	-2.7036972E+002
3	0	1.051160590484142E+003	1.2599412E+000	-2.7039093E+002
3	0	1.051660590471511E+003	1.2597442E+000	-2.7037677E+002
3	0	1.052160590458880E+003	1.2595365E+000	-2.7038742E+002
3	0	1.052660590446249E+003	1.2593317E+000	-2.7035913E+002
3	0	1.053160590433617E+003	1.2591082E+000	-2.7040506E+002
3	0	1.053660590420986E+003	1.2588221E+000	-2.7040155E+002
3	0	1.054160590408355E+003	1.2584705E+000	-2.7037326E+002
3	0	1.054660590395724E+003	1.2581815E+000	-2.7037677E+002
3	0	1.055160590383093E+003	1.2579457E+000	-2.7036972E+002
3	0	1.055660590370462E+003	1.2577109E+000	-2.7038742E+002
3	0	1.056160590357831E+003	1.2574598E+000	-2.7038031E+002
3	0	1.056660590345200E+003	1.2572110E+000	-2.7040506E+002
3	0	1.057160590332569E+003	1.2569373E+000	-2.7036618E+002
3	0	1.057660590319938E+003	1.2566195E+000	-2.7039447E+002
3	0	1.058160590307307E+003	1.2562362E+000	-2.7038385E+002
3	0	1.058660590294676E+003	1.2559248E+000	-2.7038031E+002
3	0	1.059160590282045E+003	1.2556794E+000	-2.7037326E+002
3	0	1.059186190281398E+003	1.2555614E+000	-2.7038742E+002