EC-Lab ASCII FILE
Nb header lines : 56                          

Open Circuit Voltage

Run on channel : 1 (SN 81504)
User : 
CE vs. WE compliance from -10 V to 10 V
Electrode connection : standard
Potential control : Ewe
Ewe ctrl range : min = -2.50 V, max = 2.50 V
Safety Limits :
	Do not start on E overload
Acquisition started on : 05/10/2026 00:25:06.702
Loaded Setting File :  C:\PEM-WE_measurements\2026\372_IV_IV IrOx, 5 min Pt, 30 min C, etched cathode\new station\Loopeis new\1,46 V different time gaps closed cell\Loopeis 1,46V_45s_1_initial_loops.mps
Saved on :
	File : L_06_Loopeis 1,46V_45s_1_initial_loops_02_OCV_C01.mpr
	Directory : C:\PEM-WE_measurements\2026\372_IV_IV IrOx, 5 min Pt, 30 min C, etched cathode\new station\Loopeis new\1,46 V different time gaps closed cell\
	Host : 192.168.0.2
Device : SP-150e (SN .005491)
Address : 192.168.0.91
EC-LAB for windows v11.71 (software)
Internet server v28.00 (firmware)
Command interpretor v14.01 (firmware)
Electrode material : 
Initial state : 
Electrolyte : 
Comments : 
Current amplifier : SP-150eB-20A
Electrode surface area : 0.000 cm²
Characteristic mass : 0.001 g
Equivalent Weight : 0.000 g/eq.
Density : 0.000 g/cm3
Volume (V) : 0.001 cm³
Record Analogic IN 1
Record energy
Text export
   Mode : Standard
   Time format : Elapsed
Cycle Definition : Charge/Discharge alternance
External device configuration :
   device type : Temperature Probe
   device name : Other
   Analog IN 1 : 
      unit : T/Â°C
      max : 100.000 at 2.000 V
      min : 0.000 at 1.460 V
tR (h:m:s)          0:00:45.0000        
dER/dt (mV/h)       1.0                 
record              <Ewe>               
dER (mV)            10.00               
dtR (s)             0.5000              
E range min (V)     -2.500              
E range max (V)     2.500               

mode	error	time/s	<Ewe/V>	Analog IN 1/V	
3	0	4.549979885057837E+001	1.4212577E+000	-2.7036618E+002
3	0	4.599979883794731E+001	1.4137493E+000	-2.7037677E+002
3	0	4.649979882531625E+001	1.4085464E+000	-2.7040506E+002
3	0	4.699979881268519E+001	1.4047240E+000	-2.7038742E+002
3	0	4.749979880005412E+001	1.4017013E+000	-2.7038031E+002
3	0	4.799979878742306E+001	1.3991870E+000	-2.7037326E+002
3	0	4.849979877479200E+001	1.3969729E+000	-2.7038385E+002
3	0	4.899979876216094E+001	1.3949512E+000	-2.7038031E+002
3	0	4.949979874952987E+001	1.3931772E+000	-2.7035913E+002
3	0	4.999979873689881E+001	1.3916134E+000	-2.7038031E+002
3	0	5.049979872426775E+001	1.3901880E+000	-2.7036618E+002
3	0	5.099979871163669E+001	1.3888750E+000	-2.7035559E+002
3	0	5.149979869900562E+001	1.3876514E+000	-2.7037677E+002
3	0	5.199979868637456E+001	1.3864902E+000	-2.7037326E+002
3	0	5.249979867374350E+001	1.3853389E+000	-2.7039093E+002
3	0	5.299979866111244E+001	1.3841926E+000	-2.7037677E+002
3	0	5.349979864848137E+001	1.3831320E+000	-2.7038031E+002
3	0	5.399979863585031E+001	1.3821721E+000	-2.7034497E+002
3	0	5.449979862321925E+001	1.3812501E+000	-2.7038031E+002
3	0	5.499979861058819E+001	1.3803728E+000	-2.7040860E+002
3	0	5.549979859795712E+001	1.3795408E+000	-2.7036972E+002
3	0	5.599979858532606E+001	1.3787135E+000	-2.7037677E+002
3	0	5.649979857269500E+001	1.3778647E+000	-2.7038031E+002
3	0	5.699979856006394E+001	1.3769697E+000	-2.7037677E+002
3	0	5.749979854743287E+001	1.3761513E+000	-2.7038742E+002
3	0	5.799979853480181E+001	1.3754014E+000	-2.7036267E+002
3	0	5.849979852217075E+001	1.3746840E+000	-2.7036972E+002
3	0	5.899979850953969E+001	1.3739640E+000	-2.7035205E+002
3	0	5.949979849690862E+001	1.3732717E+000	-2.7039093E+002
3	0	5.999979848427756E+001	1.3725822E+000	-2.7038385E+002
3	0	6.049979847164650E+001	1.3718493E+000	-2.7039447E+002
3	0	6.099979845901544E+001	1.3710642E+000	-2.7036618E+002
3	0	6.149979844638438E+001	1.3703458E+000	-2.7039093E+002
3	0	6.199979843375331E+001	1.3696877E+000	-2.7036267E+002
3	0	6.249979842112225E+001	1.3690269E+000	-2.7037677E+002
3	0	6.299979840849119E+001	1.3683776E+000	-2.7039093E+002
3	0	6.349979839586013E+001	1.3677386E+000	-2.7039447E+002
3	0	6.399979838322906E+001	1.3670816E+000	-2.7038031E+002
3	0	6.449979837059800E+001	1.3663818E+000	-2.7040155E+002
3	0	6.499979835796694E+001	1.3656282E+000	-2.7037326E+002
3	0	6.549979834533588E+001	1.3649333E+000	-2.7038742E+002
3	0	6.599979833270481E+001	1.3642883E+000	-2.7039801E+002
3	0	6.649979832007375E+001	1.3636374E+000	-2.7036972E+002
3	0	6.699979830744269E+001	1.3629998E+000	-2.7038385E+002
3	0	6.749979829481163E+001	1.3623600E+000	-2.7033789E+002
3	0	6.799979828218056E+001	1.3617077E+000	-2.7036618E+002
3	0	6.849979826954950E+001	1.3610016E+000	-2.7038385E+002
3	0	6.899979825691844E+001	1.3602422E+000	-2.7036618E+002
3	0	6.949979824428738E+001	1.3595406E+000	-2.7037326E+002
3	0	6.999979823165631E+001	1.3588700E+000	-2.7039093E+002
3	0	7.049979821902525E+001	1.3582100E+000	-2.7040155E+002
3	0	7.099979820639419E+001	1.3575305E+000	-2.7037326E+002
3	0	7.149979819376313E+001	1.3568629E+000	-2.7035913E+002
3	0	7.199979818113206E+001	1.3561755E+000	-2.7039447E+002
3	0	7.249979816850100E+001	1.3554378E+000	-2.7040506E+002
3	0	7.299979815586994E+001	1.3546361E+000	-2.7041568E+002
3	0	7.349979814323888E+001	1.3538803E+000	-2.7039093E+002
3	0	7.399979813060781E+001	1.3531712E+000	-2.7038031E+002
3	0	7.449979811797675E+001	1.3524599E+000	-2.7039447E+002
3	0	7.499979810534569E+001	1.3517618E+000	-2.7039093E+002
3	0	7.549979809271463E+001	1.3510540E+000	-2.7037326E+002
3	0	7.599979808008356E+001	1.3503453E+000	-2.7039447E+002
3	0	7.649979806745250E+001	1.3495822E+000	-2.7041214E+002
3	0	7.699979805482144E+001	1.3487507E+000	-2.7038031E+002
3	0	7.749979804219038E+001	1.3479728E+000	-2.7036972E+002
3	0	7.799979802955932E+001	1.3472493E+000	-2.7038385E+002
3	0	7.849979801692825E+001	1.3465221E+000	-2.7039447E+002
3	0	7.899979800429719E+001	1.3457992E+000	-2.7036618E+002
3	0	7.949979799166613E+001	1.3450888E+000	-2.7038385E+002
3	0	7.999979797903507E+001	1.3443587E+000	-2.7040155E+002
3	0	8.049979796640400E+001	1.3435687E+000	-2.7038742E+002
3	0	8.099979795377294E+001	1.3427224E+000	-2.7039447E+002
3	0	8.149979794114188E+001	1.3419195E+000	-2.7039447E+002
3	0	8.199979792851082E+001	1.3411715E+000	-2.7036972E+002
3	0	8.249979791587975E+001	1.3404230E+000	-2.7038742E+002
3	0	8.299979790324869E+001	1.3396688E+000	-2.7038031E+002
3	0	8.349979789061763E+001	1.3389248E+000	-2.7038742E+002
3	0	8.399979787798657E+001	1.3381617E+000	-2.7037677E+002
3	0	8.449979786535550E+001	1.3373497E+000	-2.7036972E+002
3	0	8.499979785272444E+001	1.3364755E+000	-2.7039447E+002
3	0	8.549979784009338E+001	1.3356515E+000	-2.7036972E+002
3	0	8.599979782746232E+001	1.3348703E+000	-2.7036267E+002
3	0	8.649979781483125E+001	1.3340833E+000	-2.7035913E+002
3	0	8.699979780220019E+001	1.3332915E+000	-2.7038031E+002
3	0	8.749979778956913E+001	1.3325037E+000	-2.7036618E+002
3	0	8.799979777693807E+001	1.3316935E+000	-2.7035913E+002
3	0	8.849979776430700E+001	1.3308394E+000	-2.7036618E+002
3	0	8.899979775167594E+001	1.3299135E+000	-2.7037677E+002
3	0	8.949979773904488E+001	1.3290334E+000	-2.7037326E+002
3	0	8.999979772641382E+001	1.3281865E+000	-2.7037326E+002
3	0	9.000019772640371E+001	1.3278397E+000	-2.7039447E+002
3	0	1.355007965769619E+002	1.4214673E+000	-2.7038385E+002
3	0	1.360007965643308E+002	1.4139998E+000	-2.7037326E+002
3	0	1.365007965516998E+002	1.4087268E+000	-2.7036618E+002
3	0	1.370007965390687E+002	1.4047416E+000	-2.7037677E+002
3	0	1.375007965264376E+002	1.4015869E+000	-2.7037677E+002
3	0	1.380007965138066E+002	1.3990225E+000	-2.7035559E+002
3	0	1.385007965011755E+002	1.3968315E+000	-2.7035205E+002
3	0	1.390007964885444E+002	1.3949157E+000	-2.7037677E+002
3	0	1.395007964759134E+002	1.3932245E+000	-2.7039447E+002
3	0	1.400007964632823E+002	1.3916824E+000	-2.7037326E+002
3	0	1.405007964506513E+002	1.3902198E+000	-2.7038031E+002
3	0	1.410007964380202E+002	1.3888100E+000	-2.7036618E+002
3	0	1.415007964253891E+002	1.3875319E+000	-2.7036972E+002
3	0	1.420007964127581E+002	1.3863789E+000	-2.7040155E+002
3	0	1.425007964001270E+002	1.3853011E+000	-2.7038742E+002
3	0	1.430007963874959E+002	1.3842930E+000	-2.7039447E+002
3	0	1.435007963748649E+002	1.3833401E+000	-2.7037326E+002
3	0	1.440007963622338E+002	1.3824190E+000	-2.7036972E+002
3	0	1.445007963496028E+002	1.3814926E+000	-2.7038031E+002
3	0	1.450007963369717E+002	1.3805332E+000	-2.7038031E+002
3	0	1.455007963243406E+002	1.3796633E+000	-2.7036267E+002
3	0	1.460007963117096E+002	1.3788610E+000	-2.7039093E+002
3	0	1.465007962990785E+002	1.3780925E+000	-2.7037326E+002
3	0	1.470007962864474E+002	1.3773445E+000	-2.7037677E+002
3	0	1.475007962738164E+002	1.3766179E+000	-2.7037326E+002
3	0	1.480007962611853E+002	1.3759085E+000	-2.7039447E+002
3	0	1.485007962485543E+002	1.3751616E+000	-2.7038031E+002
3	0	1.490007962359232E+002	1.3743751E+000	-2.7038742E+002
3	0	1.495007962232921E+002	1.3736424E+000	-2.7037677E+002
3	0	1.500007962106611E+002	1.3729707E+000	-2.7038742E+002
3	0	1.505007961980300E+002	1.3723066E+000	-2.7038742E+002
3	0	1.510007961853989E+002	1.3716547E+000	-2.7036972E+002
3	0	1.515007961727679E+002	1.3710141E+000	-2.7036972E+002
3	0	1.520007961601368E+002	1.3703626E+000	-2.7036618E+002
3	0	1.525007961475058E+002	1.3696668E+000	-2.7037326E+002
3	0	1.530007961348747E+002	1.3689076E+000	-2.7037326E+002
3	0	1.535007961222436E+002	1.3682123E+000	-2.7037326E+002
3	0	1.540007961096126E+002	1.3675512E+000	-2.7038742E+002
3	0	1.545007960969815E+002	1.3669016E+000	-2.7037677E+002
3	0	1.550007960843504E+002	1.3662523E+000	-2.7037326E+002
3	0	1.555007960717194E+002	1.3656141E+000	-2.7038385E+002
3	0	1.560007960590883E+002	1.3649783E+000	-2.7037326E+002
3	0	1.565007960464573E+002	1.3642907E+000	-2.7037677E+002
3	0	1.570007960338262E+002	1.3635421E+000	-2.7039447E+002
3	0	1.575007960211951E+002	1.3628483E+000	-2.7039093E+002
3	0	1.580007960085641E+002	1.3621954E+000	-2.7037677E+002
3	0	1.585007959959330E+002	1.3615508E+000	-2.7038385E+002
3	0	1.590007959833019E+002	1.3609118E+000	-2.7037326E+002
3	0	1.595007959706709E+002	1.3602725E+000	-2.7035205E+002
3	0	1.600007959580398E+002	1.3596332E+000	-2.7038031E+002
3	0	1.605007959454088E+002	1.3589345E+000	-2.7038031E+002
3	0	1.610007959327777E+002	1.3581839E+000	-2.7039447E+002
3	0	1.615007959201466E+002	1.3574791E+000	-2.7037326E+002
3	0	1.620007959075156E+002	1.3568254E+000	-2.7038385E+002
3	0	1.625007958948845E+002	1.3561761E+000	-2.7036267E+002
3	0	1.630007958822534E+002	1.3555304E+000	-2.7038031E+002
3	0	1.635007958696224E+002	1.3548831E+000	-2.7038742E+002
3	0	1.640007958569913E+002	1.3542278E+000	-2.7035913E+002
3	0	1.645007958443603E+002	1.3535157E+000	-2.7036618E+002
3	0	1.650007958317292E+002	1.3527428E+000	-2.7038031E+002
3	0	1.655007958190981E+002	1.3520262E+000	-2.7039093E+002
3	0	1.660007958064671E+002	1.3513459E+000	-2.7037677E+002
3	0	1.665007957938360E+002	1.3506684E+000	-2.7037326E+002
3	0	1.670007957812049E+002	1.3499953E+000	-2.7038385E+002
3	0	1.675007957685739E+002	1.3493218E+000	-2.7035913E+002
3	0	1.680007957559428E+002	1.3486300E+000	-2.7038742E+002
3	0	1.685007957433118E+002	1.3478889E+000	-2.7038385E+002
3	0	1.690007957306807E+002	1.3470843E+000	-2.7038031E+002
3	0	1.695007957180496E+002	1.3463295E+000	-2.7036267E+002
3	0	1.700007957054186E+002	1.3456229E+000	-2.7036972E+002
3	0	1.705007956927875E+002	1.3449169E+000	-2.7037326E+002
3	0	1.710007956801564E+002	1.3441921E+000	-2.7039093E+002
3	0	1.715007956675254E+002	1.3434689E+000	-2.7038742E+002
3	0	1.720007956548943E+002	1.3427236E+000	-2.7037677E+002
3	0	1.725007956422633E+002	1.3419288E+000	-2.7038031E+002
3	0	1.730007956296322E+002	1.3410670E+000	-2.7036972E+002
3	0	1.735007956170011E+002	1.3402413E+000	-2.7037677E+002
3	0	1.740007956043701E+002	1.3394632E+000	-2.7038031E+002
3	0	1.745007955917390E+002	1.3386886E+000	-2.7037677E+002
3	0	1.750007955791079E+002	1.3379016E+000	-2.7038742E+002
3	0	1.755007955664769E+002	1.3371224E+000	-2.7037326E+002
3	0	1.760007955538458E+002	1.3363360E+000	-2.7035913E+002
3	0	1.765007955412148E+002	1.3354896E+000	-2.7038385E+002
3	0	1.770007955285837E+002	1.3345710E+000	-2.7037326E+002
3	0	1.775007955159526E+002	1.3336995E+000	-2.7038031E+002
3	0	1.780007955033216E+002	1.3328644E+000	-2.7038031E+002
3	0	1.785007954906905E+002	1.3320338E+000	-2.7038031E+002
3	0	1.790007954780594E+002	1.3312006E+000	-2.7038385E+002
3	0	1.795007954654284E+002	1.3303764E+000	-2.7038031E+002
3	0	1.800007954527973E+002	1.3295234E+000	-2.7037677E+002
3	0	1.800011954527872E+002	1.3290898E+000	-2.7038031E+002
3	0	2.255017943033454E+002	1.4212893E+000	-2.7038385E+002
3	0	2.260017942907143E+002	1.4137999E+000	-2.7037677E+002
3	0	2.265017942780833E+002	1.4086115E+000	-2.7040155E+002
3	0	2.270017942654522E+002	1.4048084E+000	-2.7039093E+002
3	0	2.275017942528211E+002	1.4018021E+000	-2.7038742E+002
3	0	2.280017942401901E+002	1.3993003E+000	-2.7038742E+002
3	0	2.285017942275590E+002	1.3971000E+000	-2.7036618E+002
3	0	2.290017942149279E+002	1.3950793E+000	-2.7039801E+002
3	0	2.295017942022969E+002	1.3933192E+000	-2.7038031E+002
3	0	2.300017941896658E+002	1.3917655E+000	-2.7036267E+002
3	0	2.305017941770348E+002	1.3903561E+000	-2.7037677E+002
3	0	2.310017941644037E+002	1.3890665E+000	-2.7038742E+002
3	0	2.315017941517726E+002	1.3878660E+000	-2.7039447E+002
3	0	2.320017941391416E+002	1.3867241E+000	-2.7037326E+002
3	0	2.325017941265105E+002	1.3855926E+000	-2.7035913E+002
3	0	2.330017941138794E+002	1.3844637E+000	-2.7037326E+002
3	0	2.335017941012484E+002	1.3834182E+000	-2.7038031E+002
3	0	2.340017940886173E+002	1.3824629E+000	-2.7035913E+002
3	0	2.345017940759863E+002	1.3815581E+000	-2.7037326E+002
3	0	2.350017940633552E+002	1.3806933E+000	-2.7039093E+002
3	0	2.355017940507241E+002	1.3798699E+000	-2.7038031E+002
3	0	2.360017940380931E+002	1.3790627E+000	-2.7037677E+002
3	0	2.365017940254620E+002	1.3782275E+000	-2.7038031E+002
3	0	2.370017940128309E+002	1.3773483E+000	-2.7036972E+002
3	0	2.375017940001999E+002	1.3765467E+000	-2.7036267E+002
3	0	2.380017939875688E+002	1.3758094E+000	-2.7037677E+002
3	0	2.385017939749378E+002	1.3750968E+000	-2.7036618E+002
3	0	2.390017939623067E+002	1.3744056E+000	-2.7038385E+002
3	0	2.395017939496756E+002	1.3737297E+000	-2.7038742E+002
3	0	2.400017939370446E+002	1.3730572E+000	-2.7037326E+002
3	0	2.405017939244135E+002	1.3723450E+000	-2.7036618E+002
3	0	2.410017939117824E+002	1.3715898E+000	-2.7037326E+002
3	0	2.415017938991514E+002	1.3708893E+000	-2.7037326E+002
3	0	2.420017938865203E+002	1.3702464E+000	-2.7035913E+002
3	0	2.425017938738893E+002	1.3696239E+000	-2.7036267E+002
3	0	2.430017938612582E+002	1.3689942E+000	-2.7039093E+002
3	0	2.435017938486271E+002	1.3683875E+000	-2.7039801E+002
3	0	2.440017938359961E+002	1.3677633E+000	-2.7038385E+002
3	0	2.445017938233650E+002	1.3670933E+000	-2.7036972E+002
3	0	2.450017938107339E+002	1.3663634E+000	-2.7036618E+002
3	0	2.455017937981029E+002	1.3656890E+000	-2.7036267E+002
3	0	2.460017937854718E+002	1.3650633E+000	-2.7036972E+002
3	0	2.465017937728408E+002	1.3644521E+000	-2.7039093E+002
3	0	2.470017937602097E+002	1.3638467E+000	-2.7036618E+002
3	0	2.475017937475786E+002	1.3632342E+000	-2.7038031E+002
3	0	2.480017937349476E+002	1.3626080E+000	-2.7035559E+002
3	0	2.485017937223165E+002	1.3619348E+000	-2.7037677E+002
3	0	2.490017937096854E+002	1.3611953E+000	-2.7039801E+002
3	0	2.495017936970544E+002	1.3605233E+000	-2.7039093E+002
3	0	2.500017936844233E+002	1.3598872E+000	-2.7038031E+002
3	0	2.505017936717923E+002	1.3592534E+000	-2.7037326E+002
3	0	2.510017936591612E+002	1.3586164E+000	-2.7036972E+002
3	0	2.515017936465301E+002	1.3579798E+000	-2.7036267E+002
3	0	2.520017936338991E+002	1.3572731E+000	-2.7038031E+002
3	0	2.525017936212680E+002	1.3565607E+000	-2.7035913E+002
3	0	2.530017936086369E+002	1.3558081E+000	-2.7035913E+002
3	0	2.535017935960059E+002	1.3551115E+000	-2.7038385E+002
3	0	2.540017935833748E+002	1.3544369E+000	-2.7038031E+002
3	0	2.545017935707438E+002	1.3537444E+000	-2.7039447E+002
3	0	2.550017935581127E+002	1.3530560E+000	-2.7038742E+002
3	0	2.555017935454816E+002	1.3523735E+000	-2.7037326E+002
3	0	2.560017935328506E+002	1.3516850E+000	-2.7038031E+002
3	0	2.565017935202195E+002	1.3509436E+000	-2.7035559E+002
3	0	2.570017935075884E+002	1.3501465E+000	-2.7036972E+002
3	0	2.575017934949574E+002	1.3494061E+000	-2.7039447E+002
3	0	2.580017934823263E+002	1.3486985E+000	-2.7039093E+002
3	0	2.585017934696953E+002	1.3479815E+000	-2.7037677E+002
3	0	2.590017934570642E+002	1.3472813E+000	-2.7039801E+002
3	0	2.595017934444331E+002	1.3465748E+000	-2.7036267E+002
3	0	2.600017934318021E+002	1.3458651E+000	-2.7039093E+002
3	0	2.605017934191710E+002	1.3451028E+000	-2.7038031E+002
3	0	2.610017934065399E+002	1.3442786E+000	-2.7036972E+002
3	0	2.615017933939089E+002	1.3435092E+000	-2.7038031E+002
3	0	2.620017933812778E+002	1.3427629E+000	-2.7036972E+002
3	0	2.625017933686468E+002	1.3420154E+000	-2.7038742E+002
3	0	2.630017933560157E+002	1.3412721E+000	-2.7037326E+002
3	0	2.635017933433846E+002	1.3405352E+000	-2.7036618E+002
3	0	2.640017933307536E+002	1.3397821E+000	-2.7039801E+002
3	0	2.645017933181225E+002	1.3389790E+000	-2.7039801E+002
3	0	2.650017933054914E+002	1.3381042E+000	-2.7038031E+002
3	0	2.655017932928604E+002	1.3372867E+000	-2.7039801E+002
3	0	2.660017932802293E+002	1.3365010E+000	-2.7036267E+002
3	0	2.665017932675983E+002	1.3357084E+000	-2.7038742E+002
3	0	2.670017932549672E+002	1.3349159E+000	-2.7036267E+002
3	0	2.675017932423361E+002	1.3341169E+000	-2.7037326E+002
3	0	2.680017932297051E+002	1.3332958E+000	-2.7037677E+002
3	0	2.685017932170740E+002	1.3324192E+000	-2.7037677E+002
3	0	2.690017932044429E+002	1.3314868E+000	-2.7038385E+002
3	0	2.695017931918119E+002	1.3306035E+000	-2.7037326E+002
3	0	2.700017931791808E+002	1.3297353E+000	-2.7039801E+002
3	0	2.700021931791707E+002	1.3292519E+000	-2.7037677E+002
3	0	3.155027920297289E+002	1.4215645E+000	-2.7039447E+002
3	0	3.160027920170978E+002	1.4141537E+000	-2.7040506E+002
3	0	3.165027920044668E+002	1.4088862E+000	-2.7037326E+002
3	0	3.170027919918357E+002	1.4048821E+000	-2.7037326E+002
3	0	3.175027919792046E+002	1.4017169E+000	-2.7035913E+002
3	0	3.180027919665736E+002	1.3991548E+000	-2.7038385E+002
3	0	3.185027919539425E+002	1.3969792E+000	-2.7038385E+002
3	0	3.190027919413114E+002	1.3950727E+000	-2.7035205E+002
3	0	3.195027919286804E+002	1.3933901E+000	-2.7036618E+002
3	0	3.200027919160493E+002	1.3918471E+000	-2.7040155E+002
3	0	3.205027919034183E+002	1.3903723E+000	-2.7035205E+002
3	0	3.210027918907872E+002	1.3889474E+000	-2.7038385E+002
3	0	3.215027918781561E+002	1.3876622E+000	-2.7039801E+002
3	0	3.220027918655251E+002	1.3865130E+000	-2.7034497E+002
3	0	3.225027918528940E+002	1.3854434E+000	-2.7037326E+002
3	0	3.230027918402629E+002	1.3844386E+000	-2.7038385E+002
3	0	3.235027918276319E+002	1.3834938E+000	-2.7041214E+002
3	0	3.240027918150008E+002	1.3825771E+000	-2.7038385E+002
3	0	3.245027918023698E+002	1.3816408E+000	-2.7035913E+002
3	0	3.250027917897387E+002	1.3806787E+000	-2.7037326E+002
3	0	3.255027917771076E+002	1.3798010E+000	-2.7036972E+002
3	0	3.260027917644766E+002	1.3790076E+000	-2.7037326E+002
3	0	3.265027917518455E+002	1.3782487E+000	-2.7036972E+002
3	0	3.270027917392144E+002	1.3775047E+000	-2.7037326E+002
3	0	3.275027917265834E+002	1.3767930E+000	-2.7038031E+002
3	0	3.280027917139523E+002	1.3760833E+000	-2.7038742E+002
3	0	3.285027917013213E+002	1.3753313E+000	-2.7035913E+002
3	0	3.290027916886902E+002	1.3745379E+000	-2.7037677E+002
3	0	3.295027916760591E+002	1.3738087E+000	-2.7036267E+002
3	0	3.300027916634281E+002	1.3731506E+000	-2.7038031E+002
3	0	3.305027916507970E+002	1.3725057E+000	-2.7038031E+002
3	0	3.310027916381659E+002	1.3718729E+000	-2.7037326E+002
3	0	3.315027916255349E+002	1.3712474E+000	-2.7036267E+002
3	0	3.320027916129038E+002	1.3706145E+000	-2.7037326E+002
3	0	3.325027916002728E+002	1.3699268E+000	-2.7038385E+002
3	0	3.330027915876417E+002	1.3691717E+000	-2.7040506E+002
3	0	3.335027915750106E+002	1.3684820E+000	-2.7037326E+002
3	0	3.340027915623796E+002	1.3678497E+000	-2.7038031E+002
3	0	3.345027915497485E+002	1.3672124E+000	-2.7035559E+002
3	0	3.350027915371174E+002	1.3665723E+000	-2.7036972E+002
3	0	3.355027915244864E+002	1.3659425E+000	-2.7040860E+002
3	0	3.360027915118553E+002	1.3653071E+000	-2.7036618E+002
3	0	3.365027914992243E+002	1.3646246E+000	-2.7038385E+002
3	0	3.370027914865932E+002	1.3638647E+000	-2.7038742E+002
3	0	3.375027914739621E+002	1.3631724E+000	-2.7040155E+002
3	0	3.380027914613311E+002	1.3625374E+000	-2.7038742E+002
3	0	3.385027914487000E+002	1.3619136E+000	-2.7039447E+002
3	0	3.390027914360689E+002	1.3612822E+000	-2.7037326E+002
3	0	3.395027914234379E+002	1.3606627E+000	-2.7038031E+002
3	0	3.400027914108068E+002	1.3600304E+000	-2.7038385E+002
3	0	3.405027913981758E+002	1.3593342E+000	-2.7038742E+002
3	0	3.410027913855447E+002	1.3585765E+000	-2.7038742E+002
3	0	3.415027913729136E+002	1.3578765E+000	-2.7040155E+002
3	0	3.420027913602826E+002	1.3572437E+000	-2.7040155E+002
3	0	3.425027913476515E+002	1.3566083E+000	-2.7038031E+002
3	0	3.430027913350204E+002	1.3559712E+000	-2.7038385E+002
3	0	3.435027913223894E+002	1.3553441E+000	-2.7039801E+002
3	0	3.440027913097583E+002	1.3546966E+000	-2.7040155E+002
3	0	3.445027912971273E+002	1.3539915E+000	-2.7038742E+002
3	0	3.450027912844962E+002	1.3532168E+000	-2.7038742E+002
3	0	3.455027912718651E+002	1.3525053E+000	-2.7039801E+002
3	0	3.460027912592341E+002	1.3518517E+000	-2.7036972E+002
3	0	3.465027912466030E+002	1.3512025E+000	-2.7038742E+002
3	0	3.470027912339719E+002	1.3505405E+000	-2.7039447E+002
3	0	3.475027912213409E+002	1.3498868E+000	-2.7038385E+002
3	0	3.480027912087098E+002	1.3492197E+000	-2.7038385E+002
3	0	3.485027911960788E+002	1.3484838E+000	-2.7038385E+002
3	0	3.490027911834477E+002	1.3476870E+000	-2.7040506E+002
3	0	3.495027911708166E+002	1.3469517E+000	-2.7037677E+002
3	0	3.500027911581856E+002	1.3462648E+000	-2.7039093E+002
3	0	3.505027911455545E+002	1.3455868E+000	-2.7037326E+002
3	0	3.510027911329234E+002	1.3448957E+000	-2.7039447E+002
3	0	3.515027911202924E+002	1.3441962E+000	-2.7038385E+002
3	0	3.520027911076613E+002	1.3434824E+000	-2.7040860E+002
3	0	3.525027910950303E+002	1.3427019E+000	-2.7036618E+002
3	0	3.530027910823992E+002	1.3418561E+000	-2.7038385E+002
3	0	3.535027910697681E+002	1.3410505E+000	-2.7036972E+002
3	0	3.540027910571371E+002	1.3402985E+000	-2.7036618E+002
3	0	3.545027910445060E+002	1.3395407E+000	-2.7039447E+002
3	0	3.550027910318749E+002	1.3387786E+000	-2.7038385E+002
3	0	3.555027910192439E+002	1.3380063E+000	-2.7035559E+002
3	0	3.560027910066128E+002	1.3372251E+000	-2.7038031E+002
3	0	3.565027909939818E+002	1.3363799E+000	-2.7036267E+002
3	0	3.570027909813507E+002	1.3354774E+000	-2.7039447E+002
3	0	3.575027909687196E+002	1.3346139E+000	-2.7038031E+002
3	0	3.580027909560886E+002	1.3338042E+000	-2.7038031E+002
3	0	3.585027909434575E+002	1.3329885E+000	-2.7038031E+002
3	0	3.590027909308265E+002	1.3321649E+000	-2.7037677E+002
3	0	3.595027909181954E+002	1.3313459E+000	-2.7038742E+002
3	0	3.600027909055643E+002	1.3305218E+000	-2.7036618E+002
3	0	3.600031909055542E+002	1.3301107E+000	-2.7039447E+002
3	0	4.055037897561124E+002	1.4212307E+000	-2.7038031E+002
3	0	4.060037897434813E+002	1.4137304E+000	-2.7037326E+002
3	0	4.065037897308503E+002	1.4085248E+000	-2.7037326E+002
3	0	4.070037897182192E+002	1.4046843E+000	-2.7037677E+002
3	0	4.075037897055881E+002	1.4016478E+000	-2.7037326E+002
3	0	4.080037896929571E+002	1.3991325E+000	-2.7036972E+002
3	0	4.085037896803260E+002	1.3969170E+000	-2.7038385E+002
3	0	4.090037896676949E+002	1.3948966E+000	-2.7038742E+002
3	0	4.095037896550639E+002	1.3931376E+000	-2.7036267E+002
3	0	4.100037896424328E+002	1.3915946E+000	-2.7036267E+002
3	0	4.105037896298018E+002	1.3901875E+000	-2.7035559E+002
3	0	4.110037896171707E+002	1.3888992E+000	-2.7038385E+002
3	0	4.115037896045396E+002	1.3877089E+000	-2.7036267E+002
3	0	4.120037895919086E+002	1.3865662E+000	-2.7037677E+002
3	0	4.125037895792775E+002	1.3854454E+000	-2.7036267E+002
3	0	4.130037895666464E+002	1.3843192E+000	-2.7038385E+002
3	0	4.135037895540154E+002	1.3832848E+000	-2.7038031E+002
3	0	4.140037895413843E+002	1.3823454E+000	-2.7037677E+002
3	0	4.145037895287533E+002	1.3814465E+000	-2.7035205E+002
3	0	4.150037895161222E+002	1.3805860E+000	-2.7034497E+002
3	0	4.155037895034911E+002	1.3797616E+000	-2.7037677E+002
3	0	4.160037894908601E+002	1.3789521E+000	-2.7038385E+002
3	0	4.165037894782290E+002	1.3781126E+000	-2.7035559E+002
3	0	4.170037894655979E+002	1.3772318E+000	-2.7036972E+002
3	0	4.175037894529669E+002	1.3764297E+000	-2.7037677E+002
3	0	4.180037894403358E+002	1.3756998E+000	-2.7036267E+002
3	0	4.185037894277048E+002	1.3749895E+000	-2.7034497E+002
3	0	4.190037894150737E+002	1.3743054E+000	-2.7039093E+002
3	0	4.195037894024426E+002	1.3736337E+000	-2.7038385E+002
3	0	4.200037893898116E+002	1.3729693E+000	-2.7036972E+002
3	0	4.205037893771805E+002	1.3722559E+000	-2.7038385E+002
3	0	4.210037893645494E+002	1.3714919E+000	-2.7040155E+002
3	0	4.215037893519184E+002	1.3707991E+000	-2.7036618E+002
3	0	4.220037893392873E+002	1.3701689E+000	-2.7033789E+002
3	0	4.225037893266563E+002	1.3695455E+000	-2.7037677E+002
3	0	4.230037893140252E+002	1.3689148E+000	-2.7039447E+002
3	0	4.235037893013941E+002	1.3683234E+000	-2.7038031E+002
3	0	4.240037892887631E+002	1.3677033E+000	-2.7036972E+002
3	0	4.245037892761320E+002	1.3670332E+000	-2.7035559E+002
3	0	4.250037892635009E+002	1.3663110E+000	-2.7036267E+002
3	0	4.255037892508699E+002	1.3656433E+000	-2.7035913E+002
3	0	4.260037892382388E+002	1.3650413E+000	-2.7036618E+002
3	0	4.265037892256078E+002	1.3644435E+000	-2.7037326E+002
3	0	4.270037892129767E+002	1.3638350E+000	-2.7038031E+002
3	0	4.275037892003456E+002	1.3632470E+000	-2.7039093E+002
3	0	4.280037891877146E+002	1.3626384E+000	-2.7037326E+002
3	0	4.285037891750835E+002	1.3619716E+000	-2.7036618E+002
3	0	4.290037891624524E+002	1.3612430E+000	-2.7034851E+002
3	0	4.295037891498214E+002	1.3605809E+000	-2.7037677E+002
3	0	4.300037891371903E+002	1.3599591E+000	-2.7036972E+002
3	0	4.305037891245593E+002	1.3593442E+000	-2.7036972E+002
3	0	4.310037891119282E+002	1.3587341E+000	-2.7038742E+002
3	0	4.315037890992971E+002	1.3581146E+000	-2.7038385E+002
3	0	4.320037890866661E+002	1.3574861E+000	-2.7039447E+002
3	0	4.325037890740350E+002	1.3568041E+000	-2.7039093E+002
3	0	4.330037890614040E+002	1.3560512E+000	-2.7040860E+002
3	0	4.335037890487729E+002	1.3553545E+000	-2.7038031E+002
3	0	4.340037890361418E+002	1.3547066E+000	-2.7038742E+002
3	0	4.345037890235108E+002	1.3540412E+000	-2.7036618E+002
3	0	4.350037890108797E+002	1.3533788E+000	-2.7036972E+002
3	0	4.355037889982486E+002	1.3527070E+000	-2.7036972E+002
3	0	4.360037889856176E+002	1.3520321E+000	-2.7036972E+002
3	0	4.365037889729865E+002	1.3512958E+000	-2.7036618E+002
3	0	4.370037889603555E+002	1.3505079E+000	-2.7036267E+002
3	0	4.375037889477244E+002	1.3497647E+000	-2.7040155E+002
3	0	4.380037889350933E+002	1.3490745E+000	-2.7038742E+002
3	0	4.385037889224623E+002	1.3483858E+000	-2.7036972E+002
3	0	4.390037889098312E+002	1.3476933E+000	-2.7037326E+002
3	0	4.395037888972001E+002	1.3470099E+000	-2.7038031E+002
3	0	4.400037888845691E+002	1.3463081E+000	-2.7040155E+002
3	0	4.405037888719380E+002	1.3455640E+000	-2.7035205E+002
3	0	4.410037888593070E+002	1.3447511E+000	-2.7038385E+002
3	0	4.415037888466759E+002	1.3439835E+000	-2.7038742E+002
3	0	4.420037888340448E+002	1.3432634E+000	-2.7039447E+002
3	0	4.425037888214138E+002	1.3425449E+000	-2.7039801E+002
3	0	4.430037888087827E+002	1.3418287E+000	-2.7037677E+002
3	0	4.435037887961516E+002	1.3411134E+000	-2.7037677E+002
3	0	4.440037887835206E+002	1.3403836E+000	-2.7036618E+002
3	0	4.445037887708895E+002	1.3395934E+000	-2.7039093E+002
3	0	4.450037887582585E+002	1.3387414E+000	-2.7038742E+002
3	0	4.455037887456274E+002	1.3379384E+000	-2.7036267E+002
3	0	4.460037887329963E+002	1.3371778E+000	-2.7037326E+002
3	0	4.465037887203653E+002	1.3364174E+000	-2.7038031E+002
3	0	4.470037887077342E+002	1.3356550E+000	-2.7037677E+002
3	0	4.475037886951031E+002	1.3348930E+000	-2.7039801E+002
3	0	4.480037886824721E+002	1.3341062E+000	-2.7037326E+002
3	0	4.485037886698410E+002	1.3332545E+000	-2.7040155E+002
3	0	4.490037886572100E+002	1.3323432E+000	-2.7036972E+002
3	0	4.495037886445789E+002	1.3314705E+000	-2.7036972E+002
3	0	4.500037886319478E+002	1.3306561E+000	-2.7038742E+002
3	0	4.500041886319377E+002	1.3302157E+000	-2.7041568E+002
3	0	4.955047874824959E+002	1.4214598E+000	-2.7037677E+002
3	0	4.960047874698648E+002	1.4140239E+000	-2.7034851E+002
3	0	4.965047874572338E+002	1.4087542E+000	-2.7039447E+002
3	0	4.970047874446027E+002	1.4047523E+000	-2.7038385E+002
3	0	4.975047874319716E+002	1.4015868E+000	-2.7038742E+002
3	0	4.980047874193406E+002	1.3990222E+000	-2.7036618E+002
3	0	4.985047874067095E+002	1.3968345E+000	-2.7038031E+002
3	0	4.990047873940784E+002	1.3949107E+000	-2.7038742E+002
3	0	4.995047873814474E+002	1.3932232E+000	-2.7036972E+002
3	0	5.000047873688163E+002	1.3916709E+000	-2.7038742E+002
3	0	5.005047873561853E+002	1.3901930E+000	-2.7037677E+002
3	0	5.010047873435542E+002	1.3887614E+000	-2.7036972E+002
3	0	5.015047873309231E+002	1.3874770E+000	-2.7038031E+002
3	0	5.020047873182921E+002	1.3863237E+000	-2.7037326E+002
3	0	5.025047873056610E+002	1.3852460E+000	-2.7040155E+002
3	0	5.030047872930299E+002	1.3842376E+000	-2.7036267E+002
3	0	5.035047872803989E+002	1.3832840E+000	-2.7037677E+002
3	0	5.040047872677678E+002	1.3823631E+000	-2.7037677E+002
3	0	5.045047872551368E+002	1.3814354E+000	-2.7039801E+002
3	0	5.050047872425057E+002	1.3804712E+000	-2.7037677E+002
3	0	5.055047872298746E+002	1.3796006E+000	-2.7036618E+002
3	0	5.060047872172436E+002	1.3788055E+000	-2.7036618E+002
3	0	5.065047872046125E+002	1.3780404E+000	-2.7039801E+002
3	0	5.070047871919815E+002	1.3772943E+000	-2.7036618E+002
3	0	5.075047871793504E+002	1.3765764E+000	-2.7038742E+002
3	0	5.080047871667193E+002	1.3758709E+000	-2.7037677E+002
3	0	5.085047871540883E+002	1.3751235E+000	-2.7038742E+002
3	0	5.090047871414572E+002	1.3743377E+000	-2.7039093E+002
3	0	5.095047871288261E+002	1.3736107E+000	-2.7040860E+002
3	0	5.100047871161951E+002	1.3729572E+000	-2.7040155E+002
3	0	5.105047871035640E+002	1.3723091E+000	-2.7039447E+002
3	0	5.110047870909330E+002	1.3716797E+000	-2.7036267E+002
3	0	5.115047870783019E+002	1.3710604E+000	-2.7035559E+002
3	0	5.120047870656708E+002	1.3704381E+000	-2.7038031E+002
3	0	5.125047870530398E+002	1.3697703E+000	-2.7036618E+002
3	0	5.130047870404087E+002	1.3690383E+000	-2.7038031E+002
3	0	5.135047870277776E+002	1.3683711E+000	-2.7038742E+002
3	0	5.140047870151466E+002	1.3677508E+000	-2.7038031E+002
3	0	5.145047870025155E+002	1.3671277E+000	-2.7038031E+002
3	0	5.150047869898845E+002	1.3664963E+000	-2.7036972E+002
3	0	5.155047869772534E+002	1.3658738E+000	-2.7035559E+002
3	0	5.160047869646223E+002	1.3652427E+000	-2.7037677E+002
3	0	5.165047869519913E+002	1.3645720E+000	-2.7037677E+002
3	0	5.170047869393602E+002	1.3638338E+000	-2.7036618E+002
3	0	5.175047869267291E+002	1.3631594E+000	-2.7037677E+002
3	0	5.180047869140981E+002	1.3625276E+000	-2.7037326E+002
3	0	5.185047869014670E+002	1.3619075E+000	-2.7037326E+002
3	0	5.190047868888360E+002	1.3612770E+000	-2.7036618E+002
3	0	5.195047868762049E+002	1.3606651E+000	-2.7038385E+002
3	0	5.200047868635738E+002	1.3600408E+000	-2.7036972E+002
3	0	5.205047868509428E+002	1.3593779E+000	-2.7037326E+002
3	0	5.210047868383117E+002	1.3586413E+000	-2.7036972E+002
3	0	5.215047868256806E+002	1.3579605E+000	-2.7038031E+002
3	0	5.220047868130496E+002	1.3573335E+000	-2.7040155E+002
3	0	5.225047868004185E+002	1.3567042E+000	-2.7036267E+002
3	0	5.230047867877875E+002	1.3560709E+000	-2.7038742E+002
3	0	5.235047867751564E+002	1.3554569E+000	-2.7040506E+002
3	0	5.240047867625253E+002	1.3548267E+000	-2.7040155E+002
3	0	5.245047867498943E+002	1.3541331E+000	-2.7035559E+002
3	0	5.250047867372632E+002	1.3533895E+000	-2.7037326E+002
3	0	5.255047867246321E+002	1.3526987E+000	-2.7039801E+002
3	0	5.260047867120011E+002	1.3520566E+000	-2.7036267E+002
3	0	5.265047866993700E+002	1.3514116E+000	-2.7039801E+002
3	0	5.270047866867390E+002	1.3507675E+000	-2.7037326E+002
3	0	5.275047866741079E+002	1.3501201E+000	-2.7035559E+002
3	0	5.280047866614768E+002	1.3494720E+000	-2.7038031E+002
3	0	5.285047866488458E+002	1.3487549E+000	-2.7040860E+002
3	0	5.290047866362147E+002	1.3479826E+000	-2.7035559E+002
3	0	5.295047866235836E+002	1.3472625E+000	-2.7038742E+002
3	0	5.300047866109526E+002	1.3465894E+000	-2.7037326E+002
3	0	5.305047865983215E+002	1.3459110E+000	-2.7036267E+002
3	0	5.310047865856905E+002	1.3452274E+000	-2.7041214E+002
3	0	5.315047865730594E+002	1.3445479E+000	-2.7036972E+002
3	0	5.320047865604283E+002	1.3438543E+000	-2.7039093E+002
3	0	5.325047865477973E+002	1.3430907E+000	-2.7038385E+002
3	0	5.330047865351662E+002	1.3422744E+000	-2.7038385E+002
3	0	5.335047865225351E+002	1.3415062E+000	-2.7038385E+002
3	0	5.340047865099041E+002	1.3407760E+000	-2.7036972E+002
3	0	5.345047864972730E+002	1.3400388E+000	-2.7038742E+002
3	0	5.350047864846420E+002	1.3392938E+000	-2.7037326E+002
3	0	5.355047864720109E+002	1.3385434E+000	-2.7035913E+002
3	0	5.360047864593798E+002	1.3377752E+000	-2.7038742E+002
3	0	5.365047864467488E+002	1.3369420E+000	-2.7037326E+002
3	0	5.370047864341177E+002	1.3360487E+000	-2.7038742E+002
3	0	5.375047864214866E+002	1.3352156E+000	-2.7037677E+002
3	0	5.380047864088556E+002	1.3344104E+000	-2.7038031E+002
3	0	5.385047863962245E+002	1.3336002E+000	-2.7036972E+002
3	0	5.390047863835935E+002	1.3327893E+000	-2.7037677E+002
3	0	5.395047863709624E+002	1.3319738E+000	-2.7038385E+002
3	0	5.400047863583313E+002	1.3311574E+000	-2.7037326E+002
3	0	5.400051863583212E+002	1.3307023E+000	-2.7039447E+002
3	0	5.855057852088794E+002	1.4211352E+000	-2.7037326E+002
3	0	5.860057851962483E+002	1.4136382E+000	-2.7036972E+002
3	0	5.865057851836173E+002	1.4084364E+000	-2.7038031E+002
3	0	5.870057851709862E+002	1.4046150E+000	-2.7039093E+002
3	0	5.875057851583551E+002	1.4015968E+000	-2.7038031E+002
3	0	5.880057851457241E+002	1.3990841E+000	-2.7035913E+002
3	0	5.885057851330930E+002	1.3968623E+000	-2.7035913E+002
3	0	5.890057851204620E+002	1.3948312E+000	-2.7039093E+002
3	0	5.895057851078309E+002	1.3930696E+000	-2.7035913E+002
3	0	5.900057850951998E+002	1.3915176E+000	-2.7038742E+002
3	0	5.905057850825688E+002	1.3901035E+000	-2.7038385E+002
3	0	5.910057850699377E+002	1.3888086E+000	-2.7038742E+002
3	0	5.915057850573066E+002	1.3876125E+000	-2.7037326E+002
3	0	5.920057850446756E+002	1.3864748E+000	-2.7035559E+002
3	0	5.925057850320445E+002	1.3853488E+000	-2.7037326E+002
3	0	5.930057850194135E+002	1.3842287E+000	-2.7038385E+002
3	0	5.935057850067824E+002	1.3831996E+000	-2.7037677E+002
3	0	5.940057849941513E+002	1.3822720E+000	-2.7039447E+002
3	0	5.945057849815203E+002	1.3813820E+000	-2.7036267E+002
3	0	5.950057849688892E+002	1.3805231E+000	-2.7039447E+002
3	0	5.955057849562581E+002	1.3797044E+000	-2.7037326E+002
3	0	5.960057849436271E+002	1.3788979E+000	-2.7036972E+002
3	0	5.965057849309960E+002	1.3780490E+000	-2.7038031E+002
3	0	5.970057849183650E+002	1.3771697E+000	-2.7039801E+002
3	0	5.975057849057339E+002	1.3763678E+000	-2.7038742E+002
3	0	5.980057848931028E+002	1.3756413E+000	-2.7038385E+002
3	0	5.985057848804718E+002	1.3749290E+000	-2.7036972E+002
3	0	5.990057848678407E+002	1.3742379E+000	-2.7040155E+002
3	0	5.995057848552096E+002	1.3735681E+000	-2.7038385E+002
3	0	6.000057848425786E+002	1.3728912E+000	-2.7038742E+002
3	0	6.005057848299475E+002	1.3721696E+000	-2.7035913E+002
3	0	6.010057848173165E+002	1.3714107E+000	-2.7040860E+002
3	0	6.015057848046854E+002	1.3707209E+000	-2.7038031E+002
3	0	6.020057847920543E+002	1.3700870E+000	-2.7038385E+002
3	0	6.025057847794233E+002	1.3694673E+000	-2.7037326E+002
3	0	6.030057847667922E+002	1.3688302E+000	-2.7039801E+002
3	0	6.035057847541611E+002	1.3682334E+000	-2.7036618E+002
3	0	6.040057847415301E+002	1.3676149E+000	-2.7039447E+002
3	0	6.045057847288990E+002	1.3669538E+000	-2.7040860E+002
3	0	6.050057847162680E+002	1.3662312E+000	-2.7037326E+002
3	0	6.055057847036369E+002	1.3655816E+000	-2.7040506E+002
3	0	6.060057846910058E+002	1.3649783E+000	-2.7037326E+002
3	0	6.065057846783748E+002	1.3643812E+000	-2.7036972E+002
3	0	6.070057846657437E+002	1.3637778E+000	-2.7037326E+002
3	0	6.075057846531126E+002	1.3631911E+000	-2.7037677E+002
3	0	6.080057846404816E+002	1.3625839E+000	-2.7037677E+002
3	0	6.085057846278505E+002	1.3619152E+000	-2.7036618E+002
3	0	6.090057846152195E+002	1.3611969E+000	-2.7036618E+002
3	0	6.095057846025884E+002	1.3605436E+000	-2.7036267E+002
3	0	6.100057845899573E+002	1.3599347E+000	-2.7038031E+002
3	0	6.105057845773263E+002	1.3593223E+000	-2.7037677E+002
3	0	6.110057845646952E+002	1.3587048E+000	-2.7038385E+002
3	0	6.115057845520641E+002	1.3581011E+000	-2.7039801E+002
3	0	6.120057845394331E+002	1.3574852E+000	-2.7038031E+002
3	0	6.125057845268020E+002	1.3568105E+000	-2.7036972E+002
3	0	6.130057845141710E+002	1.3560756E+000	-2.7039801E+002
3	0	6.135057845015399E+002	1.3554080E+000	-2.7038385E+002
3	0	6.140057844889088E+002	1.3547769E+000	-2.7036972E+002
3	0	6.145057844762778E+002	1.3541373E+000	-2.7038742E+002
3	0	6.150057844636467E+002	1.3534901E+000	-2.7038031E+002
3	0	6.155057844510156E+002	1.3528352E+000	-2.7039093E+002
3	0	6.160057844383846E+002	1.3521723E+000	-2.7037677E+002
3	0	6.165057844257535E+002	1.3514522E+000	-2.7041214E+002
3	0	6.170057844131225E+002	1.3506719E+000	-2.7039447E+002
3	0	6.175057844004914E+002	1.3499544E+000	-2.7037326E+002
3	0	6.180057843878603E+002	1.3492832E+000	-2.7038742E+002
3	0	6.185057843752293E+002	1.3486108E+000	-2.7038031E+002
3	0	6.190057843625982E+002	1.3479363E+000	-2.7038385E+002
3	0	6.195057843499671E+002	1.3472655E+000	-2.7038742E+002
3	0	6.200057843373361E+002	1.3465785E+000	-2.7036267E+002
3	0	6.205057843247050E+002	1.3458369E+000	-2.7036267E+002
3	0	6.210057843120740E+002	1.3450471E+000	-2.7038385E+002
3	0	6.215057842994429E+002	1.3443092E+000	-2.7039447E+002
3	0	6.220057842868118E+002	1.3436087E+000	-2.7036267E+002
3	0	6.225057842741808E+002	1.3429153E+000	-2.7036972E+002
3	0	6.230057842615497E+002	1.3422036E+000	-2.7037677E+002
3	0	6.235057842489186E+002	1.3415089E+000	-2.7038742E+002
3	0	6.240057842362876E+002	1.3407979E+000	-2.7038385E+002
3	0	6.245057842236565E+002	1.3400245E+000	-2.7037326E+002
3	0	6.250057842110255E+002	1.3391948E+000	-2.7037326E+002
3	0	6.255057841983944E+002	1.3384187E+000	-2.7037326E+002
3	0	6.260057841857633E+002	1.3376818E+000	-2.7037677E+002
3	0	6.265057841731323E+002	1.3369424E+000	-2.7039447E+002
3	0	6.270057841605012E+002	1.3361987E+000	-2.7038385E+002
3	0	6.275057841478701E+002	1.3354641E+000	-2.7039447E+002
3	0	6.280057841352391E+002	1.3346975E+000	-2.7038031E+002
3	0	6.285057841226080E+002	1.3338720E+000	-2.7039093E+002
3	0	6.290057841099770E+002	1.3329827E+000	-2.7038031E+002
3	0	6.295057840973459E+002	1.3321375E+000	-2.7040155E+002
3	0	6.300057840847148E+002	1.3313466E+000	-2.7036972E+002
3	0	6.300061840847047E+002	1.3309504E+000	-2.7039093E+002
3	0	6.755067829352629E+002	1.4213595E+000	-2.7036618E+002
3	0	6.760067829226318E+002	1.4139048E+000	-2.7039801E+002
3	0	6.765067829100008E+002	1.4086157E+000	-2.7039093E+002
3	0	6.770067828973697E+002	1.4046088E+000	-2.7039801E+002
3	0	6.775067828847386E+002	1.4014471E+000	-2.7038385E+002
3	0	6.780067828721076E+002	1.3988700E+000	-2.7039447E+002
3	0	6.785067828594765E+002	1.3966677E+000	-2.7036618E+002
3	0	6.790067828468455E+002	1.3947368E+000	-2.7036972E+002
3	0	6.795067828342144E+002	1.3930292E+000	-2.7038385E+002
3	0	6.800067828215833E+002	1.3914704E+000	-2.7039447E+002
3	0	6.805067828089523E+002	1.3899884E+000	-2.7040155E+002
3	0	6.810067827963212E+002	1.3885550E+000	-2.7036618E+002
3	0	6.815067827836901E+002	1.3872744E+000	-2.7037677E+002
3	0	6.820067827710591E+002	1.3861127E+000	-2.7036267E+002
3	0	6.825067827584280E+002	1.3850268E+000	-2.7037677E+002
3	0	6.830067827457970E+002	1.3840092E+000	-2.7039093E+002
3	0	6.835067827331659E+002	1.3830478E+000	-2.7035205E+002
3	0	6.840067827205348E+002	1.3821236E+000	-2.7039801E+002
3	0	6.845067827079038E+002	1.3811870E+000	-2.7036618E+002
3	0	6.850067826952727E+002	1.3802264E+000	-2.7038742E+002
3	0	6.855067826826416E+002	1.3793552E+000	-2.7038031E+002
3	0	6.860067826700106E+002	1.3785603E+000	-2.7040506E+002
3	0	6.865067826573795E+002	1.3777907E+000	-2.7036267E+002
3	0	6.870067826447485E+002	1.3770387E+000	-2.7037677E+002
3	0	6.875067826321174E+002	1.3763199E+000	-2.7037677E+002
3	0	6.880067826194863E+002	1.3756074E+000	-2.7038031E+002
3	0	6.885067826068553E+002	1.3748652E+000	-2.7035205E+002
3	0	6.890067825942242E+002	1.3740819E+000	-2.7038031E+002
3	0	6.895067825815931E+002	1.3733591E+000	-2.7038031E+002
3	0	6.900067825689621E+002	1.3726971E+000	-2.7037677E+002
3	0	6.905067825563310E+002	1.3720543E+000	-2.7037326E+002
3	0	6.910067825437000E+002	1.3714204E+000	-2.7036267E+002
3	0	6.915067825310689E+002	1.3708007E+000	-2.7037677E+002
3	0	6.920067825184378E+002	1.3701791E+000	-2.7039801E+002
3	0	6.925067825058068E+002	1.3695120E+000	-2.7037326E+002
3	0	6.930067824931757E+002	1.3687800E+000	-2.7038031E+002
3	0	6.935067824805446E+002	1.3681283E+000	-2.7035559E+002
3	0	6.940067824679136E+002	1.3675089E+000	-2.7036618E+002
3	0	6.945067824552825E+002	1.3668983E+000	-2.7036972E+002
3	0	6.950067824426515E+002	1.3662786E+000	-2.7035559E+002
3	0	6.955067824300204E+002	1.3656738E+000	-2.7036972E+002
3	0	6.960067824173893E+002	1.3650614E+000	-2.7036972E+002
3	0	6.965067824047583E+002	1.3643799E+000	-2.7039801E+002
3	0	6.970067823921272E+002	1.3636408E+000	-2.7038031E+002
3	0	6.975067823794961E+002	1.3629700E+000	-2.7038742E+002
3	0	6.980067823668651E+002	1.3623369E+000	-2.7037326E+002
3	0	6.985067823542340E+002	1.3617125E+000	-2.7038742E+002
3	0	6.990067823416030E+002	1.3610833E+000	-2.7037326E+002
3	0	6.995067823289719E+002	1.3604748E+000	-2.7038031E+002
3	0	7.000067823163408E+002	1.3598479E+000	-2.7037677E+002
3	0	7.005067823037098E+002	1.3591641E+000	-2.7038742E+002
3	0	7.010067822910787E+002	1.3584307E+000	-2.7037677E+002
3	0	7.015067822784476E+002	1.3577543E+000	-2.7038385E+002
3	0	7.020067822658166E+002	1.3571260E+000	-2.7039447E+002
3	0	7.025067822531855E+002	1.3564970E+000	-2.7038031E+002
3	0	7.030067822405545E+002	1.3558806E+000	-2.7035205E+002
3	0	7.035067822279234E+002	1.3552644E+000	-2.7035559E+002
3	0	7.040067822152923E+002	1.3546388E+000	-2.7039801E+002
3	0	7.045067822026613E+002	1.3539466E+000	-2.7038385E+002
3	0	7.050067821900302E+002	1.3532000E+000	-2.7036618E+002
3	0	7.055067821773991E+002	1.3525180E+000	-2.7037326E+002
3	0	7.060067821647681E+002	1.3518822E+000	-2.7037326E+002
3	0	7.065067821521370E+002	1.3512412E+000	-2.7037677E+002
3	0	7.070067821395060E+002	1.3506075E+000	-2.7036618E+002
3	0	7.075067821268749E+002	1.3499733E+000	-2.7040155E+002
3	0	7.080067821142438E+002	1.3493321E+000	-2.7037326E+002
3	0	7.085067821016128E+002	1.3486249E+000	-2.7036972E+002
3	0	7.090067820889817E+002	1.3478591E+000	-2.7036618E+002
3	0	7.095067820763506E+002	1.3471628E+000	-2.7037677E+002
3	0	7.100067820637196E+002	1.3464977E+000	-2.7039093E+002
3	0	7.105067820510885E+002	1.3458335E+000	-2.7034851E+002
3	0	7.110067820384575E+002	1.3451705E+000	-2.7039447E+002
3	0	7.115067820258264E+002	1.3445064E+000	-2.7038031E+002
3	0	7.120067820131953E+002	1.3438275E+000	-2.7037326E+002
3	0	7.125067820005643E+002	1.3430938E+000	-2.7039801E+002
3	0	7.130067819879332E+002	1.3422985E+000	-2.7039093E+002
3	0	7.135067819753021E+002	1.3415591E+000	-2.7038385E+002
3	0	7.140067819626711E+002	1.3408574E+000	-2.7037326E+002
3	0	7.145067819500400E+002	1.3401582E+000	-2.7036972E+002
3	0	7.150067819374090E+002	1.3394551E+000	-2.7035205E+002
3	0	7.155067819247779E+002	1.3387400E+000	-2.7037326E+002
3	0	7.160067819121468E+002	1.3379987E+000	-2.7038742E+002
3	0	7.165067818995158E+002	1.3371962E+000	-2.7038385E+002
3	0	7.170067818868847E+002	1.3363322E+000	-2.7036972E+002
3	0	7.175067818742536E+002	1.3355314E+000	-2.7036618E+002
3	0	7.180067818616226E+002	1.3347538E+000	-2.7036618E+002
3	0	7.185067818489915E+002	1.3339795E+000	-2.7040860E+002
3	0	7.190067818363605E+002	1.3332000E+000	-2.7039093E+002
3	0	7.195067818237294E+002	1.3324277E+000	-2.7039447E+002
3	0	7.200067818110983E+002	1.3316422E+000	-2.7038031E+002
3	0	7.200071818110882E+002	1.3312557E+000	-2.7040860E+002
3	0	7.655077806616464E+002	1.4210088E+000	-2.7036972E+002
3	0	7.660077806490153E+002	1.4134703E+000	-2.7036267E+002
3	0	7.665077806363843E+002	1.4082569E+000	-2.7037677E+002
3	0	7.670077806237532E+002	1.4044274E+000	-2.7037677E+002
3	0	7.675077806111221E+002	1.4014020E+000	-2.7037677E+002
3	0	7.680077805984911E+002	1.3988807E+000	-2.7036618E+002
3	0	7.685077805858600E+002	1.3966589E+000	-2.7039801E+002
3	0	7.690077805732290E+002	1.3946260E+000	-2.7039447E+002
3	0	7.695077805605979E+002	1.3928542E+000	-2.7041214E+002
3	0	7.700077805479668E+002	1.3912915E+000	-2.7038385E+002
3	0	7.705077805353358E+002	1.3898745E+000	-2.7036267E+002
3	0	7.710077805227047E+002	1.3885803E+000	-2.7036972E+002
3	0	7.715077805100736E+002	1.3873734E+000	-2.7037677E+002
3	0	7.720077804974426E+002	1.3862360E+000	-2.7038031E+002
3	0	7.725077804848115E+002	1.3851051E+000	-2.7037326E+002
3	0	7.730077804721805E+002	1.3839866E+000	-2.7039447E+002
3	0	7.735077804595494E+002	1.3829653E+000	-2.7038742E+002
3	0	7.740077804469183E+002	1.3820368E+000	-2.7037677E+002
3	0	7.745077804342873E+002	1.3811483E+000	-2.7036267E+002
3	0	7.750077804216562E+002	1.3803065E+000	-2.7036972E+002
3	0	7.755077804090251E+002	1.3794909E+000	-2.7036267E+002
3	0	7.760077803963941E+002	1.3786879E+000	-2.7039801E+002
3	0	7.765077803837630E+002	1.3778526E+000	-2.7036972E+002
3	0	7.770077803711320E+002	1.3769652E+000	-2.7038031E+002
3	0	7.775077803585009E+002	1.3761655E+000	-2.7038742E+002
3	0	7.780077803458698E+002	1.3754245E+000	-2.7035913E+002
3	0	7.785077803332388E+002	1.3747090E+000	-2.7039447E+002
3	0	7.790077803206077E+002	1.3740048E+000	-2.7038742E+002
3	0	7.795077803079766E+002	1.3733305E+000	-2.7036972E+002
3	0	7.800077802953456E+002	1.3726542E+000	-2.7037677E+002
3	0	7.805077802827145E+002	1.3719335E+000	-2.7034851E+002
3	0	7.810077802700835E+002	1.3711668E+000	-2.7039093E+002
3	0	7.815077802574524E+002	1.3704793E+000	-2.7038385E+002
3	0	7.820077802448213E+002	1.3698392E+000	-2.7038742E+002
3	0	7.825077802321903E+002	1.3692123E+000	-2.7038385E+002
3	0	7.830077802195592E+002	1.3685875E+000	-2.7037326E+002
3	0	7.835077802069281E+002	1.3679804E+000	-2.7035559E+002
3	0	7.840077801942971E+002	1.3673606E+000	-2.7036972E+002
3	0	7.845077801816660E+002	1.3666923E+000	-2.7036618E+002
3	0	7.850077801690350E+002	1.3659716E+000	-2.7038031E+002
3	0	7.855077801564039E+002	1.3653167E+000	-2.7039093E+002
3	0	7.860077801437728E+002	1.3647155E+000	-2.7037677E+002
3	0	7.865077801311418E+002	1.3641165E+000	-2.7038031E+002
3	0	7.870077801185107E+002	1.3635170E+000	-2.7038031E+002
3	0	7.875077801058796E+002	1.3629335E+000	-2.7038742E+002
3	0	7.880077800932486E+002	1.3623226E+000	-2.7038742E+002
3	0	7.885077800806175E+002	1.3616695E+000	-2.7037326E+002
3	0	7.890077800679865E+002	1.3609570E+000	-2.7037326E+002
3	0	7.895077800553554E+002	1.3603096E+000	-2.7036618E+002
3	0	7.900077800427243E+002	1.3597023E+000	-2.7035559E+002
3	0	7.905077800300933E+002	1.3590934E+000	-2.7040860E+002
3	0	7.910077800174622E+002	1.3584820E+000	-2.7036972E+002
3	0	7.915077800048311E+002	1.3578922E+000	-2.7038031E+002
3	0	7.920077799922001E+002	1.3572738E+000	-2.7039801E+002
3	0	7.925077799795690E+002	1.3566023E+000	-2.7038742E+002
3	0	7.930077799669380E+002	1.3558823E+000	-2.7035913E+002
3	0	7.935077799543069E+002	1.3552238E+000	-2.7037677E+002
3	0	7.940077799416758E+002	1.3545942E+000	-2.7039447E+002
3	0	7.945077799290448E+002	1.3539653E+000	-2.7036618E+002
3	0	7.950077799164137E+002	1.3533419E+000	-2.7037677E+002
3	0	7.955077799037826E+002	1.3527097E+000	-2.7036267E+002
3	0	7.960077798911516E+002	1.3520656E+000	-2.7037326E+002
3	0	7.965077798785205E+002	1.3513632E+000	-2.7037677E+002
3	0	7.970077798658895E+002	1.3506095E+000	-2.7038031E+002
3	0	7.975077798532584E+002	1.3499140E+000	-2.7038385E+002
3	0	7.980077798406273E+002	1.3492485E+000	-2.7037677E+002
3	0	7.985077798279963E+002	1.3485813E+000	-2.7039093E+002
3	0	7.990077798153652E+002	1.3479241E+000	-2.7037326E+002
3	0	7.995077798027341E+002	1.3472669E+000	-2.7038031E+002
3	0	8.000077797901031E+002	1.3465940E+000	-2.7036618E+002
3	0	8.005077797774720E+002	1.3458747E+000	-2.7037326E+002
3	0	8.010077797648410E+002	1.3451043E+000	-2.7035913E+002
3	0	8.015077797522099E+002	1.3443862E+000	-2.7038385E+002
3	0	8.020077797395788E+002	1.3437054E+000	-2.7035913E+002
3	0	8.025077797269478E+002	1.3430238E+000	-2.7037326E+002
3	0	8.030077797143167E+002	1.3423480E+000	-2.7036972E+002
3	0	8.035077797016856E+002	1.3416783E+000	-2.7039447E+002
3	0	8.040077796890546E+002	1.3409880E+000	-2.7037326E+002
3	0	8.045077796764235E+002	1.3402443E+000	-2.7038742E+002
3	0	8.050077796637925E+002	1.3394543E+000	-2.7038031E+002
3	0	8.055077796511614E+002	1.3387104E+000	-2.7038031E+002
3	0	8.060077796385303E+002	1.3379982E+000	-2.7035913E+002
3	0	8.065077796258993E+002	1.3372886E+000	-2.7036618E+002
3	0	8.070077796132682E+002	1.3365797E+000	-2.7037677E+002
3	0	8.075077796006372E+002	1.3358698E+000	-2.7035913E+002
3	0	8.080077795880061E+002	1.3351507E+000	-2.7039093E+002
3	0	8.085077795753750E+002	1.3343662E+000	-2.7037677E+002
3	0	8.090077795627440E+002	1.3335234E+000	-2.7037677E+002
3	0	8.095077795501129E+002	1.3327318E+000	-2.7039447E+002
3	0	8.100077795374818E+002	1.3319710E+000	-2.7039093E+002
3	0	8.100081795374717E+002	1.3315802E+000	-2.7036972E+002
3	0	8.555087783880299E+002	1.4212551E+000	-2.7036267E+002
3	0	8.560087783753988E+002	1.4137701E+000	-2.7038385E+002
3	0	8.565087783627678E+002	1.4084805E+000	-2.7038385E+002
3	0	8.570087783501367E+002	1.4044716E+000	-2.7035913E+002
3	0	8.575087783375056E+002	1.4013104E+000	-2.7036267E+002
3	0	8.580087783248746E+002	1.3987209E+000	-2.7041214E+002
3	0	8.585087783122435E+002	1.3964918E+000	-2.7039093E+002
3	0	8.590087782996125E+002	1.3945501E+000	-2.7037677E+002
3	0	8.595087782869814E+002	1.3928344E+000	-2.7041214E+002
3	0	8.600087782743503E+002	1.3912576E+000	-2.7038031E+002
3	0	8.605087782617193E+002	1.3897655E+000	-2.7036972E+002
3	0	8.610087782490882E+002	1.3883308E+000	-2.7038031E+002
3	0	8.615087782364571E+002	1.3870455E+000	-2.7038742E+002
3	0	8.620087782238261E+002	1.3858721E+000	-2.7039447E+002
3	0	8.625087782111950E+002	1.3847660E+000	-2.7038742E+002
3	0	8.630087781985640E+002	1.3837416E+000	-2.7038385E+002
3	0	8.635087781859329E+002	1.3827648E+000	-2.7036267E+002
3	0	8.640087781733018E+002	1.3818310E+000	-2.7036972E+002
3	0	8.645087781606708E+002	1.3808845E+000	-2.7038385E+002
3	0	8.650087781480397E+002	1.3799187E+000	-2.7037326E+002
3	0	8.655087781354086E+002	1.3790576E+000	-2.7036618E+002
3	0	8.660087781227776E+002	1.3782481E+000	-2.7037677E+002
3	0	8.665087781101465E+002	1.3774582E+000	-2.7038742E+002
3	0	8.670087780975155E+002	1.3767147E+000	-2.7039801E+002
3	0	8.675087780848844E+002	1.3759936E+000	-2.7035913E+002
3	0	8.680087780722533E+002	1.3752738E+000	-2.7039093E+002
3	0	8.685087780596223E+002	1.3745247E+000	-2.7038031E+002
3	0	8.690087780469912E+002	1.3737375E+000	-2.7039093E+002
3	0	8.695087780343601E+002	1.3730358E+000	-2.7037326E+002
3	0	8.700087780217291E+002	1.3723629E+000	-2.7040155E+002
3	0	8.705087780090980E+002	1.3717072E+000	-2.7035205E+002
3	0	8.710087779964670E+002	1.3710773E+000	-2.7038385E+002
3	0	8.715087779838359E+002	1.3704585E+000	-2.7035913E+002
3	0	8.720087779712048E+002	1.3698388E+000	-2.7033438E+002
3	0	8.725087779585738E+002	1.3691624E+000	-2.7037677E+002
3	0	8.730087779459427E+002	1.3684458E+000	-2.7040860E+002
3	0	8.735087779333116E+002	1.3678063E+000	-2.7037326E+002
3	0	8.740087779206806E+002	1.3671895E+000	-2.7039447E+002
3	0	8.745087779080495E+002	1.3665718E+000	-2.7038385E+002
3	0	8.750087778954185E+002	1.3659704E+000	-2.7039093E+002
3	0	8.755087778827874E+002	1.3653791E+000	-2.7037677E+002
3	0	8.760087778701563E+002	1.3647751E+000	-2.7036267E+002
3	0	8.765087778575253E+002	1.3641088E+000	-2.7040155E+002
3	0	8.770087778448942E+002	1.3633943E+000	-2.7036267E+002
3	0	8.775087778322631E+002	1.3627422E+000	-2.7038742E+002
3	0	8.780087778196321E+002	1.3621119E+000	-2.7037677E+002
3	0	8.785087778070010E+002	1.3614792E+000	-2.7038385E+002
3	0	8.790087777943700E+002	1.3608606E+000	-2.7036267E+002
3	0	8.795087777817389E+002	1.3602508E+000	-2.7038742E+002
3	0	8.800087777691078E+002	1.3596356E+000	-2.7038031E+002
3	0	8.805087777564768E+002	1.3589584E+000	-2.7037326E+002
3	0	8.810087777438457E+002	1.3582405E+000	-2.7036618E+002
3	0	8.815087777312147E+002	1.3575844E+000	-2.7037326E+002
3	0	8.820087777185836E+002	1.3569571E+000	-2.7036618E+002
3	0	8.825087777059525E+002	1.3563383E+000	-2.7036972E+002
3	0	8.830087776933215E+002	1.3557235E+000	-2.7036267E+002
3	0	8.835087776806904E+002	1.3551210E+000	-2.7037677E+002
3	0	8.840087776680593E+002	1.3545002E+000	-2.7037326E+002
3	0	8.845087776554283E+002	1.3538197E+000	-2.7040860E+002
3	0	8.850087776427972E+002	1.3530968E+000	-2.7040155E+002
3	0	8.855087776301662E+002	1.3524413E+000	-2.7036618E+002
3	0	8.860087776175351E+002	1.3518095E+000	-2.7038031E+002
3	0	8.865087776049040E+002	1.3511715E+000	-2.7039801E+002
3	0	8.870087775922730E+002	1.3505225E+000	-2.7037677E+002
3	0	8.875087775796419E+002	1.3497587E+000	-2.7038742E+002
3	0	8.880087775670108E+002	1.3489563E+000	-2.7035205E+002
3	0	8.885087775543798E+002	1.3481134E+000	-2.7037677E+002
3	0	8.890087775417487E+002	1.3472482E+000	-2.7037326E+002
3	0	8.895087775291177E+002	1.3464661E+000	-2.7034497E+002
3	0	8.900087775164866E+002	1.3457229E+000	-2.7036618E+002
3	0	8.905087775038555E+002	1.3449849E+000	-2.7037326E+002
3	0	8.910087774912245E+002	1.3442644E+000	-2.7035913E+002
3	0	8.915087774785934E+002	1.3435477E+000	-2.7035913E+002
3	0	8.920087774659623E+002	1.3428254E+000	-2.7038742E+002
3	0	8.925087774533313E+002	1.3420619E+000	-2.7039801E+002
3	0	8.930087774407002E+002	1.3412567E+000	-2.7037326E+002
3	0	8.935087774280692E+002	1.3405205E+000	-2.7038031E+002
3	0	8.940087774154381E+002	1.3398148E+000	-2.7035559E+002
3	0	8.945087774028070E+002	1.3391193E+000	-2.7040155E+002
3	0	8.950087773901760E+002	1.3384347E+000	-2.7038031E+002
3	0	8.955087773775449E+002	1.3377538E+000	-2.7037326E+002
3	0	8.960087773649138E+002	1.3370587E+000	-2.7037326E+002
3	0	8.965087773522828E+002	1.3363063E+000	-2.7038031E+002
3	0	8.970087773396517E+002	1.3355186E+000	-2.7038031E+002
3	0	8.975087773270207E+002	1.3347951E+000	-2.7040155E+002
3	0	8.980087773143896E+002	1.3341041E+000	-2.7039093E+002
3	0	8.985087773017585E+002	1.3334147E+000	-2.7038031E+002
3	0	8.990087772891275E+002	1.3327502E+000	-2.7038385E+002
3	0	8.995087772764964E+002	1.3320949E+000	-2.7036618E+002
3	0	9.000087772638653E+002	1.3314469E+000	-2.7040860E+002
3	0	9.000091772638552E+002	1.3311508E+000	-2.7039801E+002
3	0	9.455097761144134E+002	1.4207486E+000	-2.7039093E+002
3	0	9.460097761017823E+002	1.4131594E+000	-2.7041568E+002
3	0	9.465097760891513E+002	1.4079059E+000	-2.7038031E+002
3	0	9.470097760765202E+002	1.4040461E+000	-2.7038031E+002
3	0	9.475097760638891E+002	1.4009792E+000	-2.7039093E+002
3	0	9.480097760512581E+002	1.3984144E+000	-2.7037677E+002
3	0	9.485097760386270E+002	1.3961220E+000	-2.7037326E+002
3	0	9.490097760259960E+002	1.3940065E+000	-2.7037326E+002
3	0	9.495097760133649E+002	1.3921577E+000	-2.7037677E+002
3	0	9.500097760007338E+002	1.3905202E+000	-2.7040860E+002
3	0	9.505097759881028E+002	1.3890266E+000	-2.7039801E+002
3	0	9.510097759754717E+002	1.3876303E+000	-2.7037677E+002
3	0	9.515097759628406E+002	1.3863293E+000	-2.7038031E+002
3	0	9.520097759502096E+002	1.3850832E+000	-2.7039801E+002
3	0	9.525097759375785E+002	1.3838445E+000	-2.7035559E+002
3	0	9.530097759249475E+002	1.3825896E+000	-2.7037326E+002
3	0	9.535097759123164E+002	1.3814554E+000	-2.7039447E+002
3	0	9.540097758996853E+002	1.3804284E+000	-2.7038742E+002
3	0	9.545097758870543E+002	1.3794442E+000	-2.7036267E+002
3	0	9.550097758744232E+002	1.3784935E+000	-2.7038385E+002
3	0	9.555097758617922E+002	1.3775778E+000	-2.7037677E+002
3	0	9.560097758491611E+002	1.3766680E+000	-2.7038742E+002
3	0	9.565097758365300E+002	1.3757215E+000	-2.7036618E+002
3	0	9.570097758238990E+002	1.3747433E+000	-2.7041568E+002
3	0	9.575097758112679E+002	1.3738585E+000	-2.7039093E+002
3	0	9.580097757986368E+002	1.3730520E+000	-2.7038031E+002
3	0	9.585097757860058E+002	1.3722714E+000	-2.7039447E+002
3	0	9.590097757733747E+002	1.3715054E+000	-2.7038742E+002
3	0	9.595097757607437E+002	1.3707737E+000	-2.7038031E+002
3	0	9.600097757481126E+002	1.3700500E+000	-2.7038742E+002
3	0	9.605097757354815E+002	1.3692906E+000	-2.7039447E+002
3	0	9.610097757228505E+002	1.3684846E+000	-2.7035559E+002
3	0	9.615097757102194E+002	1.3677809E+000	-2.7035913E+002
3	0	9.620097756975883E+002	1.3671414E+000	-2.7036972E+002
3	0	9.625097756849573E+002	1.3665086E+000	-2.7039093E+002
3	0	9.630097756723262E+002	1.3659000E+000	-2.7038385E+002
3	0	9.635097756596952E+002	1.3653107E+000	-2.7038031E+002
3	0	9.640097756470641E+002	1.3647118E+000	-2.7039093E+002
3	0	9.645097756344330E+002	1.3640600E+000	-2.7039093E+002
3	0	9.650097756218020E+002	1.3633618E+000	-2.7035205E+002
3	0	9.655097756091709E+002	1.3627371E+000	-2.7036972E+002
3	0	9.660097755965398E+002	1.3621743E+000	-2.7039447E+002
3	0	9.665097755839088E+002	1.3616283E+000	-2.7038385E+002
3	0	9.670097755712777E+002	1.3610795E+000	-2.7039801E+002
3	0	9.675097755586467E+002	1.3605468E+000	-2.7035913E+002
3	0	9.680097755460156E+002	1.3599920E+000	-2.7033789E+002
3	0	9.685097755333845E+002	1.3593711E+000	-2.7038031E+002
3	0	9.690097755207535E+002	1.3586969E+000	-2.7037677E+002
3	0	9.695097755081224E+002	1.3581076E+000	-2.7038385E+002
3	0	9.700097754954913E+002	1.3575637E+000	-2.7037326E+002
3	0	9.705097754828603E+002	1.3570251E+000	-2.7037326E+002
3	0	9.710097754702292E+002	1.3564892E+000	-2.7039801E+002
3	0	9.715097754575982E+002	1.3559619E+000	-2.7039093E+002
3	0	9.720097754449671E+002	1.3554099E+000	-2.7036267E+002
3	0	9.725097754323360E+002	1.3547891E+000	-2.7038385E+002
3	0	9.730097754197050E+002	1.3541166E+000	-2.7040860E+002
3	0	9.735097754070739E+002	1.3535196E+000	-2.7037326E+002
3	0	9.740097753944428E+002	1.3529768E+000	-2.7037326E+002
3	0	9.745097753818118E+002	1.3524281E+000	-2.7038742E+002
3	0	9.750097753691807E+002	1.3518809E+000	-2.7037677E+002
3	0	9.755097753565497E+002	1.3513279E+000	-2.7038742E+002
3	0	9.760097753439186E+002	1.3507564E+000	-2.7037677E+002
3	0	9.765097753312875E+002	1.3501273E+000	-2.7036972E+002
3	0	9.770097753186565E+002	1.3494422E+000	-2.7039093E+002
3	0	9.775097753060254E+002	1.3488169E+000	-2.7036972E+002
3	0	9.780097752933943E+002	1.3482527E+000	-2.7035559E+002
3	0	9.785097752807633E+002	1.3476906E+000	-2.7039801E+002
3	0	9.790097752681322E+002	1.3471438E+000	-2.7035913E+002
3	0	9.795097752555012E+002	1.3465977E+000	-2.7040155E+002
3	0	9.800097752428701E+002	1.3460447E+000	-2.7037677E+002
3	0	9.805097752302390E+002	1.3454379E+000	-2.7037677E+002
3	0	9.810097752176080E+002	1.3447789E+000	-2.7038742E+002
3	0	9.815097752049769E+002	1.3441992E+000	-2.7037326E+002
3	0	9.820097751923458E+002	1.3436704E+000	-2.7040860E+002
3	0	9.825097751797148E+002	1.3431499E+000	-2.7038742E+002
3	0	9.830097751670837E+002	1.3426247E+000	-2.7038031E+002
3	0	9.835097751544527E+002	1.3421193E+000	-2.7039447E+002
3	0	9.840097751418216E+002	1.3415954E+000	-2.7038742E+002
3	0	9.845097751291905E+002	1.3409988E+000	-2.7038385E+002
3	0	9.850097751165595E+002	1.3403587E+000	-2.7038385E+002
3	0	9.855097751039284E+002	1.3397833E+000	-2.7036267E+002
3	0	9.860097750912973E+002	1.3392663E+000	-2.7037677E+002
3	0	9.865097750786663E+002	1.3387400E+000	-2.7038031E+002
3	0	9.870097750660352E+002	1.3382156E+000	-2.7035913E+002
3	0	9.875097750534042E+002	1.3376911E+000	-2.7037326E+002
3	0	9.880097750407731E+002	1.3371401E+000	-2.7038742E+002
3	0	9.885097750281420E+002	1.3365254E+000	-2.7039447E+002
3	0	9.890097750155110E+002	1.3358557E+000	-2.7037677E+002
3	0	9.895097750028799E+002	1.3352648E+000	-2.7038742E+002
3	0	9.900097749902488E+002	1.3347074E+000	-2.7038385E+002
3	0	9.900101749902387E+002	1.3343569E+000	-2.7037326E+002