EC-Lab ASCII FILE
Nb header lines : 55                          

Open Circuit Voltage

Run on channel : 1 (SN 81504)
User : 
CE vs. WE compliance from -10 V to 10 V
Electrode connection : standard
Potential control : Ewe
Ewe ctrl range : min = -2.50 V, max = 2.50 V
Safety Limits :
	Do not start on E overload
Acquisition started on : 05/10/2026 02:45:19.470
Loaded Setting File :  C:\PEM-WE_measurements\2026\372_IV_IV IrOx, 5 min Pt, 30 min C, etched cathode\new station\Loopeis new\1,46 V different time gaps closed cell\Loopeis 1,46V_60s_4_PEIS from 650Hz to 100Hz.mps
Saved on :
	File : L_14_Loopeis 1,46V_60s_4_PEIS from 650Hz to 100Hz_02_OCV_C01.mpr
	Directory : C:\PEM-WE_measurements\2026\372_IV_IV IrOx, 5 min Pt, 30 min C, etched cathode\new station\Loopeis new\1,46 V different time gaps closed cell\
	Host : 192.168.0.2
Device : SP-150e (SN .005491)
Address : 192.168.0.91
EC-LAB for windows v11.71 (software)
Internet server v28.00 (firmware)
Command interpretor v14.01 (firmware)
Electrode material : 
Initial state : 
Electrolyte : 
Comments : 
Current amplifier : SP-150eB-20A
Electrode surface area : 0.001 cm²
Characteristic mass : 0.001 g
Equivalent Weight : 0.000 g/eq.
Density : 0.000 g/cm3
Volume (V) : 0.001 cm³
Record Analogic IN 1
Text export
   Mode : Standard
   Time format : Elapsed
Cycle Definition : Charge/Discharge alternance
External device configuration :
   device type : Temperature Probe
   device name : Other
   Analog IN 1 : 
      unit : T/Â°C
      max : 100.000 at 2.000 V
      min : 0.000 at 1.460 V
tR (h:m:s)          0:01:0.0000         
dER/dt (mV/h)       1.0                 
record              <Ewe>               
dER (mV)            10.00               
dtR (s)             0.5000              
E range min (V)     -2.500              
E range max (V)     2.500               

mode	error	time/s	<Ewe/V>	Analog IN 1/V	
3	0	4.549979885057837E+001	1.4158677E+000	-2.7035913E+002
3	0	4.599979883794731E+001	1.4068210E+000	-2.7041214E+002
3	0	4.649979882531625E+001	1.4007277E+000	-2.7038742E+002
3	0	4.699979881268519E+001	1.3961210E+000	-2.7040155E+002
3	0	4.749979880005412E+001	1.3923954E+000	-2.7038031E+002
3	0	4.799979878742306E+001	1.3893245E+000	-2.7037326E+002
3	0	4.849979877479200E+001	1.3866665E+000	-2.7039093E+002
3	0	4.899979876216094E+001	1.3843007E+000	-2.7037677E+002
3	0	4.949979874952987E+001	1.3821701E+000	-2.7036972E+002
3	0	4.999979873689881E+001	1.3802266E+000	-2.7038385E+002
3	0	5.049979872426775E+001	1.3783853E+000	-2.7039093E+002
3	0	5.099979871163669E+001	1.3765893E+000	-2.7037677E+002
3	0	5.149979869900562E+001	1.3749106E+000	-2.7036618E+002
3	0	5.199979868637456E+001	1.3734163E+000	-2.7038742E+002
3	0	5.249979867374350E+001	1.3720233E+000	-2.7039093E+002
3	0	5.299979866111244E+001	1.3707143E+000	-2.7038031E+002
3	0	5.349979864848137E+001	1.3694925E+000	-2.7040860E+002
3	0	5.399979863585031E+001	1.3683316E+000	-2.7038385E+002
3	0	5.449979862321925E+001	1.3671845E+000	-2.7037677E+002
3	0	5.499979861058819E+001	1.3660078E+000	-2.7035913E+002
3	0	5.549979859795712E+001	1.3648826E+000	-2.7035205E+002
3	0	5.599979858532606E+001	1.3638990E+000	-2.7039093E+002
3	0	5.649979857269500E+001	1.3629891E+000	-2.7041568E+002
3	0	5.699979856006394E+001	1.3621246E+000	-2.7038031E+002
3	0	5.749979854743287E+001	1.3613192E+000	-2.7038031E+002
3	0	5.799979853480181E+001	1.3605691E+000	-2.7038031E+002
3	0	5.849979852217075E+001	1.3598170E+000	-2.7039447E+002
3	0	5.899979850953969E+001	1.3590257E+000	-2.7037326E+002
3	0	5.949979849690862E+001	1.3582863E+000	-2.7039447E+002
3	0	5.999979848427756E+001	1.3576794E+000	-2.7039093E+002
3	0	6.049979847164650E+001	1.3571311E+000	-2.7038031E+002
3	0	6.099979845901544E+001	1.3565980E+000	-2.7040860E+002
3	0	6.149979844638438E+001	1.3561105E+000	-2.7036972E+002
3	0	6.199979843375331E+001	1.3556507E+000	-2.7036972E+002
3	0	6.249979842112225E+001	1.3551666E+000	-2.7038742E+002
3	0	6.299979840849119E+001	1.3546102E+000	-2.7036618E+002
3	0	6.349979839586013E+001	1.3540848E+000	-2.7038385E+002
3	0	6.399979838322906E+001	1.3536699E+000	-2.7040155E+002
3	0	6.449979837059800E+001	1.3532788E+000	-2.7038031E+002
3	0	6.499979835796694E+001	1.3529029E+000	-2.7038385E+002
3	0	6.549979834533588E+001	1.3525289E+000	-2.7036618E+002
3	0	6.599979833270481E+001	1.3521694E+000	-2.7038742E+002
3	0	6.649979832007375E+001	1.3517638E+000	-2.7039801E+002
3	0	6.699979830744269E+001	1.3512933E+000	-2.7035913E+002
3	0	6.749979829481163E+001	1.3508353E+000	-2.7037326E+002
3	0	6.799979828218056E+001	1.3504771E+000	-2.7036267E+002
3	0	6.849979826954950E+001	1.3501366E+000	-2.7035913E+002
3	0	6.899979825691844E+001	1.3498060E+000	-2.7040155E+002
3	0	6.949979824428738E+001	1.3494724E+000	-2.7038031E+002
3	0	6.999979823165631E+001	1.3491375E+000	-2.7037677E+002
3	0	7.049979821902525E+001	1.3487413E+000	-2.7036267E+002
3	0	7.099979820639419E+001	1.3482798E+000	-2.7039093E+002
3	0	7.149979819376313E+001	1.3478385E+000	-2.7036267E+002
3	0	7.199979818113206E+001	1.3474826E+000	-2.7038385E+002
3	0	7.249979816850100E+001	1.3471488E+000	-2.7039093E+002
3	0	7.299979815586994E+001	1.3468082E+000	-2.7038742E+002
3	0	7.349979814323888E+001	1.3464693E+000	-2.7038031E+002
3	0	7.399979813060781E+001	1.3461330E+000	-2.7039447E+002
3	0	7.449979811797675E+001	1.3457553E+000	-2.7038385E+002
3	0	7.499979810534569E+001	1.3453140E+000	-2.7038385E+002
3	0	7.549979809271463E+001	1.3448840E+000	-2.7036972E+002
3	0	7.599979808008356E+001	1.3445464E+000	-2.7036618E+002
3	0	7.649979806745250E+001	1.3442297E+000	-2.7036267E+002
3	0	7.699979805482144E+001	1.3439231E+000	-2.7038385E+002
3	0	7.749979804219038E+001	1.3436283E+000	-2.7039447E+002
3	0	7.799979802955932E+001	1.3433492E+000	-2.7039447E+002
3	0	7.849979801692825E+001	1.3430295E+000	-2.7038385E+002
3	0	7.899979800429719E+001	1.3426607E+000	-2.7037677E+002
3	0	7.949979799166613E+001	1.3423082E+000	-2.7038031E+002
3	0	7.999979797903507E+001	1.3420597E+000	-2.7035205E+002
3	0	8.049979796640400E+001	1.3418288E+000	-2.7036618E+002
3	0	8.099979795377294E+001	1.3416022E+000	-2.7038031E+002
3	0	8.149979794114188E+001	1.3413894E+000	-2.7038031E+002
3	0	8.199979792851082E+001	1.3411613E+000	-2.7039093E+002
3	0	8.249979791587975E+001	1.3408942E+000	-2.7037677E+002
3	0	8.299979790324869E+001	1.3405490E+000	-2.7037326E+002
3	0	8.349979789061763E+001	1.3402219E+000	-2.7038742E+002
3	0	8.399979787798657E+001	1.3399775E+000	-2.7039801E+002
3	0	8.449979786535550E+001	1.3397412E+000	-2.7039447E+002
3	0	8.499979785272444E+001	1.3395083E+000	-2.7038742E+002
3	0	8.549979784009338E+001	1.3392744E+000	-2.7037326E+002
3	0	8.599979782746232E+001	1.3390411E+000	-2.7039447E+002
3	0	8.649979781483125E+001	1.3387419E+000	-2.7038385E+002
3	0	8.699979780220019E+001	1.3383776E+000	-2.7037677E+002
3	0	8.749979778956913E+001	1.3380225E+000	-2.7038742E+002
3	0	8.799979777693807E+001	1.3377514E+000	-2.7035913E+002
3	0	8.849979776430700E+001	1.3374847E+000	-2.7039801E+002
3	0	8.899979775167594E+001	1.3372158E+000	-2.7036972E+002
3	0	8.949979773904488E+001	1.3369389E+000	-2.7036618E+002
3	0	8.999979772641382E+001	1.3366587E+000	-2.7038742E+002
3	0	9.049979771378275E+001	1.3363293E+000	-2.7038385E+002
3	0	9.099979770115169E+001	1.3359270E+000	-2.7038742E+002
3	0	9.149979768852063E+001	1.3355364E+000	-2.7038742E+002
3	0	9.199979767588957E+001	1.3352337E+000	-2.7039801E+002
3	0	9.249979766325851E+001	1.3349317E+000	-2.7036267E+002
3	0	9.299979765062744E+001	1.3346357E+000	-2.7037677E+002
3	0	9.349979763799638E+001	1.3343433E+000	-2.7036972E+002
3	0	9.399979762536532E+001	1.3340350E+000	-2.7038742E+002
3	0	9.449979761273426E+001	1.3336655E+000	-2.7037677E+002
3	0	9.499979760010319E+001	1.3332365E+000	-2.7039093E+002
3	0	9.549979758747213E+001	1.3328272E+000	-2.7035913E+002
3	0	9.599979757484107E+001	1.3325046E+000	-2.7037677E+002
3	0	9.649979756221001E+001	1.3321949E+000	-2.7040155E+002
3	0	9.699979754957894E+001	1.3318925E+000	-2.7039093E+002
3	0	9.749979753694788E+001	1.3316032E+000	-2.7036972E+002
3	0	9.799979752431682E+001	1.3313347E+000	-2.7035913E+002
3	0	9.849979751168576E+001	1.3310281E+000	-2.7038742E+002
3	0	9.899979749905469E+001	1.3306696E+000	-2.7037326E+002
3	0	9.949979748642363E+001	1.3303366E+000	-2.7039447E+002
3	0	9.999979747379257E+001	1.3300822E+000	-2.7036972E+002
3	0	1.004997974611615E+002	1.3298464E+000	-2.7040155E+002
3	0	1.009997974485304E+002	1.3296136E+000	-2.7037326E+002
3	0	1.014997974358994E+002	1.3293948E+000	-2.7035559E+002
3	0	1.019997974232683E+002	1.3291739E+000	-2.7040155E+002
3	0	1.024997974106373E+002	1.3288997E+000	-2.7038031E+002
3	0	1.029997973980062E+002	1.3285606E+000	-2.7038385E+002
3	0	1.034997973853751E+002	1.3282204E+000	-2.7038031E+002
3	0	1.039997973727441E+002	1.3279799E+000	-2.7038031E+002
3	0	1.044997973601130E+002	1.3277510E+000	-2.7038385E+002
3	0	1.049997973474819E+002	1.3275193E+000	-2.7038385E+002
3	0	1.050001973474718E+002	1.3274103E+000	-2.7040155E+002