EC-Lab ASCII FILE
Nb header lines : 48                          

Open Circuit Voltage

Run on channel : 1 (SN 81504)
User : 
CE vs. WE compliance from -10 V to 10 V
Electrode connection : standard
Potential control : Ewe
Ewe ctrl range : min = -2.50 V, max = 2.50 V
Safety Limits :
	Do not start on E overload
Acquisition started on : 05/10/2026 08:28:58.550
Loaded Setting File :  C:\PEM-WE_measurements\2026\372_IV_IV IrOx, 5 min Pt, 30 min C, etched cathode\new station\Loopeis new\1,46 V different time gaps closed cell\Loopeis 1,46V_180s_2_PEIS from 65kHz to 10kHz.mps
Saved on :
	File : L_27_Loopeis 1,46V_180s_2_PEIS from 65kHz to 10kHz_02_OCV_C01.mpr
	Directory : C:\PEM-WE_measurements\2026\372_IV_IV IrOx, 5 min Pt, 30 min C, etched cathode\new station\Loopeis new\1,46 V different time gaps closed cell\
	Host : 192.168.0.2
Device : SP-150e (SN .005491)
Address : 192.168.0.91
EC-LAB for windows v11.71 (software)
Internet server v28.00 (firmware)
Command interpretor v14.01 (firmware)
Electrode material : 
Initial state : 
Electrolyte : 
Comments : 
Current amplifier : SP-150eB-20A
Electrode surface area : 0.001 cm²
Characteristic mass : 0.001 g
Equivalent Weight : 0.000 g/eq.
Density : 0.000 g/cm3
Volume (V) : 0.001 cm³
Record Analogic IN 1
Text export
   Mode : Standard
   Time format : Elapsed
Cycle Definition : Charge/Discharge alternance
tR (h:m:s)          0:03:0.0000         
dER/dt (mV/h)       1.0                 
record              <Ewe>               
dER (mV)            10.00               
dtR (s)             0.5000              
E range min (V)     -2.500              
E range max (V)     2.500               

mode	error	time/s	<Ewe/V>	Analog IN 1/V	
3	0	4.549979885057837E+001	1.2919763E+000	-9.1562819E-005
3	0	4.599979883794731E+001	1.2969034E+000	4.2035979E-005
3	0	4.649979882531625E+001	1.2828797E+000	4.2035979E-005
3	0	4.699979881268519E+001	1.2570364E+000	-1.5220648E-005
3	0	4.749979880005412E+001	1.2137073E+000	3.8648941E-006
3	0	4.799979878742306E+001	1.1356937E+000	2.2950437E-005
3	0	4.849979877479200E+001	8.7323999E-001	-1.5220648E-005
3	0	4.899979876216094E+001	4.9769396E-001	-7.2477276E-005
3	0	4.949979874952987E+001	3.8555047E-001	-7.2477276E-005
3	0	4.999979873689881E+001	3.6391583E-001	-1.5220648E-005
3	0	5.049979872426775E+001	3.6093161E-001	-1.5220648E-005
3	0	5.099979871163669E+001	3.6164457E-001	2.2950437E-005
3	0	5.149979869900562E+001	3.6260554E-001	1.1837815E-004
3	0	5.199979868637456E+001	3.6321056E-001	-3.4306191E-005
3	0	5.249979867374350E+001	3.6363697E-001	-1.2973390E-004
3	0	5.299979866111244E+001	3.6389327E-001	-1.2973390E-004
3	0	5.349979864848137E+001	3.6405525E-001	-1.1064836E-004
3	0	5.399979863585031E+001	3.6406371E-001	-1.6790499E-004
3	0	5.449979862321925E+001	3.6410654E-001	-5.3391734E-005
3	0	5.499979861058819E+001	3.6450431E-001	-1.1064836E-004
3	0	5.549979859795712E+001	3.6480618E-001	-1.1064836E-004
3	0	5.599979858532606E+001	3.6501041E-001	-5.3391734E-005
3	0	5.649979857269500E+001	3.6519113E-001	-1.1064836E-004
3	0	5.699979856006394E+001	3.6538622E-001	-1.4881945E-004
3	0	5.749979854743287E+001	3.6552584E-001	-9.1562819E-005
3	0	5.799979853480181E+001	3.6555922E-001	-3.4306191E-005
3	0	5.849979852217075E+001	3.6555886E-001	3.8648941E-006
3	0	5.899979850953969E+001	3.6591446E-001	-1.4881945E-004
3	0	5.949979849690862E+001	3.6622155E-001	-9.1562819E-005
3	0	5.999979848427756E+001	3.6642492E-001	-5.3391734E-005
3	0	6.049979847164650E+001	3.6659127E-001	-9.1562819E-005
3	0	6.099979845901544E+001	3.6673748E-001	-1.2973390E-004
3	0	6.149979844638438E+001	3.6683944E-001	-5.3391734E-005
3	0	6.199979843375331E+001	3.6682585E-001	8.0207064E-005
3	0	6.249979842112225E+001	3.6679238E-001	8.0207064E-005
3	0	6.299979840849119E+001	3.6708188E-001	-3.4306191E-005
3	0	6.349979839586013E+001	3.6734715E-001	-1.4881945E-004
3	0	6.399979838322906E+001	3.6748734E-001	3.8648941E-006
3	0	6.449979837059800E+001	3.6763075E-001	2.2950437E-005
3	0	6.499979835796694E+001	3.6776242E-001	-1.4881945E-004
3	0	6.549979834533588E+001	3.6786607E-001	-9.1562819E-005
3	0	6.599979833270481E+001	3.6786026E-001	-7.2477276E-005
3	0	6.649979832007375E+001	3.6790350E-001	-1.6790499E-004
3	0	6.699979830744269E+001	3.6833814E-001	-1.2973390E-004
3	0	6.749979829481163E+001	3.6879179E-001	8.0207064E-005
3	0	6.799979828218056E+001	3.6918533E-001	-1.1064836E-004
3	0	6.849979826954950E+001	3.6958760E-001	1.1837815E-004
3	0	6.899979825691844E+001	3.6998263E-001	-3.4306191E-005
3	0	6.949979824428738E+001	3.7032506E-001	6.1121522E-005
3	0	6.999979823165631E+001	3.7049216E-001	-5.3391734E-005
3	0	7.049979821902525E+001	3.7060311E-001	-1.1064836E-004
3	0	7.099979820639419E+001	3.7098894E-001	-9.1562819E-005
3	0	7.149979819376313E+001	3.7131810E-001	-1.2973390E-004
3	0	7.199979818113206E+001	3.7149271E-001	-1.1064836E-004
3	0	7.249979816850100E+001	3.7165070E-001	-7.2477276E-005
3	0	7.299979815586994E+001	3.7177128E-001	-7.2477276E-005
3	0	7.349979814323888E+001	3.7182868E-001	-5.3391734E-005
3	0	7.399979813060781E+001	3.7179422E-001	-7.2477276E-005
3	0	7.449979811797675E+001	3.7169087E-001	-1.1064836E-004
3	0	7.499979810534569E+001	3.7186512E-001	-1.1064836E-004
3	0	7.549979809271463E+001	3.7203589E-001	-7.2477276E-005
3	0	7.599979808008356E+001	3.7208074E-001	6.1121522E-005
3	0	7.649979806745250E+001	3.7211365E-001	-9.1562819E-005
3	0	7.699979805482144E+001	3.7211147E-001	-5.3391734E-005
3	0	7.749979804219038E+001	3.7206292E-001	-1.2973390E-004
3	0	7.799979802955932E+001	3.7185580E-001	-1.2973390E-004
3	0	7.849979801692825E+001	3.7164405E-001	2.2950437E-005
3	0	7.899979800429719E+001	3.7173966E-001	9.9292607E-005
3	0	7.949979799166613E+001	3.7180817E-001	2.2950437E-005
3	0	7.999979797903507E+001	3.7177479E-001	-7.2477276E-005
3	0	8.049979796640400E+001	3.7172577E-001	-1.2973390E-004
3	0	8.099979795377294E+001	3.7167493E-001	-1.5220648E-005
3	0	8.149979794114188E+001	3.7156442E-001	6.1121522E-005
3	0	8.199979792851082E+001	3.7133500E-001	-1.8699054E-004
3	0	8.249979791587975E+001	3.7109315E-001	2.2950437E-005
3	0	8.299979790324869E+001	3.7113300E-001	4.2035979E-005
3	0	8.349979789061763E+001	3.7117335E-001	4.2035979E-005
3	0	8.399979787798657E+001	3.7111169E-001	-9.1562819E-005
3	0	8.449979786535550E+001	3.7103209E-001	3.8648941E-006
3	0	8.499979785272444E+001	3.7094432E-001	-5.3391734E-005
3	0	8.549979784009338E+001	3.7080035E-001	1.1837815E-004
3	0	8.599979782746232E+001	3.7060103E-001	-1.1064836E-004
3	0	8.649979781483125E+001	3.7045449E-001	-9.1562819E-005
3	0	8.699979780220019E+001	3.7063044E-001	-3.4306191E-005
3	0	8.749979778956913E+001	3.7089342E-001	-1.5220648E-005
3	0	8.799979777693807E+001	3.7109154E-001	-1.5220648E-005
3	0	8.849979776430700E+001	3.7132958E-001	-3.4306191E-005
3	0	8.899979775167594E+001	3.7155586E-001	-1.1064836E-004
3	0	8.949979773904488E+001	3.7174070E-001	-7.2477276E-005
3	0	8.999979772641382E+001	3.7178814E-001	-1.2973390E-004
3	0	9.049979771378275E+001	3.7180424E-001	-5.3391734E-005
3	0	9.099979770115169E+001	3.7208053E-001	-7.2477276E-005
3	0	9.149979768852063E+001	3.7229300E-001	-5.3391734E-005
3	0	9.199979767588957E+001	3.7236986E-001	4.2035979E-005
3	0	9.249979766325851E+001	3.7240729E-001	4.2035979E-005
3	0	9.299979765062744E+001	3.7238386E-001	-1.5220648E-005
3	0	9.349979763799638E+001	3.7231964E-001	-7.2477276E-005
3	0	9.399979762536532E+001	3.7209436E-001	-9.1562819E-005
3	0	9.449979761273426E+001	3.7183818E-001	3.8648941E-006
3	0	9.499979760010319E+001	3.7185314E-001	3.8648941E-006
3	0	9.549979758747213E+001	3.7187031E-001	-9.1562819E-005
3	0	9.599979757484107E+001	3.7176850E-001	-1.1064836E-004
3	0	9.649979756221001E+001	3.7165797E-001	-3.4306191E-005
3	0	9.699979754957894E+001	3.7149870E-001	-1.2973390E-004
3	0	9.749979753694788E+001	3.7129179E-001	-5.3391734E-005
3	0	9.799979752431682E+001	3.7097287E-001	-7.2477276E-005
3	0	9.849979751168576E+001	3.7063417E-001	2.2950437E-005
3	0	9.899979749905469E+001	3.7057015E-001	3.8648941E-006
3	0	9.949979748642363E+001	3.7056103E-001	-1.5220648E-005
3	0	9.999979747379257E+001	3.7043667E-001	-1.1064836E-004
3	0	1.004997974611615E+002	3.7030137E-001	-1.5220648E-005
3	0	1.009997974485304E+002	3.7013608E-001	3.8648941E-006
3	0	1.014997974358994E+002	3.6990932E-001	8.0207064E-005
3	0	1.019997974232683E+002	3.6958438E-001	-1.4881945E-004
3	0	1.024997974106373E+002	3.6923596E-001	4.2035979E-005
3	0	1.029997973980062E+002	3.6915189E-001	4.2035979E-005
3	0	1.034997973853751E+002	3.6907551E-001	-3.4306191E-005
3	0	1.039997973727441E+002	3.6891860E-001	-5.3391734E-005
3	0	1.044997973601130E+002	3.6875150E-001	-7.2477276E-005
3	0	1.049997973474819E+002	3.6855823E-001	-3.4306191E-005
3	0	1.054997973348509E+002	3.6833063E-001	8.0207064E-005
3	0	1.059997973222198E+002	3.6802793E-001	2.2950437E-005
3	0	1.064997973095888E+002	3.6773986E-001	-1.6790499E-004
3	0	1.069997972969577E+002	3.6778024E-001	-1.5220648E-005
3	0	1.074997972843266E+002	3.6791390E-001	-1.5220648E-005
3	0	1.079997972716956E+002	3.6800325E-001	-9.1562819E-005
3	0	1.084997972590645E+002	3.6814064E-001	9.9292607E-005
3	0	1.089997972464334E+002	3.6827958E-001	-1.5220648E-005
3	0	1.094997972338024E+002	3.6839086E-001	-1.1064836E-004
3	0	1.099997972211713E+002	3.6833817E-001	-1.1064836E-004
3	0	1.104997972085403E+002	3.6822116E-001	-5.3391734E-005
3	0	1.109997971959092E+002	3.6832738E-001	6.1121522E-005
3	0	1.114997971832781E+002	3.6845535E-001	-9.1562819E-005
3	0	1.119997971706471E+002	3.6845660E-001	-7.2477276E-005
3	0	1.124997971580160E+002	3.6841375E-001	-1.5220648E-005
3	0	1.129997971453849E+002	3.6831626E-001	-9.1562819E-005
3	0	1.134997971327539E+002	3.6815831E-001	3.8648941E-006
3	0	1.139997971201228E+002	3.6789662E-001	6.1121522E-005
3	0	1.144997971074918E+002	3.6759216E-001	-5.3391734E-005
3	0	1.149997970948607E+002	3.6754310E-001	-2.0607607E-004
3	0	1.154997970822296E+002	3.6750838E-001	-1.1064836E-004
3	0	1.159997970695986E+002	3.6738485E-001	3.8648941E-006
3	0	1.164997970569675E+002	3.6724314E-001	8.0207064E-005
3	0	1.169997970443364E+002	3.6707604E-001	3.8648941E-006
3	0	1.174997970317054E+002	3.6683795E-001	3.8648941E-006
3	0	1.179997970190743E+002	3.6651090E-001	-5.3391734E-005
3	0	1.184997970064433E+002	3.6610827E-001	-9.1562819E-005
3	0	1.189997969938122E+002	3.6596617E-001	-1.5220648E-005
3	0	1.194997969811811E+002	3.6586279E-001	-1.1064836E-004
3	0	1.199997969685501E+002	3.6567992E-001	-3.4306191E-005
3	0	1.204997969559190E+002	3.6547348E-001	-3.4306191E-005
3	0	1.209997969432879E+002	3.6525199E-001	-3.4306191E-005
3	0	1.214997969306569E+002	3.6498126E-001	-1.8699054E-004
3	0	1.219997969180258E+002	3.6461687E-001	-1.4881945E-004
3	0	1.224997969053948E+002	3.6421111E-001	-1.1064836E-004
3	0	1.229997968927637E+002	3.6405611E-001	-1.4881945E-004
3	0	1.234997968801326E+002	3.6397484E-001	-1.1064836E-004
3	0	1.239997968675016E+002	3.6380485E-001	-9.1562819E-005
3	0	1.244997968548705E+002	3.6364457E-001	-1.5220648E-005
3	0	1.249997968422394E+002	3.6343658E-001	-1.1064836E-004
3	0	1.254997968296084E+002	3.6319461E-001	6.1121522E-005
3	0	1.259997968169773E+002	3.6284411E-001	-9.1562819E-005
3	0	1.264997968043463E+002	3.6252889E-001	-3.4306191E-005
3	0	1.269997967917152E+002	3.6252847E-001	-1.2973390E-004
3	0	1.274997967790841E+002	3.6262277E-001	-5.3391734E-005
3	0	1.279997967664531E+002	3.6268327E-001	-5.3391734E-005
3	0	1.284997967538220E+002	3.6278427E-001	-1.4881945E-004
3	0	1.289997967411909E+002	3.6289543E-001	3.8648941E-006
3	0	1.294997967285599E+002	3.6297572E-001	-1.5220648E-005
3	0	1.299997967159288E+002	3.6292470E-001	-1.5220648E-005
3	0	1.304997967032978E+002	3.6280584E-001	-3.4306191E-005
3	0	1.309997966906667E+002	3.6289540E-001	-1.5220648E-005
3	0	1.314997966780356E+002	3.6298513E-001	-7.2477276E-005
3	0	1.319997966654046E+002	3.6298227E-001	-5.3391734E-005
3	0	1.324997966527735E+002	3.6295021E-001	-9.1562819E-005
3	0	1.329997966401424E+002	3.6285093E-001	-3.4306191E-005
3	0	1.334997966275114E+002	3.6268082E-001	-1.5220648E-005
3	0	1.339997966148803E+002	3.6238208E-001	-3.4306191E-005
3	0	1.344997966022493E+002	3.6205149E-001	3.8648941E-006
3	0	1.349997965896182E+002	3.6194563E-001	9.9292607E-005
3	0	1.354997965769871E+002	3.6189413E-001	-3.4306191E-005
3	0	1.359997965643561E+002	3.6176255E-001	-1.5220648E-005
3	0	1.364997965517250E+002	3.6161989E-001	-1.4881945E-004
3	0	1.369997965390940E+002	3.6144659E-001	3.8648941E-006
3	0	1.374997965264629E+002	3.6120439E-001	-1.5220648E-005
3	0	1.379997965138318E+002	3.6085206E-001	1.1837815E-004
3	0	1.384997965012008E+002	3.6046106E-001	1.1837815E-004
3	0	1.389997964885697E+002	3.6031696E-001	8.0207064E-005
3	0	1.394997964759386E+002	3.6021835E-001	2.2950437E-005
3	0	1.399997964633076E+002	3.6004168E-001	2.2950437E-005
3	0	1.404997964506765E+002	3.5986760E-001	3.8648941E-006
3	0	1.409997964380455E+002	3.5965043E-001	-5.3391734E-005
3	0	1.414997964254144E+002	3.5939354E-001	-9.1562819E-005
3	0	1.419997964127833E+002	3.5903469E-001	-3.4306191E-005
3	0	1.424997964001523E+002	3.5863644E-001	-3.4306191E-005
3	0	1.429997963875212E+002	3.5847944E-001	3.8648941E-006
3	0	1.434997963748901E+002	3.5836917E-001	2.2950437E-005
3	0	1.439997963622591E+002	3.5818383E-001	-1.8699054E-004
3	0	1.444997963496280E+002	3.5798410E-001	-7.2477276E-005
3	0	1.449997963369970E+002	3.5776556E-001	-3.4306191E-005
3	0	1.454997963243659E+002	3.5752243E-001	-9.1562819E-005
3	0	1.459997963117348E+002	3.5719395E-001	-7.2477276E-005
3	0	1.464997962991038E+002	3.5685277E-001	-1.2973390E-004
3	0	1.469997962864727E+002	3.5678065E-001	6.1121522E-005
3	0	1.474997962738416E+002	3.5684958E-001	-9.1562819E-005
3	0	1.479997962612106E+002	3.5689569E-001	-1.5220648E-005
3	0	1.484997962485795E+002	3.5699537E-001	8.0207064E-005
3	0	1.489997962359485E+002	3.5706481E-001	-5.3391734E-005
3	0	1.494997962233174E+002	3.5712209E-001	-5.3391734E-005
3	0	1.499997962106863E+002	3.5709211E-001	-7.2477276E-005
3	0	1.504997961980553E+002	3.5697258E-001	-1.5220648E-005
3	0	1.509997961854242E+002	3.5705346E-001	-5.3391734E-005
3	0	1.514997961727931E+002	3.5715640E-001	-1.5220648E-005
3	0	1.519997961601621E+002	3.5717115E-001	9.9292607E-005
3	0	1.524997961475310E+002	3.5712704E-001	-1.1064836E-004
3	0	1.529997961349000E+002	3.5704687E-001	-7.2477276E-005
3	0	1.534997961222689E+002	3.5687134E-001	8.0207064E-005
3	0	1.539997961096378E+002	3.5662535E-001	3.8648941E-006
3	0	1.544997960970068E+002	3.5629126E-001	-5.3391734E-005
3	0	1.549997960843757E+002	3.5618559E-001	-5.3391734E-005
3	0	1.554997960717446E+002	3.5612684E-001	-9.1562819E-005
3	0	1.559997960591136E+002	3.5599688E-001	3.8648941E-006
3	0	1.564997960464825E+002	3.5584745E-001	9.9292607E-005
3	0	1.569997960338515E+002	3.5565916E-001	-7.2477276E-005
3	0	1.574997960212204E+002	3.5540676E-001	-5.3391734E-005
3	0	1.579997960085893E+002	3.5505900E-001	-3.4306191E-005
3	0	1.584997959959583E+002	3.5467210E-001	-3.4306191E-005
3	0	1.589997959833272E+002	3.5448456E-001	3.8648941E-006
3	0	1.594997959706961E+002	3.5438100E-001	-1.2973390E-004
3	0	1.599997959580651E+002	3.5420933E-001	-7.2477276E-005
3	0	1.604997959454340E+002	3.5403085E-001	-7.2477276E-005
3	0	1.609997959328030E+002	3.5380632E-001	-5.3391734E-005
3	0	1.614997959201719E+002	3.5353622E-001	-1.1064836E-004
3	0	1.619997959075408E+002	3.5318473E-001	-3.4306191E-005
3	0	1.624997958949098E+002	3.5278368E-001	-7.2477276E-005
3	0	1.629997958822787E+002	3.5259384E-001	6.1121522E-005
3	0	1.634997958696476E+002	3.5247457E-001	3.8648941E-006
3	0	1.639997958570166E+002	3.5231021E-001	-7.2477276E-005
3	0	1.644997958443855E+002	3.5213751E-001	6.1121522E-005
3	0	1.649997958317545E+002	3.5192746E-001	-1.1064836E-004
3	0	1.654997958191234E+002	3.5166803E-001	6.1121522E-005
3	0	1.659997958064923E+002	3.5134867E-001	-3.4306191E-005
3	0	1.664997957938613E+002	3.5101295E-001	3.8648941E-006
3	0	1.669997957812302E+002	3.5091886E-001	-1.5220648E-005
3	0	1.674997957685991E+002	3.5096261E-001	-1.5220648E-005
3	0	1.679997957559681E+002	3.5101137E-001	-1.4881945E-004
3	0	1.684997957433370E+002	3.5109144E-001	-3.4306191E-005
3	0	1.689997957307060E+002	3.5117283E-001	-5.3391734E-005
3	0	1.694997957180749E+002	3.5120025E-001	-1.2973390E-004
3	0	1.699997957054438E+002	3.5116786E-001	-5.3391734E-005
3	0	1.704997956928128E+002	3.5110205E-001	-9.1562819E-005
3	0	1.709997956801817E+002	3.5118994E-001	-9.1562819E-005
3	0	1.714997956675506E+002	3.5129884E-001	-9.1562819E-005
3	0	1.719997956549196E+002	3.5133034E-001	-1.2973390E-004
3	0	1.724997956422885E+002	3.5132244E-001	-3.4306191E-005
3	0	1.729997956296575E+002	3.5117710E-001	3.8648941E-006
3	0	1.734997956170264E+002	3.5095832E-001	4.2035979E-005
3	0	1.739997956043953E+002	3.5091108E-001	9.9292607E-005
3	0	1.744997955917643E+002	3.5072279E-001	-7.2477276E-005
3	0	1.749997955791332E+002	3.5063866E-001	-1.1064836E-004
3	0	1.754997955665021E+002	3.5060662E-001	-1.8699054E-004
3	0	1.759997955538711E+002	3.5046569E-001	-1.5220648E-005
3	0	1.764997955412400E+002	3.5030055E-001	2.2950437E-005
3	0	1.769997955286090E+002	3.5010961E-001	-7.2477276E-005
3	0	1.774997955159779E+002	3.4985003E-001	-7.2477276E-005
3	0	1.779997955033468E+002	3.4948868E-001	-3.4306191E-005
3	0	1.784997954907158E+002	3.4909439E-001	-7.2477276E-005
3	0	1.789997954780847E+002	3.4890738E-001	-3.4306191E-005
3	0	1.794997954654536E+002	3.4883350E-001	-1.6790499E-004
3	0	1.799997954528226E+002	3.4868047E-001	8.0207064E-005
3	0	1.804997954401915E+002	3.4846649E-001	-9.1562819E-005
3	0	1.809997954275605E+002	3.4823412E-001	-5.3391734E-005
3	0	1.814997954149294E+002	3.4797633E-001	-7.2477276E-005
3	0	1.819997954022983E+002	3.4763807E-001	-2.4424717E-004
3	0	1.824997953896673E+002	3.4726280E-001	-1.5220648E-005
3	0	1.829997953770362E+002	3.4708482E-001	-1.1064836E-004
3	0	1.834997953644051E+002	3.4702569E-001	2.2950437E-005
3	0	1.839997953517741E+002	3.4689513E-001	1.1837815E-004
3	0	1.844997953391430E+002	3.4669745E-001	-1.5220648E-005
3	0	1.849997953265120E+002	3.4648916E-001	-9.1562819E-005
3	0	1.854997953138809E+002	3.4622127E-001	3.8648941E-006
3	0	1.859997953012498E+002	3.4587023E-001	-1.1064836E-004
3	0	1.864997952886188E+002	3.4550405E-001	2.2950437E-005
3	0	1.869997952759877E+002	3.4538129E-001	-3.4306191E-005
3	0	1.874997952633566E+002	3.4543052E-001	-1.5220648E-005
3	0	1.879997952507256E+002	3.4546033E-001	2.2950437E-005
3	0	1.884997952380945E+002	3.4549758E-001	-3.0150381E-004
3	0	1.889997952254635E+002	3.4554881E-001	-9.1562819E-005
3	0	1.894997952128324E+002	3.4558770E-001	-3.4306191E-005
3	0	1.899997952002013E+002	3.4558117E-001	-7.2477276E-005
3	0	1.904997951875703E+002	3.4553245E-001	-1.6790499E-004
3	0	1.909997951749392E+002	3.4564790E-001	2.2950437E-005
3	0	1.914997951623081E+002	3.4585172E-001	-1.1064836E-004
3	0	1.919997951496771E+002	3.4594071E-001	-1.4881945E-004
3	0	1.924997951370460E+002	3.4592628E-001	-3.4306191E-005
3	0	1.929997951244150E+002	3.4586498E-001	1.3746369E-004
3	0	1.934997951117839E+002	3.4574717E-001	-9.1562819E-005
3	0	1.939997950991528E+002	3.4552741E-001	-1.2973390E-004
3	0	1.944997950865218E+002	3.4524363E-001	3.8648941E-006
3	0	1.949997950738907E+002	3.4511012E-001	-9.1562819E-005
3	0	1.954997950612596E+002	3.4509170E-001	-1.2973390E-004
3	0	1.959997950486286E+002	3.4499517E-001	-3.4306191E-005
3	0	1.964997950359975E+002	3.4481990E-001	-1.8699054E-004
3	0	1.969997950233665E+002	3.4461874E-001	-3.4306191E-005
3	0	1.974997950107354E+002	3.4436825E-001	-1.2973390E-004
3	0	1.979997949981043E+002	3.4402207E-001	4.2035979E-005
3	0	1.984997949854733E+002	3.4363520E-001	-3.4306191E-005
3	0	1.989997949728422E+002	3.4342864E-001	3.8648941E-006
3	0	1.994997949602111E+002	3.4334594E-001	-1.4881945E-004
3	0	1.999997949475801E+002	3.4319577E-001	-1.2973390E-004
3	0	2.004997949349490E+002	3.4300143E-001	4.2035979E-005
3	0	2.009997949223180E+002	3.4277630E-001	-5.3391734E-005
3	0	2.014997949096869E+002	3.4252876E-001	-1.4881945E-004
3	0	2.019997948970558E+002	3.4220651E-001	2.2950437E-005
3	0	2.024997948844248E+002	3.4180829E-001	-7.2477276E-005
3	0	2.029997948717937E+002	3.4158707E-001	-5.3391734E-005
3	0	2.034997948591626E+002	3.4150735E-001	-3.4306191E-005
3	0	2.039997948465316E+002	3.4138265E-001	-1.2973390E-004
3	0	2.044997948339005E+002	3.4120309E-001	6.1121522E-005
3	0	2.049997948212695E+002	3.4100264E-001	-1.2973390E-004
3	0	2.054997948086384E+002	3.4075922E-001	4.2035979E-005
3	0	2.059997947960073E+002	3.4044385E-001	-1.2973390E-004
3	0	2.064997947833763E+002	3.4011185E-001	-1.5220648E-005
3	0	2.069997947707452E+002	3.3995023E-001	6.1121522E-005
3	0	2.074997947581141E+002	3.3995521E-001	-7.2477276E-005
3	0	2.079997947454831E+002	3.3997604E-001	-2.0607607E-004
3	0	2.084997947328520E+002	3.3998519E-001	-3.4306191E-005
3	0	2.089997947202210E+002	3.4002632E-001	-5.3391734E-005
3	0	2.094997947075899E+002	3.4006879E-001	-7.2477276E-005
3	0	2.099997946949588E+002	3.4003660E-001	2.2950437E-005
3	0	2.104997946823278E+002	3.3996612E-001	-9.1562819E-005
3	0	2.109997946696967E+002	3.4003651E-001	3.8648941E-006
3	0	2.114997946570657E+002	3.4019333E-001	4.2035979E-005
3	0	2.119997946444346E+002	3.4028035E-001	3.8648941E-006
3	0	2.124997946318035E+002	3.4027979E-001	-7.2477276E-005
3	0	2.129997946191725E+002	3.4022334E-001	-7.2477276E-005
3	0	2.134997946065414E+002	3.4008971E-001	-5.3391734E-005
3	0	2.139997945939103E+002	3.3984134E-001	6.1121522E-005
3	0	2.144997945812793E+002	3.3953863E-001	-1.5220648E-005
3	0	2.149997945686482E+002	3.3939633E-001	-1.1064836E-004
3	0	2.154997945560172E+002	3.3933961E-001	-5.3391734E-005
3	0	2.159997945433861E+002	3.3922720E-001	-1.4881945E-004
3	0	2.164997945307550E+002	3.3904001E-001	-1.5220648E-005
3	0	2.169997945181240E+002	3.3883321E-001	-7.2477276E-005
3	0	2.174997945054929E+002	3.3858302E-001	3.8648941E-006
3	0	2.179997944928618E+002	3.3825934E-001	-7.2477276E-005
3	0	2.184997944802308E+002	3.3788723E-001	-1.2973390E-004
3	0	2.189997944675997E+002	3.3767140E-001	-9.1562819E-005
3	0	2.194997944549687E+002	3.3757472E-001	8.0207064E-005
3	0	2.199997944423376E+002	3.3744299E-001	-5.3391734E-005
3	0	2.204997944297065E+002	3.3724037E-001	-1.1064836E-004
3	0	2.209997944170755E+002	3.3702755E-001	6.1121522E-005
3	0	2.214997944044444E+002	3.3677897E-001	2.2950437E-005
3	0	2.219997943918133E+002	3.3643484E-001	9.9292607E-005
3	0	2.224997943791823E+002	3.3603832E-001	3.8648941E-006
3	0	2.229997943665512E+002	3.3582050E-001	-5.3391734E-005
3	0	2.234997943539202E+002	3.3572176E-001	6.1121522E-005
3	0	2.239997943412891E+002	3.3559066E-001	2.2950437E-005
3	0	2.244997943286580E+002	3.3539757E-001	-5.3391734E-005
3	0	2.249997943160270E+002	3.3519089E-001	-1.2973390E-004
3	0	2.250001943160169E+002	3.3512989E-001	-1.2973390E-004