EC-Lab ASCII FILE
Nb header lines : 55                          

Open Circuit Voltage

Run on channel : 1 (SN 81504)
User : 
CE vs. WE compliance from -10 V to 10 V
Electrode connection : standard
Potential control : Ewe
Ewe ctrl range : min = -2.50 V, max = 2.50 V
Safety Limits :
	Do not start on E overload
Acquisition started on : 05/10/2026 02:45:19.470
Loaded Setting File :  C:\PEM-WE_measurements\2026\372_IV_IV IrOx, 5 min Pt, 30 min C, etched cathode\new station\Loopeis new\1,46 V different time gaps closed cell\Loopeis 1,46V_60s_4_PEIS from 650Hz to 100Hz.mps
Saved on :
	File : L_14_Loopeis 1,46V_60s_4_PEIS from 650Hz to 100Hz_10_OCV_C01.mpr
	Directory : C:\PEM-WE_measurements\2026\372_IV_IV IrOx, 5 min Pt, 30 min C, etched cathode\new station\Loopeis new\1,46 V different time gaps closed cell\
	Host : 192.168.0.2
Device : SP-150e (SN .005491)
Address : 192.168.0.91
EC-LAB for windows v11.71 (software)
Internet server v28.00 (firmware)
Command interpretor v14.01 (firmware)
Electrode material : 
Initial state : 
Electrolyte : 
Comments : 
Current amplifier : SP-150eB-20A
Electrode surface area : 0.001 cm²
Characteristic mass : 0.001 g
Equivalent Weight : 0.000 g/eq.
Density : 0.000 g/cm3
Volume (V) : 0.001 cm³
Record Analogic IN 1
Text export
   Mode : Standard
   Time format : Elapsed
Cycle Definition : Charge/Discharge alternance
External device configuration :
   device type : Temperature Probe
   device name : Other
   Analog IN 1 : 
      unit : T/Â°C
      max : 100.000 at 2.000 V
      min : 0.000 at 1.460 V
tR (h:m:s)          0:01:0.0000         
dER/dt (mV/h)       1.0                 
record              <Ewe>               
dER (mV)            10.00               
dtR (s)             0.5000              
E range min (V)     -2.500              
E range max (V)     2.500               

mode	error	time/s	<Ewe/V>	Analog IN 1/V	
3	0	4.665193948370143E+002	1.4150718E+000	-2.7036972E+002
3	0	4.670193948243832E+002	1.4057213E+000	-2.7040155E+002
3	0	4.675193948117521E+002	1.3995589E+000	-2.7038031E+002
3	0	4.680193947991211E+002	1.3950433E+000	-2.7038385E+002
3	0	4.685193947864900E+002	1.3914146E+000	-2.7038385E+002
3	0	4.690193947738589E+002	1.3883542E+000	-2.7039093E+002
3	0	4.695193947612279E+002	1.3856627E+000	-2.7037326E+002
3	0	4.700193947485968E+002	1.3831818E+000	-2.7038385E+002
3	0	4.705193947359658E+002	1.3808321E+000	-2.7038385E+002
3	0	4.710193947233347E+002	1.3787273E+000	-2.7036618E+002
3	0	4.715193947107036E+002	1.3768436E+000	-2.7037677E+002
3	0	4.720193946980726E+002	1.3751172E+000	-2.7037677E+002
3	0	4.725193946854415E+002	1.3735046E+000	-2.7039801E+002
3	0	4.730193946728104E+002	1.3719944E+000	-2.7036267E+002
3	0	4.735193946601794E+002	1.3705612E+000	-2.7037677E+002
3	0	4.740193946475483E+002	1.3691500E+000	-2.7037326E+002
3	0	4.745193946349173E+002	1.3677312E+000	-2.7038031E+002
3	0	4.750193946222862E+002	1.3664364E+000	-2.7039093E+002
3	0	4.755193946096551E+002	1.3652849E+000	-2.7037326E+002
3	0	4.760193945970241E+002	1.3642094E+000	-2.7038742E+002
3	0	4.765193945843930E+002	1.3631715E+000	-2.7039801E+002
3	0	4.770193945717620E+002	1.3621868E+000	-2.7038742E+002
3	0	4.775193945591309E+002	1.3612379E+000	-2.7038031E+002
3	0	4.780193945464998E+002	1.3602628E+000	-2.7038385E+002
3	0	4.785193945338688E+002	1.3592681E+000	-2.7038031E+002
3	0	4.790193945212377E+002	1.3584031E+000	-2.7038385E+002
3	0	4.795193945086066E+002	1.3576539E+000	-2.7036267E+002
3	0	4.800193944959756E+002	1.3569733E+000	-2.7037677E+002
3	0	4.805193944833445E+002	1.3563316E+000	-2.7036267E+002
3	0	4.810193944707135E+002	1.3557547E+000	-2.7037677E+002
3	0	4.815193944580824E+002	1.3552082E+000	-2.7037677E+002
3	0	4.820193944454513E+002	1.3546188E+000	-2.7037677E+002
3	0	4.825193944328203E+002	1.3539824E+000	-2.7037677E+002
3	0	4.830193944201892E+002	1.3534560E+000	-2.7039447E+002
3	0	4.835193944075581E+002	1.3530260E+000	-2.7038742E+002
3	0	4.840193943949271E+002	1.3526201E+000	-2.7038031E+002
3	0	4.845193943822960E+002	1.3522358E+000	-2.7038031E+002
3	0	4.850193943696650E+002	1.3518634E+000	-2.7036618E+002
3	0	4.855193943570339E+002	1.3514824E+000	-2.7038742E+002
3	0	4.860193943444028E+002	1.3510458E+000	-2.7037326E+002
3	0	4.865193943317718E+002	1.3505569E+000	-2.7039093E+002
3	0	4.870193943191407E+002	1.3501577E+000	-2.7036267E+002
3	0	4.875193943065096E+002	1.3498428E+000	-2.7036618E+002
3	0	4.880193942938786E+002	1.3495443E+000	-2.7036972E+002
3	0	4.885193942812475E+002	1.3492416E+000	-2.7036972E+002
3	0	4.890193942686165E+002	1.3489370E+000	-2.7036972E+002
3	0	4.895193942559854E+002	1.3486218E+000	-2.7037677E+002
3	0	4.900193942433543E+002	1.3482333E+000	-2.7038742E+002
3	0	4.905193942307233E+002	1.3477781E+000	-2.7037677E+002
3	0	4.910193942180922E+002	1.3474058E+000	-2.7036972E+002
3	0	4.915193942054611E+002	1.3471031E+000	-2.7037326E+002
3	0	4.920193941928301E+002	1.3468021E+000	-2.7039447E+002
3	0	4.925193941801990E+002	1.3464844E+000	-2.7038031E+002
3	0	4.930193941675680E+002	1.3461766E+000	-2.7037326E+002
3	0	4.935193941549369E+002	1.3458517E+000	-2.7040155E+002
3	0	4.940193941423058E+002	1.3454597E+000	-2.7040860E+002
3	0	4.945193941296748E+002	1.3449944E+000	-2.7036618E+002
3	0	4.950193941170437E+002	1.3446124E+000	-2.7037326E+002
3	0	4.955193941044126E+002	1.3442980E+000	-2.7039093E+002
3	0	4.960193940917816E+002	1.3439875E+000	-2.7038385E+002
3	0	4.965193940791505E+002	1.3436611E+000	-2.7036618E+002
3	0	4.970193940665195E+002	1.3433398E+000	-2.7038742E+002
3	0	4.975193940538884E+002	1.3430001E+000	-2.7039447E+002
3	0	4.980193940412573E+002	1.3426031E+000	-2.7037677E+002
3	0	4.985193940286263E+002	1.3421466E+000	-2.7035205E+002
3	0	4.990193940159952E+002	1.3417804E+000	-2.7036618E+002
3	0	4.995193940033641E+002	1.3415067E+000	-2.7036618E+002
3	0	5.000193939907331E+002	1.3412516E+000	-2.7038742E+002
3	0	5.005193939781020E+002	1.3410078E+000	-2.7036618E+002
3	0	5.010193939654710E+002	1.3407845E+000	-2.7035913E+002
3	0	5.015193939528399E+002	1.3405362E+000	-2.7038742E+002
3	0	5.020193939402088E+002	1.3402411E+000	-2.7037677E+002
3	0	5.025193939275778E+002	1.3398625E+000	-2.7037326E+002
3	0	5.030193939149467E+002	1.3395846E+000	-2.7037326E+002
3	0	5.035193939023156E+002	1.3393719E+000	-2.7038742E+002
3	0	5.040193938896846E+002	1.3391583E+000	-2.7037326E+002
3	0	5.045193938770535E+002	1.3389436E+000	-2.7037326E+002
3	0	5.050193938644225E+002	1.3387319E+000	-2.7037326E+002
3	0	5.055193938517914E+002	1.3385098E+000	-2.7037677E+002
3	0	5.060193938391603E+002	1.3382125E+000	-2.7038742E+002
3	0	5.065193938265293E+002	1.3378472E+000	-2.7039801E+002
3	0	5.070193938138982E+002	1.3375615E+000	-2.7037677E+002
3	0	5.075193938012671E+002	1.3373365E+000	-2.7038031E+002
3	0	5.080193937886361E+002	1.3371091E+000	-2.7037677E+002
3	0	5.085193937760050E+002	1.3368752E+000	-2.7035913E+002
3	0	5.090193937633740E+002	1.3366373E+000	-2.7039447E+002
3	0	5.095193937507429E+002	1.3363744E+000	-2.7037677E+002
3	0	5.100193937381118E+002	1.3360444E+000	-2.7038385E+002
3	0	5.105193937254808E+002	1.3356460E+000	-2.7035559E+002
3	0	5.110193937128497E+002	1.3353252E+000	-2.7037677E+002
3	0	5.115193937002186E+002	1.3350673E+000	-2.7036972E+002
3	0	5.120193936875876E+002	1.3348017E+000	-2.7038742E+002
3	0	5.125193936749565E+002	1.3345348E+000	-2.7040860E+002
3	0	5.130193936623255E+002	1.3342717E+000	-2.7038742E+002
3	0	5.135193936496944E+002	1.3339815E+000	-2.7038742E+002
3	0	5.140193936370633E+002	1.3336039E+000	-2.7040506E+002
3	0	5.145193936244323E+002	1.3331778E+000	-2.7037677E+002
3	0	5.150193936118012E+002	1.3328261E+000	-2.7038031E+002
3	0	5.155193935991701E+002	1.3325250E+000	-2.7036972E+002
3	0	5.160193935865391E+002	1.3322324E+000	-2.7040155E+002
3	0	5.165193935739080E+002	1.3319399E+000	-2.7040155E+002
3	0	5.170193935612770E+002	1.3316445E+000	-2.7037677E+002
3	0	5.175193935486459E+002	1.3313293E+000	-2.7038742E+002
3	0	5.180193935360148E+002	1.3309613E+000	-2.7037677E+002
3	0	5.185193935233838E+002	1.3305387E+000	-2.7038031E+002
3	0	5.190193935107527E+002	1.3301967E+000	-2.7036618E+002
3	0	5.195193934981216E+002	1.3299290E+000	-2.7035559E+002
3	0	5.200193934854906E+002	1.3296765E+000	-2.7038742E+002
3	0	5.205193934728595E+002	1.3294466E+000	-2.7037677E+002
3	0	5.210193934602285E+002	1.3292373E+000	-2.7038385E+002
3	0	5.215193934475974E+002	1.3290133E+000	-2.7035559E+002
3	0	5.220193934349663E+002	1.3287286E+000	-2.7038031E+002
3	0	5.225193934223353E+002	1.3283845E+000	-2.7037326E+002
3	0	5.230193934097042E+002	1.3281306E+000	-2.7038742E+002
3	0	5.235193933970731E+002	1.3279585E+000	-2.7038031E+002
3	0	5.240193933844421E+002	1.3277769E+000	-2.7037677E+002
3	0	5.245193933718110E+002	1.3275918E+000	-2.7040506E+002
3	0	5.250193933591800E+002	1.3274082E+000	-2.7038742E+002
3	0	5.255193933465489E+002	1.3271993E+000	-2.7036972E+002
3	0	5.260193933339178E+002	1.3269175E+000	-2.7038742E+002
3	0	5.260197933339077E+002	1.3267233E+000	-2.7037326E+002