EC-Lab ASCII FILE
Nb header lines : 48                          

Open Circuit Voltage

Run on channel : 1 (SN 81504)
User : 
CE vs. WE compliance from -10 V to 10 V
Electrode connection : standard
Potential control : Ewe
Ewe ctrl range : min = -2.50 V, max = 2.50 V
Safety Limits :
	Do not start on E overload
Acquisition started on : 05/07/2026 15:31:18.757
Loaded Setting File :  C:\PEM-WE_measurements\2026\372_IV_IV IrOx, 5 min Pt, 30 min C, etched cathode\new station\Loopeis new\1,46 V different time gaps open cell\Loopeis 1,46V_45s_2_PEIS from 65kHz to 10kHz.mps
Saved on :
	File : L_07_Loopeis 1,46V_45s_2_PEIS from 65kHz to 10kHz_14_OCV_C01.mpr
	Directory : C:\PEM-WE_measurements\2026\372_IV_IV IrOx, 5 min Pt, 30 min C, etched cathode\new station\Loopeis new\1,46 V different time gaps open cell\
	Host : 192.168.0.2
Device : SP-150e (SN .005491)
Address : 192.168.0.91
EC-LAB for windows v11.71 (software)
Internet server v28.00 (firmware)
Command interpretor v14.01 (firmware)
Electrode material : 
Initial state : 
Electrolyte : 
Comments : 
Current amplifier : SP-150eB-20A
Electrode surface area : 0.001 cm²
Characteristic mass : 0.001 g
Equivalent Weight : 0.000 g/eq.
Density : 0.000 g/cm3
Volume (V) : 0.001 cm³
Record Analogic IN 1
Text export
   Mode : Standard
   Time format : Elapsed
Cycle Definition : Charge/Discharge alternance
tR (h:m:s)          0:00:45.0000        
dER/dt (mV/h)       1.0                 
record              <Ewe>               
dER (mV)            10.00               
dtR (s)             0.5000              
E range min (V)     -2.500              
E range max (V)     2.500               

mode	error	time/s	<Ewe/V>	Analog IN 1/V	
3	0	5.851451950143382E+002	1.2766982E+000	2.2950437E-005
3	0	5.856451950017072E+002	1.2710880E+000	-1.5220648E-005
3	0	5.861451949890761E+002	1.2349138E+000	3.8648941E-006
3	0	5.866451949764451E+002	1.1602803E+000	-9.1562819E-005
3	0	5.871451949638140E+002	9.2251939E-001	-9.1562819E-005
3	0	5.876451949511829E+002	4.7489676E-001	-1.1064836E-004
3	0	5.881451949385519E+002	3.5496318E-001	-1.5220648E-005
3	0	5.886451949259208E+002	3.3864659E-001	2.2950437E-005
3	0	5.891451949132897E+002	3.2979649E-001	3.8648941E-006
3	0	5.896451949006587E+002	3.2279631E-001	-7.2477276E-005
3	0	5.901451948880276E+002	3.1750524E-001	2.2950437E-005
3	0	5.906451948753966E+002	3.1349778E-001	6.1121522E-005
3	0	5.911451948627655E+002	3.1037250E-001	1.1837815E-004
3	0	5.916451948501344E+002	3.0787426E-001	-1.1064836E-004
3	0	5.921451948375034E+002	3.0581036E-001	-7.2477276E-005
3	0	5.926451948248723E+002	3.0406868E-001	-5.3391734E-005
3	0	5.931451948122412E+002	3.0256051E-001	9.9292607E-005
3	0	5.936451947996102E+002	3.0120915E-001	-1.4881945E-004
3	0	5.941451947869791E+002	3.0001816E-001	-5.3391734E-005
3	0	5.946451947743481E+002	2.9896721E-001	3.8648941E-006
3	0	5.951451947617170E+002	2.9800150E-001	-9.1562819E-005
3	0	5.956451947490859E+002	2.9709649E-001	-3.4306191E-005
3	0	5.961451947364549E+002	2.9625866E-001	3.8648941E-006
3	0	5.966451947238238E+002	2.9546908E-001	-1.8699054E-004
3	0	5.971451947111927E+002	2.9470074E-001	-1.5220648E-005
3	0	5.976451946985617E+002	2.9394689E-001	-9.1562819E-005
3	0	5.981451946859306E+002	2.9323688E-001	-1.5220648E-005
3	0	5.986451946732996E+002	2.9257116E-001	-7.2477276E-005
3	0	5.991451946606685E+002	2.9191661E-001	4.2035979E-005
3	0	5.996451946480374E+002	2.9126835E-001	-7.2477276E-005
3	0	6.001451946354064E+002	2.9064113E-001	-1.2973390E-004
3	0	6.006451946227753E+002	2.9002482E-001	-3.4306191E-005
3	0	6.011451946101442E+002	2.8940645E-001	-1.1064836E-004
3	0	6.016451945975132E+002	2.8878611E-001	2.2950437E-005
3	0	6.021451945848821E+002	2.8819108E-001	-1.2973390E-004
3	0	6.026451945722511E+002	2.8762609E-001	-5.3391734E-005
3	0	6.031451945596200E+002	2.8706256E-001	2.2950437E-005
3	0	6.036451945469889E+002	2.8650680E-001	-1.5220648E-005
3	0	6.041451945343579E+002	2.8596079E-001	-1.2973390E-004
3	0	6.046451945217268E+002	2.8542238E-001	6.1121522E-005
3	0	6.051451945090957E+002	2.8486368E-001	-9.1562819E-005
3	0	6.056451944964647E+002	2.8429955E-001	-7.2477276E-005
3	0	6.061451944838336E+002	2.8375414E-001	-1.4881945E-004
3	0	6.066451944712026E+002	2.8324145E-001	1.5654923E-004
3	0	6.071451944585715E+002	2.8272110E-001	-5.3391734E-005
3	0	6.076451944459404E+002	2.8221542E-001	-5.3391734E-005
3	0	6.081451944333094E+002	2.8170434E-001	-9.1562819E-005
3	0	6.086451944206783E+002	2.8119510E-001	2.2950437E-005
3	0	6.091451944080472E+002	2.8067952E-001	-1.1064836E-004
3	0	6.096451943954162E+002	2.8015259E-001	-1.1064836E-004
3	0	6.101451943827851E+002	2.7965233E-001	-5.3391734E-005
3	0	6.106451943701541E+002	2.7918014E-001	-5.3391734E-005
3	0	6.111451943575230E+002	2.7870166E-001	-1.5220648E-005
3	0	6.116451943448919E+002	2.7822551E-001	-1.5220648E-005
3	0	6.121451943322609E+002	2.7775431E-001	2.2950437E-005
3	0	6.126451943196298E+002	2.7728841E-001	-2.2516162E-004
3	0	6.131451943069987E+002	2.7680868E-001	-3.4306191E-005
3	0	6.136451942943677E+002	2.7631187E-001	4.2035979E-005
3	0	6.141451942817366E+002	2.7584308E-001	-1.5220648E-005
3	0	6.146451942691056E+002	2.7540043E-001	-3.4306191E-005
3	0	6.151451942564745E+002	2.7494982E-001	-9.1562819E-005
3	0	6.156451942438434E+002	2.7451771E-001	2.2950437E-005
3	0	6.161451942312124E+002	2.7407989E-001	-1.6790499E-004
3	0	6.166451942185813E+002	2.7364895E-001	6.1121522E-005
3	0	6.171451942059502E+002	2.7320102E-001	-7.2477276E-005
3	0	6.176451941933192E+002	2.7273899E-001	-1.4881945E-004
3	0	6.181451941806881E+002	2.7230614E-001	-1.5220648E-005
3	0	6.186451941680571E+002	2.7189979E-001	9.9292607E-005
3	0	6.191451941554260E+002	2.7147850E-001	9.9292607E-005
3	0	6.196451941427949E+002	2.7106968E-001	-1.1064836E-004
3	0	6.201451941301639E+002	2.7066955E-001	-7.2477276E-005
3	0	6.206451941175328E+002	2.7026117E-001	-5.3391734E-005
3	0	6.211451941049017E+002	2.6983771E-001	-1.6790499E-004
3	0	6.216451940922707E+002	2.6941559E-001	-1.1064836E-004
3	0	6.221451940796396E+002	2.6901308E-001	4.2035979E-005
3	0	6.226451940670086E+002	2.6863274E-001	-9.1562819E-005
3	0	6.231451940543775E+002	2.6825014E-001	-1.1064836E-004
3	0	6.236451940417464E+002	2.6787621E-001	8.0207064E-005
3	0	6.241451940291154E+002	2.6749909E-001	-3.4306191E-005
3	0	6.246451940164843E+002	2.6712865E-001	4.2035979E-005
3	0	6.251451940038532E+002	2.6674861E-001	-3.4306191E-005
3	0	6.256451939912222E+002	2.6635030E-001	-2.0607607E-004
3	0	6.261451939785911E+002	2.6597968E-001	-1.1064836E-004
3	0	6.266451939659601E+002	2.6563844E-001	-1.5220648E-005
3	0	6.271451939533290E+002	2.6529071E-001	-7.2477276E-005
3	0	6.276451939406979E+002	2.6494694E-001	-3.4306191E-005
3	0	6.281451939280669E+002	2.6461327E-001	-3.4306191E-005
3	0	6.286451939154358E+002	2.6427105E-001	-1.1064836E-004
3	0	6.291451939028047E+002	2.6392162E-001	-1.1064836E-004
3	0	6.296451938901737E+002	2.6355594E-001	-5.3391734E-005
3	0	6.296455938901636E+002	2.6336509E-001	-1.1064836E-004