EC-Lab ASCII FILE
Nb header lines : 48                          

Open Circuit Voltage

Run on channel : 1 (SN 81504)
User : 
CE vs. WE compliance from -10 V to 10 V
Electrode connection : standard
Potential control : Ewe
Ewe ctrl range : min = -2.50 V, max = 2.50 V
Safety Limits :
	Do not start on E overload
Acquisition started on : 05/07/2026 16:58:53.259
Loaded Setting File :  C:\PEM-WE_measurements\2026\372_IV_IV IrOx, 5 min Pt, 30 min C, etched cathode\new station\Loopeis new\1,46 V different time gaps open cell\Loopeis 1,46V_60s_2_PEIS from 65kHz to 10kHz.mps
Saved on :
	File : L_12_Loopeis 1,46V_60s_2_PEIS from 65kHz to 10kHz_18_OCV_C01.mpr
	Directory : C:\PEM-WE_measurements\2026\372_IV_IV IrOx, 5 min Pt, 30 min C, etched cathode\new station\Loopeis new\1,46 V different time gaps open cell\
	Host : 192.168.0.2
Device : SP-150e (SN .005491)
Address : 192.168.0.91
EC-LAB for windows v11.71 (software)
Internet server v28.00 (firmware)
Command interpretor v14.01 (firmware)
Electrode material : 
Initial state : 
Electrolyte : 
Comments : 
Current amplifier : SP-150eB-20A
Electrode surface area : 0.001 cm²
Characteristic mass : 0.001 g
Equivalent Weight : 0.000 g/eq.
Density : 0.000 g/cm3
Volume (V) : 0.001 cm³
Record Analogic IN 1
Text export
   Mode : Standard
   Time format : Elapsed
Cycle Definition : Charge/Discharge alternance
tR (h:m:s)          0:01:0.0000         
dER/dt (mV/h)       1.0                 
record              <Ewe>               
dER (mV)            10.00               
dtR (s)             0.5000              
E range min (V)     -2.500              
E range max (V)     2.500               

mode	error	time/s	<Ewe/V>	Analog IN 1/V	
3	0	8.870789908016013E+002	1.2776574E+000	-1.2973390E-004
3	0	8.875789907889703E+002	1.2750015E+000	-7.2477276E-005
3	0	8.880789907763392E+002	1.2448987E+000	2.2950437E-005
3	0	8.885789907637081E+002	1.1827030E+000	8.0207064E-005
3	0	8.890789907510771E+002	1.0113107E+000	9.9292607E-005
3	0	8.895789907384460E+002	5.4310477E-001	4.2035979E-005
3	0	8.900789907258149E+002	3.7255880E-001	-5.3391734E-005
3	0	8.905789907131839E+002	3.4737810E-001	-1.8699054E-004
3	0	8.910789907005528E+002	3.3771056E-001	1.1837815E-004
3	0	8.915789906879218E+002	3.3014086E-001	9.9292607E-005
3	0	8.920789906752907E+002	3.2441258E-001	-1.6790499E-004
3	0	8.925789906626596E+002	3.2005030E-001	9.9292607E-005
3	0	8.930789906500286E+002	3.1666306E-001	-3.4306191E-005
3	0	8.935789906373975E+002	3.1395179E-001	-1.8699054E-004
3	0	8.940789906247664E+002	3.1170103E-001	4.2035979E-005
3	0	8.945789906121354E+002	3.0979836E-001	-1.6790499E-004
3	0	8.950789905995043E+002	3.0818415E-001	-9.1562819E-005
3	0	8.955789905868733E+002	3.0677745E-001	-1.5220648E-005
3	0	8.960789905742422E+002	3.0553943E-001	-1.5220648E-005
3	0	8.965789905616111E+002	3.0442432E-001	6.1121522E-005
3	0	8.970789905489801E+002	3.0339479E-001	8.0207064E-005
3	0	8.975789905363490E+002	3.0243739E-001	-1.5220648E-005
3	0	8.980789905237179E+002	3.0152589E-001	-1.5220648E-005
3	0	8.985789905110869E+002	3.0064979E-001	4.2035979E-005
3	0	8.990789904984558E+002	2.9984757E-001	-7.2477276E-005
3	0	8.995789904858248E+002	2.9908824E-001	-1.4881945E-004
3	0	9.000789904731937E+002	2.9835156E-001	-9.1562819E-005
3	0	9.005789904605626E+002	2.9764357E-001	-1.1064836E-004
3	0	9.010789904479316E+002	2.9695776E-001	3.8648941E-006
3	0	9.015789904353005E+002	2.9628229E-001	9.9292607E-005
3	0	9.020789904226694E+002	2.9561064E-001	-1.2973390E-004
3	0	9.025789904100384E+002	2.9493943E-001	-1.2973390E-004
3	0	9.030789903974073E+002	2.9430383E-001	-5.3391734E-005
3	0	9.035789903847763E+002	2.9369622E-001	-3.4306191E-005
3	0	9.040789903721452E+002	2.9309759E-001	-1.8699054E-004
3	0	9.045789903595141E+002	2.9250297E-001	-1.6790499E-004
3	0	9.050789903468831E+002	2.9191980E-001	3.8648941E-006
3	0	9.055789903342520E+002	2.9134178E-001	4.2035979E-005
3	0	9.060789903216210E+002	2.9075050E-001	-5.3391734E-005
3	0	9.065789903089899E+002	2.9016215E-001	-3.0150381E-004
3	0	9.070789902963588E+002	2.8959769E-001	6.1121522E-005
3	0	9.075789902837278E+002	2.8905448E-001	1.1837815E-004
3	0	9.080789902710967E+002	2.8851396E-001	-3.4306191E-005
3	0	9.085789902584656E+002	2.8797373E-001	-1.5220648E-005
3	0	9.090789902458346E+002	2.8744885E-001	4.2035979E-005
3	0	9.095789902332035E+002	2.8691760E-001	-5.3391734E-005
3	0	9.100789902205725E+002	2.8637350E-001	3.8648941E-006
3	0	9.105789902079414E+002	2.8581989E-001	3.8648941E-006
3	0	9.110789901953103E+002	2.8529677E-001	-5.3391734E-005
3	0	9.115789901826793E+002	2.8479478E-001	-1.2973390E-004
3	0	9.120789901700482E+002	2.8429961E-001	-3.4306191E-005
3	0	9.125789901574171E+002	2.8380370E-001	4.2035979E-005
3	0	9.130789901447861E+002	2.8330773E-001	4.2035979E-005
3	0	9.135789901321550E+002	2.8281805E-001	3.8648941E-006
3	0	9.140789901195240E+002	2.8230861E-001	-1.6790499E-004
3	0	9.145789901068929E+002	2.8180200E-001	-3.4306191E-005
3	0	9.150789900942618E+002	2.8131261E-001	1.3746369E-004
3	0	9.155789900816308E+002	2.8084755E-001	-9.1562819E-005
3	0	9.160789900689997E+002	2.8039870E-001	-1.5220648E-005
3	0	9.165789900563686E+002	2.7994433E-001	-3.4306191E-005
3	0	9.170789900437376E+002	2.7948186E-001	-7.2477276E-005
3	0	9.175789900311065E+002	2.7902314E-001	-3.4306191E-005
3	0	9.180789900184755E+002	2.7855158E-001	-7.2477276E-005
3	0	9.185789900058444E+002	2.7805826E-001	6.1121522E-005
3	0	9.190789899932133E+002	2.7761295E-001	-7.2477276E-005
3	0	9.195789899805823E+002	2.7718189E-001	-1.4881945E-004
3	0	9.200789899679512E+002	2.7674049E-001	8.0207064E-005
3	0	9.205789899553201E+002	2.7631751E-001	-7.2477276E-005
3	0	9.210789899426891E+002	2.7589810E-001	6.1121522E-005
3	0	9.215789899300580E+002	2.7547476E-001	6.1121522E-005
3	0	9.220789899174270E+002	2.7504671E-001	-1.2973390E-004
3	0	9.225789899047959E+002	2.7459204E-001	-5.3391734E-005
3	0	9.230789898921648E+002	2.7417365E-001	1.1837815E-004
3	0	9.235789898795338E+002	2.7378246E-001	-1.1064836E-004
3	0	9.240789898669027E+002	2.7338314E-001	-1.1064836E-004
3	0	9.245789898542716E+002	2.7298465E-001	4.2035979E-005
3	0	9.250789898416406E+002	2.7259284E-001	-1.5220648E-005
3	0	9.255789898290095E+002	2.7220020E-001	1.1837815E-004
3	0	9.260789898163785E+002	2.7179429E-001	-5.3391734E-005
3	0	9.265789898037474E+002	2.7138665E-001	-1.5220648E-005
3	0	9.270789897911163E+002	2.7100626E-001	-7.2477276E-005
3	0	9.275789897784853E+002	2.7064812E-001	-1.1064836E-004
3	0	9.280789897658542E+002	2.7028716E-001	-3.4306191E-005
3	0	9.285789897532231E+002	2.6992849E-001	-3.4306191E-005
3	0	9.290789897405921E+002	2.6957190E-001	-1.1064836E-004
3	0	9.295789897279610E+002	2.6921538E-001	3.8648941E-006
3	0	9.300789897153300E+002	2.6884070E-001	-5.3391734E-005
3	0	9.305789897026989E+002	2.6845461E-001	3.8648941E-006
3	0	9.310789896900678E+002	2.6809525E-001	3.8648941E-006
3	0	9.315789896774368E+002	2.6777121E-001	-5.3391734E-005
3	0	9.320789896648057E+002	2.6743683E-001	-1.2973390E-004
3	0	9.325789896521746E+002	2.6710257E-001	-5.3391734E-005
3	0	9.330789896395436E+002	2.6677552E-001	-3.4306191E-005
3	0	9.335789896269125E+002	2.6644757E-001	-5.3391734E-005
3	0	9.340789896142815E+002	2.6610434E-001	-5.3391734E-005
3	0	9.345789896016504E+002	2.6574519E-001	-7.2477276E-005
3	0	9.350789895890193E+002	2.6542744E-001	4.2035979E-005
3	0	9.355789895763883E+002	2.6511616E-001	-1.4881945E-004
3	0	9.360789895637572E+002	2.6481277E-001	-1.5220648E-005
3	0	9.365789895511261E+002	2.6450527E-001	-7.2477276E-005
3	0	9.370789895384951E+002	2.6420733E-001	-5.3391734E-005
3	0	9.375789895258640E+002	2.6389503E-001	-5.3391734E-005
3	0	9.380789895132330E+002	2.6357880E-001	8.0207064E-005
3	0	9.385789895006019E+002	2.6324594E-001	-1.1064836E-004
3	0	9.390789894879708E+002	2.6294681E-001	4.2035979E-005
3	0	9.395789894753398E+002	2.6266354E-001	-1.1064836E-004
3	0	9.400789894627087E+002	2.6238406E-001	-5.3391734E-005
3	0	9.405789894500776E+002	2.6210430E-001	3.8648941E-006
3	0	9.410789894374466E+002	2.6183093E-001	2.2950437E-005
3	0	9.415789894248155E+002	2.6155367E-001	-1.5220648E-005
3	0	9.420789894121845E+002	2.6125240E-001	-2.2516162E-004
3	0	9.425789893995534E+002	2.6095256E-001	3.8648941E-006
3	0	9.430789893869223E+002	2.6068389E-001	6.1121522E-005
3	0	9.435789893742913E+002	2.6044062E-001	-9.1562819E-005
3	0	9.440789893616602E+002	2.6017541E-001	1.3746369E-004
3	0	9.445789893490291E+002	2.5992221E-001	-1.4881945E-004
3	0	9.450789893363981E+002	2.5967130E-001	-1.4881945E-004
3	0	9.455789893237670E+002	2.5942111E-001	-1.5220648E-005
3	0	9.460789893111360E+002	2.5914901E-001	-1.8699054E-004
3	0	9.465789892985049E+002	2.5885987E-001	3.8648941E-006
3	0	9.465793892984948E+002	2.5873390E-001	-1.8699054E-004