EC-Lab ASCII FILE
Nb header lines : 48                          

Open Circuit Voltage

Run on channel : 1 (SN 81504)
User : 
CE vs. WE compliance from -10 V to 10 V
Electrode connection : standard
Potential control : Ewe
Ewe ctrl range : min = -2.50 V, max = 2.50 V
Safety Limits :
	Do not start on E overload
Acquisition started on : 05/10/2026 05:54:37.151
Loaded Setting File :  C:\PEM-WE_measurements\2026\372_IV_IV IrOx, 5 min Pt, 30 min C, etched cathode\new station\Loopeis new\1,46 V different time gaps closed cell\Loopeis 1,46V_120s_2_PEIS from 65kHz to 10kHz.mps
Saved on :
	File : L_22_Loopeis 1,46V_120s_2_PEIS from 65kHz to 10kHz_12_OCV_C01.mpr
	Directory : C:\PEM-WE_measurements\2026\372_IV_IV IrOx, 5 min Pt, 30 min C, etched cathode\new station\Loopeis new\1,46 V different time gaps closed cell\
	Host : 192.168.0.2
Device : SP-150e (SN .005491)
Address : 192.168.0.91
EC-LAB for windows v11.71 (software)
Internet server v28.00 (firmware)
Command interpretor v14.01 (firmware)
Electrode material : 
Initial state : 
Electrolyte : 
Comments : 
Current amplifier : SP-150eB-20A
Electrode surface area : 0.001 cm²
Characteristic mass : 0.001 g
Equivalent Weight : 0.000 g/eq.
Density : 0.000 g/cm3
Volume (V) : 0.001 cm³
Record Analogic IN 1
Text export
   Mode : Standard
   Time format : Elapsed
Cycle Definition : Charge/Discharge alternance
tR (h:m:s)          0:02:0.0000         
dER/dt (mV/h)       1.0                 
record              <Ewe>               
dER (mV)            10.00               
dtR (s)             0.5000              
E range min (V)     -2.500              
E range max (V)     2.500               

mode	error	time/s	<Ewe/V>	Analog IN 1/V	
3	0	8.706735878422478E+002	1.1209191E+000	-1.4881945E-004
3	0	8.711735878296167E+002	1.2587782E+000	-2.0607607E-004
3	0	8.716735878169857E+002	1.2560259E+000	-5.3391734E-005
3	0	8.721735878043546E+002	1.2469162E+000	3.8648941E-006
3	0	8.726735877917235E+002	1.2292576E+000	4.2035979E-005
3	0	8.731735877790925E+002	1.1991701E+000	3.8648941E-006
3	0	8.736735877664614E+002	1.1490446E+000	-1.1064836E-004
3	0	8.741735877538304E+002	1.0556120E+000	6.1121522E-005
3	0	8.746735877411993E+002	7.8971785E-001	9.9292607E-005
3	0	8.751735877285682E+002	5.1867747E-001	-9.1562819E-005
3	0	8.756735877159372E+002	4.1672078E-001	4.2035979E-005
3	0	8.761735877033061E+002	3.8441160E-001	3.8648941E-006
3	0	8.766735876906750E+002	3.7658477E-001	-7.2477276E-005
3	0	8.771735876780440E+002	3.7434986E-001	-9.1562819E-005
3	0	8.776735876654129E+002	3.7287450E-001	3.8648941E-006
3	0	8.781735876527819E+002	3.7151283E-001	-1.6790499E-004
3	0	8.786735876401508E+002	3.7030748E-001	-3.4306191E-005
3	0	8.791735876275197E+002	3.6904097E-001	-3.4306191E-005
3	0	8.796735876148887E+002	3.6774185E-001	-1.5220648E-005
3	0	8.801735876022576E+002	3.6693743E-001	-7.2477276E-005
3	0	8.806735875896266E+002	3.6696264E-001	-1.1064836E-004
3	0	8.811735875769955E+002	3.6688384E-001	2.2950437E-005
3	0	8.816735875643644E+002	3.6663404E-001	-7.2477276E-005
3	0	8.821735875517334E+002	3.6644056E-001	3.8648941E-006
3	0	8.826735875391023E+002	3.6630622E-001	3.8648941E-006
3	0	8.831735875264712E+002	3.6611953E-001	-9.1562819E-005
3	0	8.836735875138402E+002	3.6563843E-001	4.2035979E-005
3	0	8.841735875012091E+002	3.6546907E-001	6.1121522E-005
3	0	8.846735874885781E+002	3.6596811E-001	-1.4881945E-004
3	0	8.851735874759470E+002	3.6627007E-001	-2.2516162E-004
3	0	8.856735874633159E+002	3.6635241E-001	-5.3391734E-005
3	0	8.861735874506849E+002	3.6642113E-001	-5.3391734E-005
3	0	8.866735874380538E+002	3.6651772E-001	-7.2477276E-005
3	0	8.871735874254227E+002	3.6637554E-001	-5.3391734E-005
3	0	8.876735874127917E+002	3.6606705E-001	-1.5220648E-005
3	0	8.881735874001606E+002	3.6593649E-001	9.9292607E-005
3	0	8.886735873875296E+002	3.6641321E-001	-9.1562819E-005
3	0	8.891735873748985E+002	3.6673498E-001	-3.4306191E-005
3	0	8.896735873622674E+002	3.6681929E-001	-1.4881945E-004
3	0	8.901735873496364E+002	3.6684769E-001	-1.8699054E-004
3	0	8.906735873370053E+002	3.6687747E-001	-1.5220648E-005
3	0	8.911735873243742E+002	3.6669588E-001	1.1837815E-004
3	0	8.916735873117432E+002	3.6637729E-001	-2.6333271E-004
3	0	8.921735872991121E+002	3.6624676E-001	-5.3391734E-005
3	0	8.926735872864811E+002	3.6669579E-001	-1.2973390E-004
3	0	8.931735872738500E+002	3.6702472E-001	-1.1064836E-004
3	0	8.936735872612189E+002	3.6724427E-001	-9.1562819E-005
3	0	8.941735872485879E+002	3.6755410E-001	3.8648941E-006
3	0	8.946735872359568E+002	3.6789998E-001	4.2035979E-005
3	0	8.951735872233257E+002	3.6824083E-001	-7.2477276E-005
3	0	8.956735872106947E+002	3.6846682E-001	-3.4306191E-005
3	0	8.961735871980636E+002	3.6895630E-001	-5.3391734E-005
3	0	8.966735871854326E+002	3.7002337E-001	-1.2973390E-004
3	0	8.971735871728015E+002	3.7095568E-001	-3.4306191E-005
3	0	8.976735871601704E+002	3.7167418E-001	-1.2973390E-004
3	0	8.981735871475394E+002	3.7225679E-001	4.2035979E-005
3	0	8.986735871349083E+002	3.7283301E-001	-1.2973390E-004
3	0	8.991735871222772E+002	3.7308463E-001	-3.4306191E-005
3	0	8.996735871096462E+002	3.7314391E-001	-9.1562819E-005
3	0	9.001735870970151E+002	3.7331316E-001	2.2950437E-005
3	0	9.006735870843841E+002	3.7400720E-001	2.2950437E-005
3	0	9.011735870717530E+002	3.7454140E-001	-1.5220648E-005
3	0	9.016735870591219E+002	3.7482288E-001	-5.3391734E-005
3	0	9.021735870464909E+002	3.7503901E-001	2.2950437E-005
3	0	9.026735870338598E+002	3.7516525E-001	-9.1562819E-005
3	0	9.031735870212287E+002	3.7507719E-001	-1.5220648E-005
3	0	9.036735870085977E+002	3.7470162E-001	-9.1562819E-005
3	0	9.041735869959666E+002	3.7451664E-001	-3.4306191E-005
3	0	9.046735869833356E+002	3.7485594E-001	-1.1064836E-004
3	0	9.051735869707045E+002	3.7502706E-001	2.2950437E-005
3	0	9.056735869580734E+002	3.7498087E-001	2.2950437E-005
3	0	9.061735869454424E+002	3.7486151E-001	-7.2477276E-005
3	0	9.066735869328113E+002	3.7468773E-001	-5.3391734E-005
3	0	9.071735869201802E+002	3.7432176E-001	2.2950437E-005
3	0	9.076735869075492E+002	3.7372032E-001	-5.3391734E-005
3	0	9.081735868949181E+002	3.7321654E-001	-3.4306191E-005
3	0	9.086735868822871E+002	3.7328765E-001	-9.1562819E-005
3	0	9.091735868696560E+002	3.7323919E-001	-5.3391734E-005
3	0	9.096735868570249E+002	3.7302679E-001	-7.2477276E-005
3	0	9.101735868443939E+002	3.7280154E-001	-7.2477276E-005
3	0	9.106735868317628E+002	3.7253574E-001	-1.4881945E-004
3	0	9.111735868191317E+002	3.7208927E-001	-2.0607607E-004
3	0	9.116735868065007E+002	3.7149855E-001	2.2950437E-005
3	0	9.121735867938696E+002	3.7100375E-001	6.1121522E-005
3	0	9.126735867812386E+002	3.7101823E-001	-1.1064836E-004
3	0	9.131735867686075E+002	3.7097862E-001	-7.2477276E-005
3	0	9.136735867559764E+002	3.7080052E-001	-5.3391734E-005
3	0	9.141735867433454E+002	3.7072521E-001	-7.2477276E-005
3	0	9.146735867307143E+002	3.7073570E-001	-1.8699054E-004
3	0	9.151735867180832E+002	3.7067926E-001	-3.4306191E-005
3	0	9.156735867054522E+002	3.7055749E-001	-5.3391734E-005
3	0	9.161735866928211E+002	3.7066743E-001	-3.4306191E-005
3	0	9.166735866801901E+002	3.7134215E-001	3.8648941E-006
3	0	9.171735866675590E+002	3.7189415E-001	-3.4306191E-005
3	0	9.176735866549279E+002	3.7222585E-001	-5.3391734E-005
3	0	9.181735866422969E+002	3.7242472E-001	-1.6790499E-004
3	0	9.186735866296658E+002	3.7260228E-001	4.2035979E-005
3	0	9.191735866170347E+002	3.7254676E-001	-1.2973390E-004
3	0	9.196735866044037E+002	3.7223488E-001	-1.2973390E-004
3	0	9.201735865917726E+002	3.7205794E-001	-3.4306191E-005
3	0	9.206735865791416E+002	3.7235314E-001	-1.6790499E-004
3	0	9.211735865665105E+002	3.7251359E-001	-9.1562819E-005
3	0	9.216735865538794E+002	3.7248734E-001	-3.4306191E-005
3	0	9.221735865412484E+002	3.7239259E-001	-9.1562819E-005
3	0	9.226735865286173E+002	3.7220067E-001	2.2950437E-005
3	0	9.231735865159862E+002	3.7186840E-001	3.8648941E-006
3	0	9.236735865033552E+002	3.7136084E-001	3.8648941E-006
3	0	9.241735864907241E+002	3.7096471E-001	1.1837815E-004
3	0	9.246735864780931E+002	3.7101698E-001	3.8648941E-006
3	0	9.251735864654620E+002	3.7097648E-001	-1.5220648E-005
3	0	9.256735864528309E+002	3.7072527E-001	-1.4881945E-004
3	0	9.261735864401999E+002	3.7040105E-001	-5.3391734E-005
3	0	9.266735864275688E+002	3.7005460E-001	-9.1562819E-005
3	0	9.271735864149377E+002	3.6951798E-001	-3.4306191E-005
3	0	9.276735864023067E+002	3.6884043E-001	2.2950437E-005
3	0	9.281735863896756E+002	3.6828959E-001	-2.2516162E-004
3	0	9.286735863770446E+002	3.6820465E-001	-9.1562819E-005
3	0	9.291735863644135E+002	3.6808443E-001	6.1121522E-005
3	0	9.296735863517824E+002	3.6780998E-001	-9.1562819E-005
3	0	9.301735863391514E+002	3.6745891E-001	3.8648941E-006
3	0	9.306735863265203E+002	3.6706850E-001	-1.6790499E-004
3	0	9.311735863138892E+002	3.6656442E-001	-1.1064836E-004
3	0	9.316735863012582E+002	3.6585090E-001	-9.1562819E-005
3	0	9.321735862886271E+002	3.6526403E-001	-1.5220648E-005
3	0	9.326735862759961E+002	3.6511454E-001	-7.2477276E-005
3	0	9.331735862633650E+002	3.6494842E-001	-1.1064836E-004
3	0	9.336735862507339E+002	3.6468050E-001	-1.1064836E-004
3	0	9.341735862381029E+002	3.6445788E-001	-9.1562819E-005
3	0	9.346735862254718E+002	3.6430141E-001	-9.1562819E-005
3	0	9.351735862128407E+002	3.6412030E-001	-7.2477276E-005
3	0	9.356735862002097E+002	3.6389869E-001	-7.2477276E-005
3	0	9.361735861875786E+002	3.6386278E-001	-3.4306191E-005
3	0	9.366735861749476E+002	3.6430097E-001	-7.2477276E-005
3	0	9.371735861623165E+002	3.6469364E-001	-5.3391734E-005
3	0	9.376735861496854E+002	3.6492079E-001	-5.3391734E-005
3	0	9.381735861370544E+002	3.6502668E-001	-9.1562819E-005
3	0	9.386735861244233E+002	3.6511582E-001	4.2035979E-005
3	0	9.391735861117922E+002	3.6500761E-001	-3.4306191E-005
3	0	9.396735860991612E+002	3.6471945E-001	-1.5220648E-005
3	0	9.401735860865301E+002	3.6450809E-001	3.8648941E-006
3	0	9.406735860738991E+002	3.6466867E-001	4.2035979E-005
3	0	9.411735860612680E+002	3.6476076E-001	-5.3391734E-005
3	0	9.416735860486369E+002	3.6469480E-001	-3.4306191E-005
3	0	9.421735860360059E+002	3.6454126E-001	-3.4306191E-005
3	0	9.426735860233748E+002	3.6432970E-001	-9.1562819E-005
3	0	9.431735860107437E+002	3.6397231E-001	-3.4306191E-005
3	0	9.436735859981127E+002	3.6345011E-001	-5.3391734E-005
3	0	9.441735859854816E+002	3.6298183E-001	2.2950437E-005
3	0	9.446735859728506E+002	3.6288068E-001	-1.1064836E-004
3	0	9.451735859602195E+002	3.6273262E-001	-5.3391734E-005
3	0	9.456735859475884E+002	3.6247510E-001	-1.5220648E-005
3	0	9.461735859349574E+002	3.6214057E-001	-1.5220648E-005
3	0	9.466735859223263E+002	3.6178988E-001	2.2950437E-005
3	0	9.471735859096952E+002	3.6130986E-001	-1.2973390E-004
3	0	9.476735858970642E+002	3.6074004E-001	-7.2477276E-005
3	0	9.481735858844331E+002	3.6022007E-001	-5.3391734E-005
3	0	9.486735858718021E+002	3.6010471E-001	-9.1562819E-005
3	0	9.491735858591710E+002	3.5993439E-001	-2.6333271E-004
3	0	9.496735858465399E+002	3.5964778E-001	-1.4881945E-004
3	0	9.501735858339089E+002	3.5930228E-001	8.0207064E-005
3	0	9.506735858212778E+002	3.5890934E-001	-7.2477276E-005
3	0	9.511735858086467E+002	3.5842946E-001	4.2035979E-005
3	0	9.516735857960157E+002	3.5778353E-001	-9.1562819E-005
3	0	9.521735857833846E+002	3.5723010E-001	-3.4306191E-005
3	0	9.526735857707536E+002	3.5706654E-001	3.8648941E-006
3	0	9.531735857581225E+002	3.5686707E-001	6.1121522E-005
3	0	9.536735857454914E+002	3.5659528E-001	-5.3391734E-005
3	0	9.541735857328604E+002	3.5635206E-001	-2.2516162E-004
3	0	9.546735857202293E+002	3.5618123E-001	6.1121522E-005
3	0	9.551735857075982E+002	3.5601038E-001	-7.2477276E-005
3	0	9.556735856949672E+002	3.5579836E-001	-1.8699054E-004
3	0	9.561735856823361E+002	3.5573146E-001	-9.1562819E-005
3	0	9.566735856697051E+002	3.5606936E-001	-9.1562819E-005
3	0	9.571735856570740E+002	3.5639292E-001	-7.2477276E-005
3	0	9.576735856444429E+002	3.5660428E-001	-1.2973390E-004
3	0	9.581735856318119E+002	3.5670373E-001	-7.2477276E-005
3	0	9.586735856191808E+002	3.5672316E-001	-5.3391734E-005
3	0	9.591735856065498E+002	3.5665917E-001	1.1837815E-004
3	0	9.596735855939187E+002	3.5640877E-001	3.8648941E-006
3	0	9.601735855812876E+002	3.5620245E-001	-9.1562819E-005
3	0	9.606735855686566E+002	3.5632101E-001	-1.2973390E-004
3	0	9.611735855560255E+002	3.5636786E-001	-1.6790499E-004
3	0	9.616735855433944E+002	3.5628515E-001	-7.2477276E-005
3	0	9.621735855307634E+002	3.5610908E-001	-5.3391734E-005
3	0	9.626735855181323E+002	3.5592467E-001	-1.8699054E-004
3	0	9.631735855055013E+002	3.5553673E-001	-7.2477276E-005
3	0	9.636735854928702E+002	3.5505226E-001	-5.3391734E-005
3	0	9.641735854802391E+002	3.5467798E-001	-3.4306191E-005
3	0	9.646735854676081E+002	3.5464147E-001	-1.5220648E-005
3	0	9.651735854549770E+002	3.5453153E-001	-1.1064836E-004
3	0	9.656735854423459E+002	3.5431936E-001	-1.4881945E-004
3	0	9.661735854297149E+002	3.5405469E-001	-1.8699054E-004
3	0	9.666735854170838E+002	3.5375753E-001	-1.2973390E-004
3	0	9.671735854044528E+002	3.5337597E-001	2.2950437E-005
3	0	9.676735853918217E+002	3.5288239E-001	1.3746369E-004
3	0	9.681735853791906E+002	3.5245493E-001	-1.5220648E-005
3	0	9.686735853665596E+002	3.5234454E-001	-1.5220648E-005
3	0	9.691735853539285E+002	3.5217088E-001	8.0207064E-005
3	0	9.696735853412974E+002	3.5189322E-001	-1.2973390E-004
3	0	9.701735853286664E+002	3.5154775E-001	-1.2973390E-004
3	0	9.706735853160353E+002	3.5120037E-001	2.2950437E-005
3	0	9.711735853034043E+002	3.5078520E-001	-1.5220648E-005
3	0	9.716735852907732E+002	3.5029286E-001	3.8648941E-006
3	0	9.721735852781421E+002	3.4982795E-001	-1.5220648E-005
3	0	9.726735852655111E+002	3.4967256E-001	-9.1562819E-005
3	0	9.731735852528800E+002	3.4947872E-001	3.8648941E-006
3	0	9.736735852402489E+002	3.4923890E-001	3.8648941E-006
3	0	9.741735852276179E+002	3.4897777E-001	2.2950437E-005
3	0	9.746735852149868E+002	3.4877166E-001	-7.2477276E-005
3	0	9.751735852023558E+002	3.4855300E-001	-9.1562819E-005
3	0	9.756735851897247E+002	3.4831786E-001	2.2950437E-005
3	0	9.761735851770936E+002	3.4825343E-001	-7.2477276E-005
3	0	9.766735851644626E+002	3.4856245E-001	1.1837815E-004
3	0	9.771735851518315E+002	3.4885430E-001	-1.5220648E-005
3	0	9.776735851392004E+002	3.4904364E-001	4.2035979E-005
3	0	9.781735851265694E+002	3.4914088E-001	-1.2973390E-004
3	0	9.786735851139383E+002	3.4921744E-001	-1.5220648E-005
3	0	9.791735851013073E+002	3.4912360E-001	-1.8699054E-004
3	0	9.796735850886762E+002	3.4887904E-001	-7.2477276E-005
3	0	9.801735850760451E+002	3.4866089E-001	-1.8699054E-004
3	0	9.806735850634141E+002	3.4873417E-001	-7.2477276E-005
3	0	9.811735850507830E+002	3.4873801E-001	-1.5220648E-005
3	0	9.816735850381519E+002	3.4862852E-001	6.1121522E-005
3	0	9.821735850255209E+002	3.4844047E-001	-1.1064836E-004
3	0	9.826735850128898E+002	3.4825990E-001	-1.5220648E-005
3	0	9.831735850002588E+002	3.4799960E-001	4.2035979E-005
3	0	9.836735849876277E+002	3.4763238E-001	-1.1064836E-004
3	0	9.841735849749966E+002	3.4729916E-001	-7.2477276E-005
3	0	9.846735849623656E+002	3.4723648E-001	-1.6790499E-004
3	0	9.851735849497345E+002	3.4712583E-001	4.2035979E-005
3	0	9.856735849371034E+002	3.4692392E-001	-1.1064836E-004
3	0	9.861735849244724E+002	3.4665591E-001	-5.3391734E-005
3	0	9.866735849118413E+002	3.4640366E-001	-5.3391734E-005
3	0	9.871735848992103E+002	3.4604794E-001	-1.1064836E-004
3	0	9.876735848865792E+002	3.4557572E-001	-1.5220648E-005
3	0	9.881735848739481E+002	3.4516671E-001	-3.4306191E-005
3	0	9.886735848613171E+002	3.4503549E-001	2.2950437E-005
3	0	9.891735848486860E+002	3.4485212E-001	-5.3391734E-005
3	0	9.896735848360549E+002	3.4458628E-001	-3.4306191E-005
3	0	9.901735848234239E+002	3.4428117E-001	-1.5220648E-005
3	0	9.902075848225650E+002	3.4410736E-001	-9.1562819E-005