EC-Lab ASCII FILE
Nb header lines : 55                          

Open Circuit Voltage

Run on channel : 1 (SN 81504)
User : 
CE vs. WE compliance from -10 V to 10 V
Electrode connection : standard
Potential control : Ewe
Ewe ctrl range : min = -2.50 V, max = 2.50 V
Safety Limits :
	Do not start on E overload
Acquisition started on : 05/10/2026 07:17:37.794
Loaded Setting File :  C:\PEM-WE_measurements\2026\372_IV_IV IrOx, 5 min Pt, 30 min C, etched cathode\new station\Loopeis new\1,46 V different time gaps closed cell\Loopeis 1,46V_120s_5_PEIS from 65Hz to 10Hz.mps
Saved on :
	File : L_25_Loopeis 1,46V_120s_5_PEIS from 65Hz to 10Hz_04_OCV_C01.mpr
	Directory : C:\PEM-WE_measurements\2026\372_IV_IV IrOx, 5 min Pt, 30 min C, etched cathode\new station\Loopeis new\1,46 V different time gaps closed cell\
	Host : 192.168.0.2
Device : SP-150e (SN .005491)
Address : 192.168.0.91
EC-LAB for windows v11.71 (software)
Internet server v28.00 (firmware)
Command interpretor v14.01 (firmware)
Electrode material : 
Initial state : 
Electrolyte : 
Comments : 
Current amplifier : SP-150eB-20A
Electrode surface area : 0.001 cm²
Characteristic mass : 0.001 g
Equivalent Weight : 0.000 g/eq.
Density : 0.000 g/cm3
Volume (V) : 0.001 cm³
Record Analogic IN 1
Text export
   Mode : Standard
   Time format : Elapsed
Cycle Definition : Charge/Discharge alternance
External device configuration :
   device type : Temperature Probe
   device name : Other
   Analog IN 1 : 
      unit : T/Â°C
      max : 100.000 at 2.000 V
      min : 0.000 at 1.460 V
tR (h:m:s)          0:02:0.0000         
dER/dt (mV/h)       1.0                 
record              <Ewe>               
dER (mV)            10.00               
dtR (s)             0.5000              
E range min (V)     -2.500              
E range max (V)     2.500               

mode	error	time/s	<Ewe/V>	Analog IN 1/V	
3	0	3.532676047392306E+002	1.1488762E+000	-2.7038385E+002
3	0	3.537676047265995E+002	1.2620448E+000	-2.7035913E+002
3	0	3.542676047139685E+002	1.2639403E+000	-2.7037326E+002
3	0	3.547676047013374E+002	1.2639476E+000	-2.7039447E+002
3	0	3.552676046887063E+002	1.2628630E+000	-2.7038031E+002
3	0	3.557676046760753E+002	1.2607266E+000	-2.7039093E+002
3	0	3.562676046634442E+002	1.2570964E+000	-2.7039447E+002
3	0	3.567676046508132E+002	1.2510523E+000	-2.7036618E+002
3	0	3.572676046381821E+002	1.2414428E+000	-2.7037326E+002
3	0	3.577676046255510E+002	1.2269858E+000	-2.7035559E+002
3	0	3.582676046129200E+002	1.2061474E+000	-2.7037677E+002
3	0	3.587676046002889E+002	1.1768028E+000	-2.7039447E+002
3	0	3.592676045876578E+002	1.1357809E+000	-2.7038385E+002
3	0	3.597676045750268E+002	1.0786436E+000	-2.7038385E+002
3	0	3.602676045623957E+002	1.0007687E+000	-2.7040506E+002
3	0	3.607676045497647E+002	8.9823580E-001	-2.7038742E+002
3	0	3.612676045371336E+002	7.8365642E-001	-2.7038742E+002
3	0	3.617676045245025E+002	6.9700718E-001	-2.7037326E+002
3	0	3.622676045118715E+002	6.5824407E-001	-2.7040506E+002
3	0	3.627676044992404E+002	6.4940155E-001	-2.7037326E+002
3	0	3.632676044866093E+002	6.5059227E-001	-2.7037677E+002
3	0	3.637676044739783E+002	6.5379518E-001	-2.7037326E+002
3	0	3.642676044613472E+002	6.5781248E-001	-2.7038031E+002
3	0	3.647676044487162E+002	6.6190445E-001	-2.7035205E+002
3	0	3.652676044360851E+002	6.6581416E-001	-2.7039801E+002
3	0	3.657676044234540E+002	6.6964924E-001	-2.7040506E+002
3	0	3.662676044108230E+002	6.7316860E-001	-2.7039447E+002
3	0	3.667676043981919E+002	6.7603368E-001	-2.7038742E+002
3	0	3.672676043855608E+002	6.7854720E-001	-2.7036618E+002
3	0	3.677676043729298E+002	6.8222195E-001	-2.7035559E+002
3	0	3.682676043602987E+002	6.8661135E-001	-2.7036267E+002
3	0	3.687676043476677E+002	6.9048953E-001	-2.7035559E+002
3	0	3.692676043350366E+002	6.9364107E-001	-2.7035559E+002
3	0	3.697676043224055E+002	6.9613975E-001	-2.7036618E+002
3	0	3.702676043097745E+002	6.9777429E-001	-2.7039447E+002
3	0	3.707676042971434E+002	6.9842476E-001	-2.7038742E+002
3	0	3.712676042845123E+002	6.9859308E-001	-2.7038385E+002
3	0	3.717676042718813E+002	6.9957036E-001	-2.7035559E+002
3	0	3.722676042592502E+002	7.0119375E-001	-2.7040506E+002
3	0	3.727676042466192E+002	7.0232224E-001	-2.7038031E+002
3	0	3.732676042339881E+002	7.0259237E-001	-2.7039447E+002
3	0	3.737676042213570E+002	7.0217234E-001	-2.7038031E+002
3	0	3.742676042087260E+002	7.0095778E-001	-2.7038385E+002
3	0	3.747676041960949E+002	6.9890296E-001	-2.7036267E+002
3	0	3.752676041834638E+002	6.9665110E-001	-2.7039093E+002
3	0	3.757676041708328E+002	6.9549114E-001	-2.7036618E+002
3	0	3.762676041582017E+002	6.9515193E-001	-2.7038031E+002
3	0	3.767676041455707E+002	6.9468230E-001	-2.7039447E+002
3	0	3.772676041329396E+002	6.9367766E-001	-2.7040155E+002
3	0	3.777676041203085E+002	6.9207519E-001	-2.7036618E+002
3	0	3.782676041076775E+002	6.8989080E-001	-2.7038742E+002
3	0	3.787676040950464E+002	6.8698514E-001	-2.7038385E+002
3	0	3.792676040824153E+002	6.8404663E-001	-2.7038385E+002
3	0	3.797676040697843E+002	6.8224674E-001	-2.7036267E+002
3	0	3.802676040571532E+002	6.8133801E-001	-2.7039093E+002
3	0	3.807676040445222E+002	6.8043733E-001	-2.7038385E+002
3	0	3.812676040318911E+002	6.7931581E-001	-2.7039447E+002
3	0	3.817676040192600E+002	6.7822415E-001	-2.7037326E+002
3	0	3.822676040066290E+002	6.7735475E-001	-2.7039801E+002
3	0	3.827676039939979E+002	6.7684209E-001	-2.7037677E+002
3	0	3.832676039813668E+002	6.7716008E-001	-2.7038742E+002
3	0	3.837676039687358E+002	6.7954183E-001	-2.7038742E+002
3	0	3.842676039561047E+002	6.8399322E-001	-2.7038385E+002
3	0	3.847676039434737E+002	6.8942249E-001	-2.7037326E+002
3	0	3.852676039308426E+002	6.9505173E-001	-2.7038385E+002
3	0	3.857676039182115E+002	7.0044237E-001	-2.7040155E+002
3	0	3.862676039055805E+002	7.0532590E-001	-2.7038385E+002
3	0	3.867676038929494E+002	7.0942873E-001	-2.7036972E+002
3	0	3.872676038803183E+002	7.1318913E-001	-2.7037677E+002
3	0	3.877676038676873E+002	7.1750420E-001	-2.7037326E+002
3	0	3.882676038550562E+002	7.2210175E-001	-2.7038385E+002
3	0	3.887676038424252E+002	7.2612679E-001	-2.7036267E+002
3	0	3.892676038297941E+002	7.2907567E-001	-2.7039447E+002
3	0	3.897676038171630E+002	7.3091060E-001	-2.7035559E+002
3	0	3.902676038045320E+002	7.3145086E-001	-2.7039093E+002
3	0	3.907676037919009E+002	7.3065293E-001	-2.7036618E+002
3	0	3.912676037792698E+002	7.2901243E-001	-2.7039093E+002
3	0	3.917676037666388E+002	7.2761118E-001	-2.7038385E+002
3	0	3.922676037540077E+002	7.2639656E-001	-2.7035559E+002
3	0	3.927676037413767E+002	7.2465521E-001	-2.7038742E+002
3	0	3.932676037287456E+002	7.2200155E-001	-2.7038031E+002
3	0	3.937676037161145E+002	7.1832150E-001	-2.7037326E+002
3	0	3.942676037034835E+002	7.1361232E-001	-2.7037677E+002
3	0	3.947676036908524E+002	7.0796645E-001	-2.7040155E+002
3	0	3.952676036782213E+002	7.0210350E-001	-2.7038385E+002
3	0	3.957676036655903E+002	6.9712031E-001	-2.7038385E+002
3	0	3.962676036529592E+002	6.9303727E-001	-2.7037326E+002
3	0	3.967676036403282E+002	6.8916225E-001	-2.7039801E+002
3	0	3.972676036276971E+002	6.8514723E-001	-2.7035205E+002
3	0	3.977676036150660E+002	6.8085712E-001	-2.7038031E+002
3	0	3.982676036024350E+002	6.7622954E-001	-2.7038385E+002
3	0	3.987676035898039E+002	6.7114085E-001	-2.7036267E+002
3	0	3.992676035771728E+002	6.6611922E-001	-2.7038031E+002
3	0	3.997676035645418E+002	6.6227186E-001	-2.7036267E+002
3	0	4.002676035519107E+002	6.5942287E-001	-2.7033789E+002
3	0	4.007676035392797E+002	6.5688908E-001	-2.7038385E+002
3	0	4.012676035266486E+002	6.5445739E-001	-2.7040155E+002
3	0	4.017676035140175E+002	6.5232092E-001	-2.7038385E+002
3	0	4.022676035013865E+002	6.5043479E-001	-2.7037326E+002
3	0	4.027676034887554E+002	6.4888811E-001	-2.7037326E+002
3	0	4.032676034761244E+002	6.4811379E-001	-2.7038385E+002
3	0	4.037676034634933E+002	6.4939225E-001	-2.7037326E+002
3	0	4.042676034508622E+002	6.5261781E-001	-2.7035559E+002
3	0	4.047676034382312E+002	6.5688336E-001	-2.7038031E+002
3	0	4.052676034256001E+002	6.6156477E-001	-2.7035559E+002
3	0	4.057676034129690E+002	6.6624081E-001	-2.7039093E+002
3	0	4.062676034003380E+002	6.7055207E-001	-2.7038742E+002
3	0	4.067676033877069E+002	6.7405957E-001	-2.7038031E+002
3	0	4.072676033750759E+002	6.7702186E-001	-2.7039447E+002
3	0	4.077676033624448E+002	6.8044645E-001	-2.7038031E+002
3	0	4.082676033498137E+002	6.8419182E-001	-2.7037677E+002
3	0	4.087676033371827E+002	6.8740565E-001	-2.7039093E+002
3	0	4.092676033245516E+002	6.8964922E-001	-2.7038385E+002
3	0	4.097676033119205E+002	6.9082385E-001	-2.7035913E+002
3	0	4.102676032992895E+002	6.9073772E-001	-2.7039447E+002
3	0	4.107676032866584E+002	6.8928474E-001	-2.7037326E+002
3	0	4.112676032740274E+002	6.8702936E-001	-2.7038031E+002
3	0	4.117676032613963E+002	6.8528587E-001	-2.7036618E+002
3	0	4.122676032487652E+002	6.8398345E-001	-2.7037326E+002
3	0	4.127676032361342E+002	6.8232739E-001	-2.7035913E+002
3	0	4.132676032235031E+002	6.7999536E-001	-2.7039093E+002
3	0	4.137676032108720E+002	6.7691892E-001	-2.7037326E+002
3	0	4.142676031982410E+002	6.7301208E-001	-2.7039447E+002
3	0	4.147676031856099E+002	6.6833436E-001	-2.7035559E+002
3	0	4.152676031729789E+002	6.6321743E-001	-2.7039093E+002
3	0	4.157676031603478E+002	6.5902102E-001	-2.7038031E+002
3	0	4.162676031477167E+002	6.5565616E-001	-2.7039093E+002
3	0	4.167676031350857E+002	6.5225321E-001	-2.7035559E+002
3	0	4.172676031224546E+002	6.4857280E-001	-2.7040155E+002
3	0	4.177676031098235E+002	6.4457005E-001	-2.7036618E+002
3	0	4.182676030971925E+002	6.4016497E-001	-2.7036972E+002
3	0	4.187676030845614E+002	6.3535696E-001	-2.7036618E+002
3	0	4.192676030719304E+002	6.3051564E-001	-2.7035913E+002
3	0	4.197676030592993E+002	6.2679708E-001	-2.7035913E+002
3	0	4.202676030466682E+002	6.2414730E-001	-2.7033438E+002
3	0	4.207676030340372E+002	6.2173641E-001	-2.7039093E+002
3	0	4.212676030214061E+002	6.1928529E-001	-2.7039801E+002
3	0	4.217676030087750E+002	6.1690778E-001	-2.7039093E+002
3	0	4.222676029961440E+002	6.1460799E-001	-2.7038031E+002
3	0	4.227676029835129E+002	6.1246926E-001	-2.7035913E+002
3	0	4.232676029708819E+002	6.1108577E-001	-2.7038742E+002
3	0	4.237676029582508E+002	6.1175567E-001	-2.7038031E+002
3	0	4.242676029456197E+002	6.1426914E-001	-2.7039447E+002
3	0	4.247676029329887E+002	6.1782849E-001	-2.7039801E+002
3	0	4.252676029203576E+002	6.2185383E-001	-2.7038031E+002
3	0	4.257676029077265E+002	6.2608373E-001	-2.7040155E+002
3	0	4.262676028950955E+002	6.3006717E-001	-2.7038385E+002
3	0	4.267676028824644E+002	6.3330066E-001	-2.7035559E+002
3	0	4.272676028698334E+002	6.3580912E-001	-2.7036267E+002
3	0	4.277676028572023E+002	6.3881743E-001	-2.7041214E+002
3	0	4.282676028445712E+002	6.4221019E-001	-2.7035205E+002
3	0	4.287676028319402E+002	6.4512986E-001	-2.7037326E+002
3	0	4.292676028193091E+002	6.4720184E-001	-2.7038742E+002
3	0	4.297676028066780E+002	6.4839703E-001	-2.7039447E+002
3	0	4.302676027940470E+002	6.4855540E-001	-2.7039093E+002
3	0	4.307676027814159E+002	6.4746010E-001	-2.7036972E+002
3	0	4.312676027687849E+002	6.4552265E-001	-2.7038385E+002
3	0	4.317676027561538E+002	6.4407289E-001	-2.7038385E+002
3	0	4.322676027435227E+002	6.4319026E-001	-2.7038742E+002
3	0	4.327676027308917E+002	6.4204812E-001	-2.7036618E+002
3	0	4.332676027182606E+002	6.4029467E-001	-2.7038031E+002
3	0	4.337676027056295E+002	6.3788170E-001	-2.7037326E+002
3	0	4.342676026929985E+002	6.3465750E-001	-2.7036618E+002
3	0	4.347676026803674E+002	6.3039589E-001	-2.7038031E+002
3	0	4.352676026677364E+002	6.2574542E-001	-2.7040506E+002
3	0	4.357676026551053E+002	6.2210584E-001	-2.7037326E+002
3	0	4.362676026424742E+002	6.1938184E-001	-2.7038031E+002
3	0	4.367676026298432E+002	6.1670715E-001	-2.7035205E+002
3	0	4.372676026172121E+002	6.1379904E-001	-2.7035913E+002
3	0	4.377676026045810E+002	6.1056709E-001	-2.7038385E+002
3	0	4.382676025919500E+002	6.0691160E-001	-2.7040155E+002
3	0	4.387676025793189E+002	6.0252148E-001	-2.7036972E+002
3	0	4.392676025666879E+002	5.9776503E-001	-2.7038031E+002
3	0	4.397676025540568E+002	5.9400243E-001	-2.7038742E+002
3	0	4.402676025414257E+002	5.9112734E-001	-2.7036618E+002
3	0	4.407676025287947E+002	5.8831114E-001	-2.7039093E+002
3	0	4.412676025161636E+002	5.8542156E-001	-2.7038742E+002
3	0	4.417676025035325E+002	5.8252835E-001	-2.7038385E+002
3	0	4.422676024909015E+002	5.7982540E-001	-2.7037326E+002
3	0	4.427676024782704E+002	5.7724518E-001	-2.7038031E+002
3	0	4.432676024656394E+002	5.7518375E-001	-2.7038742E+002
3	0	4.437676024530083E+002	5.7492054E-001	-2.7037677E+002
3	0	4.442676024403772E+002	5.7646739E-001	-2.7036618E+002
3	0	4.447676024277462E+002	5.7892305E-001	-2.7038742E+002
3	0	4.452676024151151E+002	5.8178461E-001	-2.7036618E+002
3	0	4.457676024024840E+002	5.8478373E-001	-2.7038385E+002
3	0	4.462676023898530E+002	5.8763087E-001	-2.7038031E+002
3	0	4.467676023772219E+002	5.8984149E-001	-2.7036618E+002
3	0	4.472676023645909E+002	5.9161121E-001	-2.7038031E+002
3	0	4.477676023519598E+002	5.9419507E-001	-2.7037677E+002
3	0	4.482676023393287E+002	5.9732920E-001	-2.7036267E+002
3	0	4.487676023266977E+002	6.0017872E-001	-2.7039093E+002
3	0	4.492676023140666E+002	6.0242867E-001	-2.7039801E+002
3	0	4.497676023014355E+002	6.0397542E-001	-2.7036267E+002
3	0	4.502676022888045E+002	6.0467315E-001	-2.7040155E+002
3	0	4.507676022761734E+002	6.0416192E-001	-2.7037677E+002
3	0	4.512676022635424E+002	6.0271537E-001	-2.7036972E+002
3	0	4.517676022509113E+002	6.0179180E-001	-2.7039093E+002
3	0	4.522676022382802E+002	6.0127383E-001	-2.7039447E+002
3	0	4.527676022256492E+002	6.0035741E-001	-2.7039093E+002
3	0	4.532676022130181E+002	5.9882998E-001	-2.7037326E+002
3	0	4.537676022003870E+002	5.9667212E-001	-2.7038385E+002
3	0	4.542676021877560E+002	5.9375077E-001	-2.7037326E+002
3	0	4.547676021751249E+002	5.9002978E-001	-2.7037677E+002
3	0	4.552676021624939E+002	5.8582789E-001	-2.7036972E+002
3	0	4.557676021498628E+002	5.8260393E-001	-2.7040506E+002
3	0	4.562676021372317E+002	5.8026594E-001	-2.7036267E+002
3	0	4.567676021246007E+002	5.7789290E-001	-2.7037677E+002
3	0	4.572676021119696E+002	5.7517588E-001	-2.7037326E+002
3	0	4.577676020993385E+002	5.7213694E-001	-2.7038385E+002
3	0	4.582676020867075E+002	5.6855386E-001	-2.7035559E+002
3	0	4.587676020740764E+002	5.6436014E-001	-2.7037677E+002
3	0	4.592676020614454E+002	5.5983245E-001	-2.7040155E+002
3	0	4.597676020488143E+002	5.5634397E-001	-2.7036972E+002
3	0	4.602676020361832E+002	5.5359715E-001	-2.7036267E+002
3	0	4.607676020235522E+002	5.5089235E-001	-2.7038385E+002
3	0	4.612676020109211E+002	5.4802334E-001	-2.7038742E+002
3	0	4.617676019982900E+002	5.4521477E-001	-2.7040155E+002
3	0	4.622676019856590E+002	5.4258204E-001	-2.7039801E+002
3	0	4.627676019730279E+002	5.3971893E-001	-2.7036972E+002
3	0	4.632676019603969E+002	5.3723294E-001	-2.7038031E+002
3	0	4.637676019477658E+002	5.3654993E-001	-2.7035913E+002
3	0	4.642676019351347E+002	5.3729200E-001	-2.7038742E+002
3	0	4.647676019225037E+002	5.3866315E-001	-2.7036618E+002
3	0	4.652676019098726E+002	5.4041576E-001	-2.7037326E+002
3	0	4.657676018972415E+002	5.4223877E-001	-2.7037677E+002
3	0	4.662676018846105E+002	5.4392087E-001	-2.7039801E+002
3	0	4.667676018719794E+002	5.4509199E-001	-2.7038742E+002
3	0	4.672676018593484E+002	5.4586011E-001	-2.7036972E+002
3	0	4.677676018467173E+002	5.4751843E-001	-2.7037326E+002
3	0	4.682676018340862E+002	5.4977137E-001	-2.7038385E+002
3	0	4.687676018214552E+002	5.5180341E-001	-2.7036972E+002
3	0	4.692676018088241E+002	5.5321431E-001	-2.7037677E+002
3	0	4.697676017961930E+002	5.5404317E-001	-2.7035913E+002
3	0	4.702676017835620E+002	5.5418009E-001	-2.7036972E+002
3	0	4.707676017709309E+002	5.5327153E-001	-2.7037677E+002
3	0	4.712676017582999E+002	5.5177814E-001	-2.7036267E+002
3	0	4.717676017456688E+002	5.5112278E-001	-2.7038385E+002
3	0	4.722676017330377E+002	5.5123937E-001	-2.7037677E+002
3	0	4.727676017204067E+002	5.5096364E-001	-2.7038385E+002
3	0	4.727910017198155E+002	5.5059141E-001	-2.7037326E+002