EC-Lab ASCII FILE
Nb header lines : 48                          

Open Circuit Voltage

Run on channel : 1 (SN 81504)
User : 
CE vs. WE compliance from -10 V to 10 V
Electrode connection : standard
Potential control : Ewe
Ewe ctrl range : min = -2.50 V, max = 2.50 V
Safety Limits :
	Do not start on E overload
Acquisition started on : 05/10/2026 05:54:37.151
Loaded Setting File :  C:\PEM-WE_measurements\2026\372_IV_IV IrOx, 5 min Pt, 30 min C, etched cathode\new station\Loopeis new\1,46 V different time gaps closed cell\Loopeis 1,46V_120s_2_PEIS from 65kHz to 10kHz.mps
Saved on :
	File : L_22_Loopeis 1,46V_120s_2_PEIS from 65kHz to 10kHz_10_OCV_C01.mpr
	Directory : C:\PEM-WE_measurements\2026\372_IV_IV IrOx, 5 min Pt, 30 min C, etched cathode\new station\Loopeis new\1,46 V different time gaps closed cell\
	Host : 192.168.0.2
Device : SP-150e (SN .005491)
Address : 192.168.0.91
EC-LAB for windows v11.71 (software)
Internet server v28.00 (firmware)
Command interpretor v14.01 (firmware)
Electrode material : 
Initial state : 
Electrolyte : 
Comments : 
Current amplifier : SP-150eB-20A
Electrode surface area : 0.001 cm²
Characteristic mass : 0.001 g
Equivalent Weight : 0.000 g/eq.
Density : 0.000 g/cm3
Volume (V) : 0.001 cm³
Record Analogic IN 1
Text export
   Mode : Standard
   Time format : Elapsed
Cycle Definition : Charge/Discharge alternance
tR (h:m:s)          0:02:0.0000         
dER/dt (mV/h)       1.0                 
record              <Ewe>               
dER (mV)            10.00               
dtR (s)             0.5000              
E range min (V)     -2.500              
E range max (V)     2.500               

mode	error	time/s	<Ewe/V>	Analog IN 1/V	
3	0	7.066313887794240E+002	1.2917546E+000	-5.3391734E-005
3	0	7.071313887667930E+002	1.2983106E+000	-1.4881945E-004
3	0	7.076313887541619E+002	1.2947001E+000	-1.4881945E-004
3	0	7.081313887415308E+002	1.2853881E+000	9.9292607E-005
3	0	7.086313887288998E+002	1.2687174E+000	-1.5220648E-005
3	0	7.091313887162687E+002	1.2415442E+000	-1.6790499E-004
3	0	7.096313887036376E+002	1.1974736E+000	-7.2477276E-005
3	0	7.101313886910066E+002	1.1186001E+000	-5.3391734E-005
3	0	7.106313886783755E+002	8.9776391E-001	-1.5220648E-005
3	0	7.111313886657445E+002	5.6897086E-001	-5.3391734E-005
3	0	7.116313886531134E+002	4.5137206E-001	-3.4306191E-005
3	0	7.121313886404823E+002	4.1105139E-001	-9.1562819E-005
3	0	7.126313886278513E+002	3.9984149E-001	-1.2973390E-004
3	0	7.131313886152202E+002	3.9658347E-001	-1.1064836E-004
3	0	7.136313886025891E+002	3.9464912E-001	-3.4306191E-005
3	0	7.141313885899581E+002	3.9292219E-001	-3.4306191E-005
3	0	7.146313885773270E+002	3.9163318E-001	3.8648941E-006
3	0	7.151313885646960E+002	3.9068264E-001	-1.5220648E-005
3	0	7.156313885520649E+002	3.8976058E-001	-7.2477276E-005
3	0	7.161313885394338E+002	3.8894823E-001	-1.1064836E-004
3	0	7.166313885268028E+002	3.8891530E-001	-3.4306191E-005
3	0	7.171313885141717E+002	3.8933608E-001	-1.4881945E-004
3	0	7.176313885015406E+002	3.8948482E-001	3.8648941E-006
3	0	7.181313884889096E+002	3.8945284E-001	-5.3391734E-005
3	0	7.186313884762785E+002	3.8948256E-001	-9.1562819E-005
3	0	7.191313884636475E+002	3.8952866E-001	-1.5220648E-005
3	0	7.196313884510164E+002	3.8934535E-001	9.9292607E-005
3	0	7.201313884383853E+002	3.8906637E-001	-7.2477276E-005
3	0	7.206313884257543E+002	3.8937357E-001	-3.4306191E-005
3	0	7.211313884131232E+002	3.9005929E-001	-9.1562819E-005
3	0	7.216313884004921E+002	3.9044979E-001	1.1837815E-004
3	0	7.221313883878611E+002	3.9056760E-001	-5.3391734E-005
3	0	7.226313883752300E+002	3.9071342E-001	-3.4306191E-005
3	0	7.231313883625990E+002	3.9073181E-001	4.2035979E-005
3	0	7.236313883499679E+002	3.9054006E-001	-1.1064836E-004
3	0	7.241313883373368E+002	3.9022321E-001	-9.1562819E-005
3	0	7.246313883247058E+002	3.9052239E-001	-1.5220648E-005
3	0	7.251313883120747E+002	3.9109322E-001	-1.5220648E-005
3	0	7.256313882994436E+002	3.9136180E-001	1.3746369E-004
3	0	7.261313882868126E+002	3.9141619E-001	-1.1064836E-004
3	0	7.266313882741815E+002	3.9147362E-001	-1.1064836E-004
3	0	7.271313882615505E+002	3.9146727E-001	9.9292607E-005
3	0	7.276313882489194E+002	3.9117834E-001	-1.1064836E-004
3	0	7.281313882362883E+002	3.9075446E-001	3.8648941E-006
3	0	7.286313882236573E+002	3.9091814E-001	-7.2477276E-005
3	0	7.291313882110262E+002	3.9140096E-001	-3.4306191E-005
3	0	7.296313881983951E+002	3.9162284E-001	-3.4306191E-005
3	0	7.301313881857641E+002	3.9157087E-001	-3.4306191E-005
3	0	7.306313881731330E+002	3.9151499E-001	-3.4306191E-005
3	0	7.311313881605020E+002	3.9141801E-001	-3.4306191E-005
3	0	7.316313881478709E+002	3.9105567E-001	6.1121522E-005
3	0	7.321313881352398E+002	3.9065707E-001	3.8648941E-006
3	0	7.326313881226088E+002	3.9078793E-001	-3.4306191E-005
3	0	7.331313881099777E+002	3.9137426E-001	6.1121522E-005
3	0	7.336313880973466E+002	3.9185637E-001	-5.3391734E-005
3	0	7.341313880847156E+002	3.9220601E-001	-3.4306191E-005
3	0	7.346313880720845E+002	3.9266768E-001	-1.1064836E-004
3	0	7.351313880594535E+002	3.9313495E-001	-1.1064836E-004
3	0	7.356313880468224E+002	3.9344901E-001	-5.3391734E-005
3	0	7.361313880341913E+002	3.9366135E-001	-1.2973390E-004
3	0	7.366313880215603E+002	3.9440194E-001	-9.1562819E-005
3	0	7.371313880089292E+002	3.9539456E-001	-1.1064836E-004
3	0	7.376313879962981E+002	3.9610252E-001	9.9292607E-005
3	0	7.381313879836671E+002	3.9650443E-001	-1.2973390E-004
3	0	7.386313879710360E+002	3.9684626E-001	-1.2973390E-004
3	0	7.391313879584050E+002	3.9707962E-001	-5.3391734E-005
3	0	7.396313879457739E+002	3.9700836E-001	-5.3391734E-005
3	0	7.401313879331428E+002	3.9678162E-001	-1.5220648E-005
3	0	7.406313879205118E+002	3.9706829E-001	2.2950437E-005
3	0	7.411313879078807E+002	3.9761975E-001	-3.4306191E-005
3	0	7.416313878952496E+002	3.9791742E-001	2.2950437E-005
3	0	7.421313878826186E+002	3.9794576E-001	4.2035979E-005
3	0	7.426313878699875E+002	3.9794040E-001	-5.3391734E-005
3	0	7.431313878573565E+002	3.9782935E-001	3.8648941E-006
3	0	7.436313878447254E+002	3.9746422E-001	-1.8699054E-004
3	0	7.441313878320943E+002	3.9696759E-001	8.0207064E-005
3	0	7.446313878194633E+002	3.9692289E-001	3.8648941E-006
3	0	7.451313878068322E+002	3.9720869E-001	-3.4306191E-005
3	0	7.456313877942011E+002	3.9723685E-001	-5.3391734E-005
3	0	7.461313877815701E+002	3.9698911E-001	-9.1562819E-005
3	0	7.466313877689390E+002	3.9669409E-001	-7.2477276E-005
3	0	7.471313877563080E+002	3.9636114E-001	-1.1064836E-004
3	0	7.476313877436769E+002	3.9569288E-001	8.0207064E-005
3	0	7.481313877310458E+002	3.9499888E-001	-5.3391734E-005
3	0	7.486313877184148E+002	3.9482298E-001	-5.3391734E-005
3	0	7.491313877057837E+002	3.9490679E-001	3.8648941E-006
3	0	7.496313876931526E+002	3.9476788E-001	-5.3391734E-005
3	0	7.501313876805216E+002	3.9441261E-001	8.0207064E-005
3	0	7.506313876678905E+002	3.9407760E-001	6.1121522E-005
3	0	7.511313876552595E+002	3.9365017E-001	-1.5220648E-005
3	0	7.516313876426284E+002	3.9297071E-001	-5.3391734E-005
3	0	7.521313876299973E+002	3.9219445E-001	-1.4881945E-004
3	0	7.526313876173663E+002	3.9198905E-001	-7.2477276E-005
3	0	7.531313876047352E+002	3.9212903E-001	3.8648941E-006
3	0	7.536313875921041E+002	3.9218694E-001	3.8648941E-006
3	0	7.541313875794731E+002	3.9212322E-001	-5.3391734E-005
3	0	7.546313875668420E+002	3.9218292E-001	-1.4881945E-004
3	0	7.551313875542110E+002	3.9232144E-001	-7.2477276E-005
3	0	7.556313875415799E+002	3.9228868E-001	4.2035979E-005
3	0	7.561313875289488E+002	3.9217913E-001	-1.1064836E-004
3	0	7.566313875163178E+002	3.9251074E-001	-5.3391734E-005
3	0	7.571313875036867E+002	3.9312884E-001	-1.5220648E-005
3	0	7.576313874910556E+002	3.9345655E-001	-7.2477276E-005
3	0	7.581313874784246E+002	3.9353260E-001	-1.2973390E-004
3	0	7.586313874657935E+002	3.9351016E-001	-3.4306191E-005
3	0	7.591313874531625E+002	3.9343309E-001	4.2035979E-005
3	0	7.596313874405314E+002	3.9307982E-001	-1.5220648E-005
3	0	7.601313874279003E+002	3.9259177E-001	-1.5220648E-005
3	0	7.606313874152693E+002	3.9255816E-001	-1.5220648E-005
3	0	7.611313874026382E+002	3.9278552E-001	-7.2477276E-005
3	0	7.616313873900071E+002	3.9277413E-001	-1.5220648E-005
3	0	7.621313873773761E+002	3.9257514E-001	2.2950437E-005
3	0	7.626313873647450E+002	3.9235270E-001	-5.3391734E-005
3	0	7.631313873521140E+002	3.9207491E-001	4.2035979E-005
3	0	7.636313873394829E+002	3.9156985E-001	-9.1562819E-005
3	0	7.641313873268518E+002	3.9086854E-001	-1.1064836E-004
3	0	7.646313873142208E+002	3.9062884E-001	3.8648941E-006
3	0	7.651313873015897E+002	3.9064690E-001	-1.5220648E-005
3	0	7.656313872889586E+002	3.9042792E-001	8.0207064E-005
3	0	7.661313872763276E+002	3.9002118E-001	-1.5220648E-005
3	0	7.666313872636965E+002	3.8957998E-001	3.8648941E-006
3	0	7.671313872510655E+002	3.8908413E-001	-9.1562819E-005
3	0	7.676313872384344E+002	3.8843575E-001	-1.2973390E-004
3	0	7.681313872258033E+002	3.8773304E-001	-1.2973390E-004
3	0	7.686313872131723E+002	3.8739148E-001	3.8648941E-006
3	0	7.691313872005412E+002	3.8732514E-001	-1.2973390E-004
3	0	7.696313871879102E+002	3.8710025E-001	-1.5220648E-005
3	0	7.701313871752791E+002	3.8665572E-001	-7.2477276E-005
3	0	7.706313871626480E+002	3.8618854E-001	-1.5220648E-005
3	0	7.711313871500170E+002	3.8564652E-001	-5.3391734E-005
3	0	7.716313871373859E+002	3.8498244E-001	-3.4306191E-005
3	0	7.721313871247548E+002	3.8423938E-001	-1.6790499E-004
3	0	7.726313871121238E+002	3.8394505E-001	-7.2477276E-005
3	0	7.731313870994927E+002	3.8395318E-001	-1.5220648E-005
3	0	7.736313870868617E+002	3.8391045E-001	-1.1064836E-004
3	0	7.741313870742306E+002	3.8379449E-001	-7.2477276E-005
3	0	7.746313870615995E+002	3.8377067E-001	-9.1562819E-005
3	0	7.751313870489685E+002	3.8380101E-001	-9.1562819E-005
3	0	7.756313870363374E+002	3.8371980E-001	-7.2477276E-005
3	0	7.761313870237063E+002	3.8359118E-001	-3.4306191E-005
3	0	7.766313870110753E+002	3.8382396E-001	-3.4306191E-005
3	0	7.771313869984442E+002	3.8427347E-001	-1.4881945E-004
3	0	7.776313869858132E+002	3.8454965E-001	-1.4881945E-004
3	0	7.781313869731821E+002	3.8459074E-001	-7.2477276E-005
3	0	7.786313869605510E+002	3.8462749E-001	3.8648941E-006
3	0	7.791313869479200E+002	3.8453206E-001	6.1121522E-005
3	0	7.796313869352889E+002	3.8425875E-001	-1.1064836E-004
3	0	7.801313869226578E+002	3.8382494E-001	-1.1064836E-004
3	0	7.806313869100268E+002	3.8370001E-001	3.8648941E-006
3	0	7.811313868973957E+002	3.8384166E-001	-7.2477276E-005
3	0	7.816313868847647E+002	3.8382113E-001	4.2035979E-005
3	0	7.821313868721336E+002	3.8356781E-001	2.2950437E-005
3	0	7.826313868595025E+002	3.8328201E-001	-1.4881945E-004
3	0	7.831313868468715E+002	3.8294747E-001	4.2035979E-005
3	0	7.836313868342404E+002	3.8243428E-001	-5.3391734E-005
3	0	7.841313868216093E+002	3.8180023E-001	-9.1562819E-005
3	0	7.846313868089783E+002	3.8150603E-001	-9.1562819E-005
3	0	7.851313867963472E+002	3.8143468E-001	-7.2477276E-005
3	0	7.856313867837162E+002	3.8122863E-001	6.1121522E-005
3	0	7.861313867710851E+002	3.8085711E-001	9.9292607E-005
3	0	7.866313867584540E+002	3.8048849E-001	-3.4306191E-005
3	0	7.871313867458230E+002	3.8006914E-001	-3.4306191E-005
3	0	7.876313867331919E+002	3.7950337E-001	-1.4881945E-004
3	0	7.881313867205608E+002	3.7883836E-001	-5.3391734E-005
3	0	7.886313867079298E+002	3.7851769E-001	4.2035979E-005
3	0	7.891313866952987E+002	3.7844351E-001	-3.4306191E-005
3	0	7.896313866826677E+002	3.7824574E-001	1.3746369E-004
3	0	7.901313866700366E+002	3.7789232E-001	-1.5220648E-005
3	0	7.906313866574055E+002	3.7754440E-001	-9.1562819E-005
3	0	7.911313866447745E+002	3.7716377E-001	-1.5220648E-005
3	0	7.916313866321434E+002	3.7664384E-001	3.8648941E-006
3	0	7.921313866195123E+002	3.7600470E-001	3.8648941E-006
3	0	7.926313866068813E+002	3.7567028E-001	-7.2477276E-005
3	0	7.931313865942502E+002	3.7566158E-001	4.2035979E-005
3	0	7.936313865816192E+002	3.7563884E-001	-1.5220648E-005
3	0	7.941313865689881E+002	3.7554562E-001	3.8648941E-006
3	0	7.946313865563570E+002	3.7551636E-001	-3.4306191E-005
3	0	7.951313865437260E+002	3.7550607E-001	3.8648941E-006
3	0	7.956313865310949E+002	3.7543452E-001	-1.4881945E-004
3	0	7.961313865184638E+002	3.7533975E-001	-7.2477276E-005
3	0	7.966313865058328E+002	3.7554720E-001	-9.1562819E-005
3	0	7.971313864932017E+002	3.7595150E-001	-1.6790499E-004
3	0	7.976313864805707E+002	3.7618604E-001	-9.1562819E-005
3	0	7.981313864679396E+002	3.7624791E-001	-1.6790499E-004
3	0	7.986313864553085E+002	3.7624460E-001	-5.3391734E-005
3	0	7.991313864426775E+002	3.7617713E-001	3.8648941E-006
3	0	7.996313864300464E+002	3.7591466E-001	-7.2477276E-005
3	0	8.001313864174153E+002	3.7550852E-001	-1.5220648E-005
3	0	8.006313864047843E+002	3.7534925E-001	-9.1562819E-005
3	0	8.011313863921532E+002	3.7541783E-001	-5.3391734E-005
3	0	8.016313863795222E+002	3.7535816E-001	-7.2477276E-005
3	0	8.021313863668911E+002	3.7512940E-001	6.1121522E-005
3	0	8.026313863542600E+002	3.7489986E-001	-9.1562819E-005
3	0	8.031313863416290E+002	3.7461230E-001	-7.2477276E-005
3	0	8.036313863289979E+002	3.7417555E-001	-1.5220648E-005
3	0	8.041313863163668E+002	3.7364042E-001	-7.2477276E-005
3	0	8.046313863037358E+002	3.7336534E-001	-1.5220648E-005
3	0	8.051313862911047E+002	3.7333393E-001	4.2035979E-005
3	0	8.056313862784737E+002	3.7320015E-001	3.8648941E-006
3	0	8.061313862658426E+002	3.7292880E-001	-1.5220648E-005
3	0	8.066313862532115E+002	3.7262338E-001	4.2035979E-005
3	0	8.071313862405805E+002	3.7227699E-001	-5.3391734E-005
3	0	8.076313862279494E+002	3.7179771E-001	2.2950437E-005
3	0	8.081313862153183E+002	3.7121388E-001	2.2950437E-005
3	0	8.086313862026873E+002	3.7091827E-001	-3.4306191E-005
3	0	8.091313861900562E+002	3.7085393E-001	-5.3391734E-005
3	0	8.096313861774252E+002	3.7068984E-001	8.0207064E-005
3	0	8.101313861647941E+002	3.7038741E-001	-1.1064836E-004
3	0	8.106313861521630E+002	3.7003416E-001	-9.1562819E-005
3	0	8.111313861395320E+002	3.6967626E-001	-5.3391734E-005
3	0	8.116313861269009E+002	3.6917078E-001	-1.1064836E-004
3	0	8.121313861142698E+002	3.6859676E-001	-9.1562819E-005
3	0	8.126313861016388E+002	3.6832213E-001	-1.5220648E-005
3	0	8.131313860890077E+002	3.6830029E-001	-1.1064836E-004
3	0	8.136313860763767E+002	3.6823264E-001	2.2950437E-005
3	0	8.141313860637456E+002	3.6809355E-001	-9.1562819E-005
3	0	8.146313860511145E+002	3.6799431E-001	-5.3391734E-005
3	0	8.151313860384835E+002	3.6795738E-001	-1.5220648E-005
3	0	8.156313860258524E+002	3.6784682E-001	-9.1562819E-005
3	0	8.161313860132213E+002	3.6771366E-001	3.8648941E-006
3	0	8.166313860005903E+002	3.6785051E-001	2.2950437E-005
3	0	8.171313859879592E+002	3.6816400E-001	-3.4306191E-005
3	0	8.176313859753282E+002	3.6834812E-001	-5.3391734E-005
3	0	8.181313859626971E+002	3.6835721E-001	-9.1562819E-005
3	0	8.186313859500660E+002	3.6829636E-001	2.2950437E-005
3	0	8.191313859374350E+002	3.6818889E-001	-1.5220648E-005
3	0	8.196313859248039E+002	3.6791128E-001	2.2950437E-005
3	0	8.201313859121728E+002	3.6754289E-001	4.2035979E-005
3	0	8.206313858995418E+002	3.6744007E-001	-3.4306191E-005
3	0	8.211313858869107E+002	3.6751664E-001	-7.2477276E-005
3	0	8.216313858742797E+002	3.6748680E-001	-3.4306191E-005
3	0	8.221313858616486E+002	3.6730042E-001	3.8648941E-006
3	0	8.226313858490175E+002	3.6707538E-001	-7.2477276E-005
3	0	8.231313858363865E+002	3.6683908E-001	-7.2477276E-005
3	0	8.236313858237554E+002	3.6643404E-001	-1.5220648E-005
3	0	8.241313858111243E+002	3.6591461E-001	-1.5220648E-005
3	0	8.246313857984933E+002	3.6564854E-001	-5.3391734E-005
3	0	8.251313857858622E+002	3.6558819E-001	-9.1562819E-005
3	0	8.256313857732312E+002	3.6541575E-001	3.8648941E-006
3	0	8.261313857606001E+002	3.6510971E-001	-7.2477276E-005
3	0	8.261317857605900E+002	3.6494505E-001	-1.5220648E-005