EC-Lab ASCII FILE
Nb header lines : 55                          

Open Circuit Voltage

Run on channel : 1 (SN 81504)
User : 
CE vs. WE compliance from -10 V to 10 V
Electrode connection : standard
Potential control : Ewe
Ewe ctrl range : min = -2.50 V, max = 2.50 V
Safety Limits :
	Do not start on E overload
Acquisition started on : 05/10/2026 00:12:25.049
Loaded Setting File :  C:\PEM-WE_measurements\2026\372_IV_IV IrOx, 5 min Pt, 30 min C, etched cathode\new station\Loopeis new\1,46 V different time gaps closed cell\Loopeis 1,46V_30s_5_PEIS from 65Hz to 10Hz.mps
Saved on :
	File : L_05_Loopeis 1,46V_30s_5_PEIS from 65Hz to 10Hz_14_OCV_C01.mpr
	Directory : C:\PEM-WE_measurements\2026\372_IV_IV IrOx, 5 min Pt, 30 min C, etched cathode\new station\Loopeis new\1,46 V different time gaps closed cell\
	Host : 192.168.0.2
Device : SP-150e (SN .005491)
Address : 192.168.0.91
EC-LAB for windows v11.71 (software)
Internet server v28.00 (firmware)
Command interpretor v14.01 (firmware)
Electrode material : 
Initial state : 
Electrolyte : 
Comments : 
Current amplifier : SP-150eB-20A
Electrode surface area : 0.001 cm²
Characteristic mass : 0.001 g
Equivalent Weight : 0.000 g/eq.
Density : 0.000 g/cm3
Volume (V) : 0.001 cm³
Record Analogic IN 1
Text export
   Mode : Standard
   Time format : Elapsed
Cycle Definition : Charge/Discharge alternance
External device configuration :
   device type : Temperature Probe
   device name : Other
   Analog IN 1 : 
      unit : T/Â°C
      max : 100.000 at 2.000 V
      min : 0.000 at 1.460 V
tR (h:m:s)          0:00:30.0000        
dER/dt (mV/h)       1.0                 
record              <Ewe>               
dER (mV)            10.00               
dtR (s)             0.5000              
E range min (V)     -2.500              
E range max (V)     2.500               

mode	error	time/s	<Ewe/V>	Analog IN 1/V	
3	0	4.982011974330817E+002	1.4200952E+000	-2.7036267E+002
3	0	4.987011974204506E+002	1.4121804E+000	-2.7039093E+002
3	0	4.992011974078196E+002	1.4067990E+000	-2.7038742E+002
3	0	4.997011973951885E+002	1.4028655E+000	-2.7037677E+002
3	0	5.002011973825574E+002	1.3997530E+000	-2.7039093E+002
3	0	5.007011973699264E+002	1.3971900E+000	-2.7037677E+002
3	0	5.012011973572953E+002	1.3949733E+000	-2.7037677E+002
3	0	5.017011973446643E+002	1.3929737E+000	-2.7037326E+002
3	0	5.022011973320332E+002	1.3911291E+000	-2.7038742E+002
3	0	5.027011973194021E+002	1.3895316E+000	-2.7036267E+002
3	0	5.032011973067711E+002	1.3880959E+000	-2.7036267E+002
3	0	5.037011972941400E+002	1.3867691E+000	-2.7037677E+002
3	0	5.042011972815089E+002	1.3855510E+000	-2.7037677E+002
3	0	5.047011972688779E+002	1.3844384E+000	-2.7035559E+002
3	0	5.052011972562468E+002	1.3833588E+000	-2.7035205E+002
3	0	5.057011972436158E+002	1.3822823E+000	-2.7040155E+002
3	0	5.062011972309847E+002	1.3812172E+000	-2.7035913E+002
3	0	5.067011972183536E+002	1.3802795E+000	-2.7037677E+002
3	0	5.072011972057226E+002	1.3793950E+000	-2.7037677E+002
3	0	5.077011971930915E+002	1.3785558E+000	-2.7036618E+002
3	0	5.082011971804604E+002	1.3777583E+000	-2.7038385E+002
3	0	5.087011971678294E+002	1.3769913E+000	-2.7039447E+002
3	0	5.092011971551983E+002	1.3762418E+000	-2.7036972E+002
3	0	5.097011971425673E+002	1.3754464E+000	-2.7037677E+002
3	0	5.102011971299362E+002	1.3746359E+000	-2.7041214E+002
3	0	5.107011971173051E+002	1.3739129E+000	-2.7036972E+002
3	0	5.112011971046741E+002	1.3732151E+000	-2.7035913E+002
3	0	5.117011970920430E+002	1.3725318E+000	-2.7037326E+002
3	0	5.122011970794119E+002	1.3718610E+000	-2.7036972E+002
3	0	5.127011970667809E+002	1.3712072E+000	-2.7039447E+002
3	0	5.132011970541498E+002	1.3704902E+000	-2.7035913E+002
3	0	5.137011970415188E+002	1.3697858E+000	-2.7038031E+002
3	0	5.142011970288877E+002	1.3690890E+000	-2.7035205E+002
3	0	5.147011970162566E+002	1.3684715E+000	-2.7037677E+002
3	0	5.152011970036256E+002	1.3678868E+000	-2.7039093E+002
3	0	5.157011969909945E+002	1.3673041E+000	-2.7038031E+002
3	0	5.162011969783634E+002	1.3667319E+000	-2.7038385E+002
3	0	5.167011969657324E+002	1.3661733E+000	-2.7039447E+002
3	0	5.172011969531013E+002	1.3655933E+000	-2.7038385E+002
3	0	5.177011969404703E+002	1.3649560E+000	-2.7036618E+002
3	0	5.182011969278392E+002	1.3642794E+000	-2.7037326E+002
3	0	5.187011969152081E+002	1.3636798E+000	-2.7038385E+002
3	0	5.192011969025771E+002	1.3631277E+000	-2.7034851E+002
3	0	5.197011968899460E+002	1.3625705E+000	-2.7039447E+002
3	0	5.202011968773149E+002	1.3620191E+000	-2.7038031E+002
3	0	5.207011968646839E+002	1.3614688E+000	-2.7039801E+002
3	0	5.212011968520528E+002	1.3609030E+000	-2.7040860E+002
3	0	5.217011968394218E+002	1.3602790E+000	-2.7038031E+002
3	0	5.222011968267907E+002	1.3596120E+000	-2.7037677E+002
3	0	5.227011968141596E+002	1.3590279E+000	-2.7037326E+002
3	0	5.232011968015286E+002	1.3584819E+000	-2.7039447E+002
3	0	5.237011967888975E+002	1.3579308E+000	-2.7038385E+002
3	0	5.242011967762664E+002	1.3573799E+000	-2.7035913E+002
3	0	5.247011967636354E+002	1.3568327E+000	-2.7039447E+002
3	0	5.252011967510043E+002	1.3562546E+000	-2.7036972E+002
3	0	5.257011967383733E+002	1.3556252E+000	-2.7036972E+002
3	0	5.262011967257422E+002	1.3549544E+000	-2.7037677E+002
3	0	5.267011967131111E+002	1.3543617E+000	-2.7039447E+002
3	0	5.272011967004801E+002	1.3538008E+000	-2.7036267E+002
3	0	5.277011966878490E+002	1.3532480E+000	-2.7037677E+002
3	0	5.277015966878389E+002	1.3528587E+000	-2.7036972E+002