EC-Lab ASCII FILE
Nb header lines : 48                          

Open Circuit Voltage

Run on channel : 1 (SN 81504)
User : 
CE vs. WE compliance from -10 V to 10 V
Electrode connection : standard
Potential control : Ewe
Ewe ctrl range : min = -2.50 V, max = 2.50 V
Safety Limits :
	Do not start on E overload
Acquisition started on : 05/10/2026 02:09:52.585
Loaded Setting File :  C:\PEM-WE_measurements\2026\372_IV_IV IrOx, 5 min Pt, 30 min C, etched cathode\new station\Loopeis new\1,46 V different time gaps closed cell\Loopeis 1,46V_60s_2_PEIS from 65kHz to 10kHz.mps
Saved on :
	File : L_12_Loopeis 1,46V_60s_2_PEIS from 65kHz to 10kHz_20_OCV_C01.mpr
	Directory : C:\PEM-WE_measurements\2026\372_IV_IV IrOx, 5 min Pt, 30 min C, etched cathode\new station\Loopeis new\1,46 V different time gaps closed cell\
	Host : 192.168.0.2
Device : SP-150e (SN .005491)
Address : 192.168.0.91
EC-LAB for windows v11.71 (software)
Internet server v28.00 (firmware)
Command interpretor v14.01 (firmware)
Electrode material : 
Initial state : 
Electrolyte : 
Comments : 
Current amplifier : SP-150eB-20A
Electrode surface area : 0.001 cm²
Characteristic mass : 0.001 g
Equivalent Weight : 0.000 g/eq.
Density : 0.000 g/cm3
Volume (V) : 0.001 cm³
Record Analogic IN 1
Text export
   Mode : Standard
   Time format : Elapsed
Cycle Definition : Charge/Discharge alternance
tR (h:m:s)          0:01:0.0000         
dER/dt (mV/h)       1.0                 
record              <Ewe>               
dER (mV)            10.00               
dtR (s)             0.5000              
E range min (V)     -2.500              
E range max (V)     2.500               

mode	error	time/s	<Ewe/V>	Analog IN 1/V	
3	0	9.956631915958860E+002	1.1901327E+000	-1.1064836E-004
3	0	9.961631915832550E+002	1.2583094E+000	-7.2477276E-005
3	0	9.966631915706239E+002	1.2623760E+000	-3.4306191E-005
3	0	9.971631915579928E+002	1.2647198E+000	-1.6790499E-004
3	0	9.976631915453618E+002	1.2662648E+000	-1.5220648E-005
3	0	9.981631915327307E+002	1.2674357E+000	-9.1562819E-005
3	0	9.986631915200996E+002	1.2683061E+000	-2.4424717E-004
3	0	9.991631915074686E+002	1.2689772E+000	-1.1064836E-004
3	0	9.996631914948375E+002	1.2694921E+000	-1.2973390E-004
3	0	1.000163191482206E+003	1.2698531E+000	-3.4306191E-005
3	0	1.000663191469575E+003	1.2700704E+000	-9.1562819E-005
3	0	1.001163191456944E+003	1.2702627E+000	-5.3391734E-005
3	0	1.001663191444313E+003	1.2703755E+000	2.2950437E-005
3	0	1.002163191431682E+003	1.2705214E+000	4.2035979E-005
3	0	1.002663191419051E+003	1.2706462E+000	-3.4306191E-005
3	0	1.003163191406420E+003	1.2707253E+000	-1.8699054E-004
3	0	1.003663191393789E+003	1.2707814E+000	3.8648941E-006
3	0	1.004163191381158E+003	1.2708166E+000	-1.8699054E-004
3	0	1.004663191368527E+003	1.2707978E+000	-1.1064836E-004
3	0	1.005163191355896E+003	1.2706976E+000	4.2035979E-005
3	0	1.005663191343265E+003	1.2705503E+000	-1.4881945E-004
3	0	1.006163191330634E+003	1.2705005E+000	-1.4881945E-004
3	0	1.006663191318003E+003	1.2704680E+000	-1.6790499E-004
3	0	1.007163191305372E+003	1.2704279E+000	-1.5220648E-005
3	0	1.007663191292741E+003	1.2703769E+000	-1.5220648E-005
3	0	1.008163191280109E+003	1.2703389E+000	-1.5220648E-005
3	0	1.008663191267478E+003	1.2702571E+000	-3.4306191E-005
3	0	1.009163191254847E+003	1.2701010E+000	6.1121522E-005
3	0	1.009663191242216E+003	1.2699000E+000	1.5654923E-004
3	0	1.010163191229585E+003	1.2697994E+000	2.2950437E-005
3	0	1.010663191216954E+003	1.2697357E+000	-2.6333271E-004
3	0	1.011163191204323E+003	1.2696619E+000	-1.5220648E-005
3	0	1.011663191191692E+003	1.2695973E+000	2.2950437E-005
3	0	1.012163191179061E+003	1.2695307E+000	-1.2973390E-004
3	0	1.012663191166430E+003	1.2694515E+000	-1.2973390E-004
3	0	1.013163191153799E+003	1.2693150E+000	-5.3391734E-005
3	0	1.013663191141168E+003	1.2691437E+000	-1.2973390E-004
3	0	1.014163191128537E+003	1.2690812E+000	4.2035979E-005
3	0	1.014663191115906E+003	1.2690723E+000	-9.1562819E-005
3	0	1.015163191103275E+003	1.2690609E+000	-5.3391734E-005
3	0	1.015663191090644E+003	1.2690468E+000	-3.4306191E-005
3	0	1.016163191078012E+003	1.2690350E+000	-1.5220648E-005
3	0	1.016663191065381E+003	1.2689852E+000	-1.1064836E-004
3	0	1.017163191052750E+003	1.2688693E+000	6.1121522E-005
3	0	1.017663191040119E+003	1.2687143E+000	-9.1562819E-005
3	0	1.018163191027488E+003	1.2686573E+000	-3.4306191E-005
3	0	1.018663191014857E+003	1.2686299E+000	-3.4306191E-005
3	0	1.019163191002226E+003	1.2685885E+000	-3.4306191E-005
3	0	1.019663190989595E+003	1.2685429E+000	-3.4306191E-005
3	0	1.020163190976964E+003	1.2684951E+000	-7.2477276E-005
3	0	1.020663190964333E+003	1.2684064E+000	-7.2477276E-005
3	0	1.021163190951702E+003	1.2682360E+000	-1.2973390E-004
3	0	1.021663190939071E+003	1.2680258E+000	3.8648941E-006
3	0	1.022163190926440E+003	1.2679127E+000	4.2035979E-005
3	0	1.022663190913809E+003	1.2678293E+000	-3.4306191E-005
3	0	1.023163190901178E+003	1.2677249E+000	3.8648941E-006
3	0	1.023663190888547E+003	1.2676177E+000	-9.1562819E-005
3	0	1.024163190875915E+003	1.2675052E+000	4.2035979E-005
3	0	1.024663190863284E+003	1.2673520E+000	2.2950437E-005
3	0	1.025163190850653E+003	1.2671211E+000	-1.4881945E-004
3	0	1.025663190838022E+003	1.2668478E+000	-1.5220648E-005
3	0	1.026163190825391E+003	1.2666650E+000	-1.5220648E-005
3	0	1.026663190812760E+003	1.2665187E+000	-1.5220648E-005
3	0	1.027163190800129E+003	1.2663617E+000	-7.2477276E-005
3	0	1.027663190787498E+003	1.2662071E+000	3.8648941E-006
3	0	1.028163190774867E+003	1.2660402E+000	3.8648941E-006
3	0	1.028663190762236E+003	1.2658343E+000	8.0207064E-005
3	0	1.029163190749605E+003	1.2655545E+000	-3.4306191E-005
3	0	1.029663190736974E+003	1.2652299E+000	-5.3391734E-005
3	0	1.030163190724343E+003	1.2650070E+000	-3.4306191E-005
3	0	1.030663190711712E+003	1.2648166E+000	-1.1064836E-004
3	0	1.031163190699081E+003	1.2646234E+000	-9.1562819E-005
3	0	1.031663190686450E+003	1.2644392E+000	-7.2477276E-005
3	0	1.032163190673818E+003	1.2642554E+000	-3.4306191E-005
3	0	1.032663190661187E+003	1.2640616E+000	-3.4306191E-005
3	0	1.033163190648556E+003	1.2638012E+000	-1.5220648E-005
3	0	1.033663190635925E+003	1.2635145E+000	-5.3391734E-005
3	0	1.034163190623294E+003	1.2633389E+000	-5.3391734E-005
3	0	1.034663190610663E+003	1.2632025E+000	-5.3391734E-005
3	0	1.035163190598032E+003	1.2630658E+000	-1.1064836E-004
3	0	1.035663190585401E+003	1.2629234E+000	-1.2973390E-004
3	0	1.036163190572770E+003	1.2627836E+000	3.8648941E-006
3	0	1.036663190560139E+003	1.2626162E+000	8.0207064E-005
3	0	1.037163190547508E+003	1.2623799E+000	-1.2973390E-004
3	0	1.037663190534877E+003	1.2621017E+000	-1.1064836E-004
3	0	1.038163190522246E+003	1.2619145E+000	-9.1562819E-005
3	0	1.038663190509615E+003	1.2617736E+000	4.2035979E-005
3	0	1.039163190496984E+003	1.2616224E+000	-1.6790499E-004
3	0	1.039663190484353E+003	1.2614602E+000	6.1121522E-005
3	0	1.040163190471721E+003	1.2613090E+000	-3.4306191E-005
3	0	1.040663190459090E+003	1.2611176E+000	3.8648941E-006
3	0	1.041163190446459E+003	1.2608349E+000	-1.2973390E-004
3	0	1.041663190433828E+003	1.2605243E+000	-3.4306191E-005
3	0	1.042163190421197E+003	1.2603130E+000	-3.4306191E-005
3	0	1.042663190408566E+003	1.2601221E+000	-7.2477276E-005
3	0	1.043163190395935E+003	1.2599293E+000	6.1121522E-005
3	0	1.043663190383304E+003	1.2597332E+000	-5.3391734E-005
3	0	1.044163190370673E+003	1.2595255E+000	3.8648941E-006
3	0	1.044663190358042E+003	1.2592908E+000	-1.2973390E-004
3	0	1.045163190345411E+003	1.2589747E+000	9.9292607E-005
3	0	1.045663190332780E+003	1.2586216E+000	3.8648941E-006
3	0	1.046163190320149E+003	1.2583630E+000	-3.4306191E-005
3	0	1.046663190307518E+003	1.2581283E+000	-9.1562819E-005
3	0	1.047163190294887E+003	1.2578857E+000	3.8648941E-006
3	0	1.047663190282256E+003	1.2576256E+000	-1.5220648E-005
3	0	1.048163190269624E+003	1.2573786E+000	3.8648941E-006
3	0	1.048663190256993E+003	1.2570983E+000	-2.0607607E-004
3	0	1.049163190244362E+003	1.2567428E+000	-1.4881945E-004
3	0	1.049663190231731E+003	1.2563411E+000	-1.2973390E-004
3	0	1.050163190219100E+003	1.2560416E+000	4.2035979E-005
3	0	1.050663190206469E+003	1.2557740E+000	-5.3391734E-005
3	0	1.051163190193838E+003	1.2555039E+000	3.8648941E-006
3	0	1.051663190181207E+003	1.2552336E+000	-5.3391734E-005
3	0	1.052163190168576E+003	1.2549775E+000	-7.2477276E-005
3	0	1.052663190155945E+003	1.2546966E+000	-5.3391734E-005
3	0	1.053163190143314E+003	1.2543513E+000	-1.5220648E-005
3	0	1.053663190130683E+003	1.2539769E+000	-1.1064836E-004
3	0	1.054163190118052E+003	1.2537119E+000	-7.2477276E-005
3	0	1.054663190105421E+003	1.2534863E+000	-3.4306191E-005
3	0	1.055163190092790E+003	1.2532686E+000	-7.2477276E-005
3	0	1.055197190091931E+003	1.2531565E+000	-1.4881945E-004