EC-Lab ASCII FILE
Nb header lines : 48                          

Open Circuit Voltage

Run on channel : 1 (SN 81504)
User : 
CE vs. WE compliance from -10 V to 10 V
Electrode connection : standard
Potential control : Ewe
Ewe ctrl range : min = -2.50 V, max = 2.50 V
Safety Limits :
	Do not start on E overload
Acquisition started on : 05/10/2026 02:09:52.585
Loaded Setting File :  C:\PEM-WE_measurements\2026\372_IV_IV IrOx, 5 min Pt, 30 min C, etched cathode\new station\Loopeis new\1,46 V different time gaps closed cell\Loopeis 1,46V_60s_2_PEIS from 65kHz to 10kHz.mps
Saved on :
	File : L_12_Loopeis 1,46V_60s_2_PEIS from 65kHz to 10kHz_04_OCV_C01.mpr
	Directory : C:\PEM-WE_measurements\2026\372_IV_IV IrOx, 5 min Pt, 30 min C, etched cathode\new station\Loopeis new\1,46 V different time gaps closed cell\
	Host : 192.168.0.2
Device : SP-150e (SN .005491)
Address : 192.168.0.91
EC-LAB for windows v11.71 (software)
Internet server v28.00 (firmware)
Command interpretor v14.01 (firmware)
Electrode material : 
Initial state : 
Electrolyte : 
Comments : 
Current amplifier : SP-150eB-20A
Electrode surface area : 0.001 cm²
Characteristic mass : 0.001 g
Equivalent Weight : 0.000 g/eq.
Density : 0.000 g/cm3
Volume (V) : 0.001 cm³
Record Analogic IN 1
Text export
   Mode : Standard
   Time format : Elapsed
Cycle Definition : Charge/Discharge alternance
tR (h:m:s)          0:01:0.0000         
dER/dt (mV/h)       1.0                 
record              <Ewe>               
dER (mV)            10.00               
dtR (s)             0.5000              
E range min (V)     -2.500              
E range max (V)     2.500               

mode	error	time/s	<Ewe/V>	Analog IN 1/V	
3	0	1.510643995015562E+002	1.1977477E+000	-5.3391734E-005
3	0	1.515643994889251E+002	1.2583991E+000	2.2950437E-005
3	0	1.520643994762941E+002	1.2625663E+000	1.1837815E-004
3	0	1.525643994636630E+002	1.2650355E+000	-3.4306191E-005
3	0	1.530643994510319E+002	1.2667158E+000	1.3746369E-004
3	0	1.535643994384009E+002	1.2679267E+000	-9.1562819E-005
3	0	1.540643994257698E+002	1.2688031E+000	-3.4306191E-005
3	0	1.545643994131387E+002	1.2694364E+000	-1.5220648E-005
3	0	1.550643994005077E+002	1.2699760E+000	3.8648941E-006
3	0	1.555643993878766E+002	1.2704201E+000	4.2035979E-005
3	0	1.560643993752456E+002	1.2707863E+000	-1.2973390E-004
3	0	1.565643993626145E+002	1.2710737E+000	2.2950437E-005
3	0	1.570643993499834E+002	1.2713085E+000	-5.3391734E-005
3	0	1.575643993373524E+002	1.2714658E+000	-1.6790499E-004
3	0	1.580643993247213E+002	1.2715430E+000	-1.2973390E-004
3	0	1.585643993120902E+002	1.2715362E+000	2.2950437E-005
3	0	1.590643992994592E+002	1.2715733E+000	2.2950437E-005
3	0	1.595643992868281E+002	1.2716215E+000	4.2035979E-005
3	0	1.600643992741971E+002	1.2716542E+000	-1.5220648E-005
3	0	1.605643992615660E+002	1.2716647E+000	-1.8699054E-004
3	0	1.610643992489349E+002	1.2716715E+000	-9.1562819E-005
3	0	1.615643992363039E+002	1.2716370E+000	-3.4306191E-005
3	0	1.620643992236728E+002	1.2715383E+000	3.8648941E-006
3	0	1.625643992110417E+002	1.2713866E+000	-1.5220648E-005
3	0	1.630643991984107E+002	1.2712967E+000	-1.6790499E-004
3	0	1.635643991857796E+002	1.2712395E+000	-1.5220648E-005
3	0	1.640643991731486E+002	1.2711760E+000	-1.5220648E-005
3	0	1.645643991605175E+002	1.2711166E+000	-3.4306191E-005
3	0	1.650643991478864E+002	1.2710500E+000	-3.4306191E-005
3	0	1.655643991352554E+002	1.2709488E+000	1.1837815E-004
3	0	1.660643991226243E+002	1.2707936E+000	-7.2477276E-005
3	0	1.665643991099932E+002	1.2705832E+000	-9.1562819E-005
3	0	1.670643990973622E+002	1.2704427E+000	-1.5220648E-005
3	0	1.675643990847311E+002	1.2703445E+000	-1.5220648E-005
3	0	1.680643990721001E+002	1.2702571E+000	-5.3391734E-005
3	0	1.685643990594690E+002	1.2701783E+000	-5.3391734E-005
3	0	1.690643990468379E+002	1.2701111E+000	8.0207064E-005
3	0	1.695643990342069E+002	1.2700447E+000	-1.4881945E-004
3	0	1.700643990215758E+002	1.2699134E+000	-7.2477276E-005
3	0	1.705643990089447E+002	1.2697276E+000	-5.3391734E-005
3	0	1.710643989963137E+002	1.2696245E+000	-1.4881945E-004
3	0	1.715643989836826E+002	1.2695584E+000	6.1121522E-005
3	0	1.720643989710516E+002	1.2694954E+000	-1.2973390E-004
3	0	1.725643989584205E+002	1.2694343E+000	-7.2477276E-005
3	0	1.730643989457894E+002	1.2693686E+000	-7.2477276E-005
3	0	1.735643989331584E+002	1.2692809E+000	-5.3391734E-005
3	0	1.740643989205273E+002	1.2691462E+000	-1.2973390E-004
3	0	1.745643989078962E+002	1.2689390E+000	-1.5220648E-005
3	0	1.750643988952652E+002	1.2688030E+000	2.2950437E-005
3	0	1.755643988826341E+002	1.2687018E+000	-1.6790499E-004
3	0	1.760643988700031E+002	1.2686043E+000	3.8648941E-006
3	0	1.765643988573720E+002	1.2685078E+000	-9.1562819E-005
3	0	1.770643988447409E+002	1.2683994E+000	-1.2973390E-004
3	0	1.775643988321099E+002	1.2682654E+000	-5.3391734E-005
3	0	1.780643988194788E+002	1.2680613E+000	-3.4306191E-005
3	0	1.785643988068477E+002	1.2677995E+000	3.8648941E-006
3	0	1.790643987942167E+002	1.2676191E+000	-1.1064836E-004
3	0	1.795643987815856E+002	1.2674618E+000	-1.5220648E-005
3	0	1.800643987689546E+002	1.2673080E+000	1.5654923E-004
3	0	1.805643987563235E+002	1.2671382E+000	-7.2477276E-005
3	0	1.810643987436924E+002	1.2669741E+000	-2.0607607E-004
3	0	1.815643987310614E+002	1.2667828E+000	2.2950437E-005
3	0	1.820643987184303E+002	1.2665342E+000	9.9292607E-005
3	0	1.825643987057992E+002	1.2662270E+000	-3.4306191E-005
3	0	1.830643986931682E+002	1.2659880E+000	-1.1064836E-004
3	0	1.835643986805371E+002	1.2657820E+000	-1.5220648E-005
3	0	1.840643986679061E+002	1.2655807E+000	9.9292607E-005
3	0	1.845643986552750E+002	1.2653701E+000	-7.2477276E-005
3	0	1.850643986426439E+002	1.2651510E+000	-1.5220648E-005
3	0	1.855643986300129E+002	1.2649097E+000	-1.8699054E-004
3	0	1.860643986173818E+002	1.2646104E+000	3.8648941E-006
3	0	1.865643986047508E+002	1.2642591E+000	-3.4306191E-005
3	0	1.870643985921197E+002	1.2639782E+000	-1.8699054E-004
3	0	1.875643985794886E+002	1.2637402E+000	3.8648941E-006
3	0	1.880643985668576E+002	1.2635344E+000	3.8648941E-006
3	0	1.885643985542265E+002	1.2633256E+000	-3.4306191E-005
3	0	1.890643985415954E+002	1.2631303E+000	3.8648941E-006
3	0	1.895643985289644E+002	1.2629189E+000	-1.1064836E-004
3	0	1.900643985163333E+002	1.2626462E+000	-1.4881945E-004
3	0	1.905643985037023E+002	1.2623303E+000	-3.4306191E-005
3	0	1.910643984910712E+002	1.2620963E+000	-7.2477276E-005
3	0	1.915643984784401E+002	1.2618899E+000	4.2035979E-005
3	0	1.920643984658091E+002	1.2617027E+000	-5.3391734E-005
3	0	1.925643984531780E+002	1.2615219E+000	8.0207064E-005
3	0	1.930643984405469E+002	1.2613279E+000	-9.1562819E-005
3	0	1.935643984279159E+002	1.2611203E+000	-1.2973390E-004
3	0	1.940643984152848E+002	1.2608507E+000	-1.4881945E-004
3	0	1.945643984026538E+002	1.2605251E+000	-1.4881945E-004
3	0	1.950643983900227E+002	1.2602674E+000	-7.2477276E-005
3	0	1.955643983773916E+002	1.2600424E+000	-1.4881945E-004
3	0	1.960643983647606E+002	1.2598310E+000	-3.4306191E-005
3	0	1.965643983521295E+002	1.2596098E+000	-1.5220648E-005
3	0	1.970643983394984E+002	1.2593842E+000	-1.1064836E-004
3	0	1.975643983268674E+002	1.2591367E+000	-7.2477276E-005
3	0	1.980643983142363E+002	1.2588309E+000	-5.3391734E-005
3	0	1.985643983016053E+002	1.2584609E+000	-7.2477276E-005
3	0	1.990643982889742E+002	1.2581605E+000	-5.3391734E-005
3	0	1.995643982763431E+002	1.2578975E+000	-7.2477276E-005
3	0	2.000643982637121E+002	1.2576383E+000	3.8648941E-006
3	0	2.005643982510810E+002	1.2573833E+000	-7.2477276E-005
3	0	2.010643982384499E+002	1.2571300E+000	-1.8699054E-004
3	0	2.015643982258189E+002	1.2568421E+000	-5.3391734E-005
3	0	2.020643982131878E+002	1.2564919E+000	-5.3391734E-005
3	0	2.025643982005568E+002	1.2560861E+000	-1.2973390E-004
3	0	2.030643981879257E+002	1.2557584E+000	2.2950437E-005
3	0	2.035643981752946E+002	1.2554607E+000	-1.2973390E-004
3	0	2.040643981626636E+002	1.2551624E+000	-1.2973390E-004
3	0	2.045643981500325E+002	1.2548681E+000	-5.3391734E-005
3	0	2.050643981374014E+002	1.2545733E+000	-5.3391734E-005
3	0	2.055643981247704E+002	1.2542617E+000	-1.1064836E-004
3	0	2.060643981121393E+002	1.2538787E+000	-3.4306191E-005
3	0	2.065643980995083E+002	1.2534366E+000	-9.1562819E-005
3	0	2.070643980868772E+002	1.2530820E+000	3.8648941E-006
3	0	2.075643980742461E+002	1.2527647E+000	-1.5220648E-005
3	0	2.080643980616151E+002	1.2524661E+000	6.1121522E-005
3	0	2.085643980489840E+002	1.2521753E+000	-3.4306191E-005
3	0	2.090643980363529E+002	1.2518972E+000	-9.1562819E-005
3	0	2.095643980237219E+002	1.2516035E+000	3.8648941E-006
3	0	2.100643980110908E+002	1.2512630E+000	-5.3391734E-005
3	0	2.105643979984598E+002	1.2508677E+000	-1.5220648E-005
3	0	2.105999979975604E+002	1.2506881E+000	-1.1064836E-004