EC-Lab ASCII FILE
Nb header lines : 55                          

Open Circuit Voltage

Run on channel : 1 (SN 81504)
User : 
CE vs. WE compliance from -10 V to 10 V
Electrode connection : standard
Potential control : Ewe
Ewe ctrl range : min = -2.50 V, max = 2.50 V
Safety Limits :
	Do not start on E overload
Acquisition started on : 05/09/2026 23:46:58.612
Loaded Setting File :  C:\PEM-WE_measurements\2026\372_IV_IV IrOx, 5 min Pt, 30 min C, etched cathode\new station\Loopeis new\1,46 V different time gaps closed cell\Loopeis 1,46V_30s_3_PEIS from 6500Hz to 1000Hz.mps
Saved on :
	File : L_03_Loopeis 1,46V_30s_3_PEIS from 6500Hz to 1000Hz_12_OCV_C01.mpr
	Directory : C:\PEM-WE_measurements\2026\372_IV_IV IrOx, 5 min Pt, 30 min C, etched cathode\new station\Loopeis new\1,46 V different time gaps closed cell\
	Host : 192.168.0.2
Device : SP-150e (SN .005491)
Address : 192.168.0.91
EC-LAB for windows v11.71 (software)
Internet server v28.00 (firmware)
Command interpretor v14.01 (firmware)
Electrode material : 
Initial state : 
Electrolyte : 
Comments : 
Current amplifier : SP-150eB-20A
Electrode surface area : 0.001 cm²
Characteristic mass : 0.001 g
Equivalent Weight : 0.000 g/eq.
Density : 0.000 g/cm3
Volume (V) : 0.001 cm³
Record Analogic IN 1
Text export
   Mode : Standard
   Time format : Elapsed
Cycle Definition : Charge/Discharge alternance
External device configuration :
   device type : Temperature Probe
   device name : Other
   Analog IN 1 : 
      unit : T/Â°C
      max : 100.000 at 2.000 V
      min : 0.000 at 1.460 V
tR (h:m:s)          0:00:30.0000        
dER/dt (mV/h)       1.0                 
record              <Ewe>               
dER (mV)            10.00               
dtR (s)             0.5000              
E range min (V)     -2.500              
E range max (V)     2.500               

mode	error	time/s	<Ewe/V>	Analog IN 1/V	
3	0	4.241949993767776E+002	1.2189816E+000	-2.7036618E+002
3	0	4.246949993641465E+002	1.2483001E+000	-2.7039447E+002
3	0	4.251949993515154E+002	1.2529609E+000	-2.7039447E+002
3	0	4.256949993388844E+002	1.2558894E+000	-2.7037677E+002
3	0	4.261949993262533E+002	1.2579824E+000	-2.7038031E+002
3	0	4.266949993136222E+002	1.2595863E+000	-2.7037326E+002
3	0	4.271949993009912E+002	1.2608684E+000	-2.7036972E+002
3	0	4.276949992883601E+002	1.2619017E+000	-2.7035913E+002
3	0	4.281949992757291E+002	1.2627199E+000	-2.7038742E+002
3	0	4.286949992630980E+002	1.2633654E+000	-2.7035913E+002
3	0	4.291949992504669E+002	1.2639376E+000	-2.7040860E+002
3	0	4.296949992378359E+002	1.2644542E+000	-2.7039447E+002
3	0	4.301949992252048E+002	1.2648869E+000	-2.7038031E+002
3	0	4.306949992125737E+002	1.2652596E+000	-2.7036618E+002
3	0	4.311949991999427E+002	1.2655745E+000	-2.7038385E+002
3	0	4.316949991873116E+002	1.2658370E+000	-2.7041214E+002
3	0	4.321949991746806E+002	1.2660108E+000	-2.7039093E+002
3	0	4.326949991620495E+002	1.2660950E+000	-2.7038031E+002
3	0	4.331949991494184E+002	1.2661859E+000	-2.7038742E+002
3	0	4.336949991367874E+002	1.2662958E+000	-2.7040506E+002
3	0	4.341949991241563E+002	1.2663684E+000	-2.7037677E+002
3	0	4.346949991115252E+002	1.2664216E+000	-2.7039093E+002
3	0	4.351949990988942E+002	1.2664400E+000	-2.7036267E+002
3	0	4.356949990862631E+002	1.2663741E+000	-2.7037326E+002
3	0	4.361949990736321E+002	1.2662886E+000	-2.7036972E+002
3	0	4.366949990610010E+002	1.2661800E+000	-2.7038742E+002
3	0	4.371949990483699E+002	1.2660923E+000	-2.7037677E+002
3	0	4.376949990357389E+002	1.2660272E+000	-2.7039093E+002
3	0	4.381949990231078E+002	1.2659175E+000	-2.7039447E+002
3	0	4.386949990104767E+002	1.2657834E+000	-2.7038742E+002
3	0	4.391949989978457E+002	1.2656448E+000	-2.7038742E+002
3	0	4.396949989852146E+002	1.2654860E+000	-2.7040506E+002
3	0	4.401949989725836E+002	1.2652553E+000	-2.7038385E+002
3	0	4.406949989599525E+002	1.2649592E+000	-2.7038385E+002
3	0	4.411949989473214E+002	1.2646892E+000	-2.7036618E+002
3	0	4.416949989346904E+002	1.2644718E+000	-2.7036972E+002
3	0	4.421949989220593E+002	1.2642457E+000	-2.7038385E+002
3	0	4.426949989094283E+002	1.2639960E+000	-2.7039447E+002
3	0	4.431949988967972E+002	1.2637485E+000	-2.7035913E+002
3	0	4.436949988841661E+002	1.2634746E+000	-2.7036618E+002
3	0	4.441949988715351E+002	1.2631507E+000	-2.7038031E+002
3	0	4.446949988589040E+002	1.2627518E+000	-2.7036618E+002
3	0	4.451949988462729E+002	1.2623833E+000	-2.7037677E+002
3	0	4.456949988336419E+002	1.2620708E+000	-2.7037677E+002
3	0	4.461949988210108E+002	1.2617484E+000	-2.7036972E+002
3	0	4.466949988083798E+002	1.2614115E+000	-2.7037677E+002
3	0	4.471949987957487E+002	1.2610679E+000	-2.7041919E+002
3	0	4.476949987831176E+002	1.2607020E+000	-2.7039093E+002
3	0	4.481949987704866E+002	1.2602725E+000	-2.7037677E+002
3	0	4.486949987578555E+002	1.2597783E+000	-2.7036618E+002
3	0	4.491949987452244E+002	1.2593201E+000	-2.7039447E+002
3	0	4.496949987325934E+002	1.2589164E+000	-2.7036618E+002
3	0	4.501949987199623E+002	1.2585100E+000	-2.7039447E+002
3	0	4.506949987073313E+002	1.2580938E+000	-2.7035559E+002
3	0	4.511949986947002E+002	1.2576772E+000	-2.7038742E+002
3	0	4.516949986820691E+002	1.2572534E+000	-2.7038031E+002
3	0	4.521949986694381E+002	1.2567743E+000	-2.7037677E+002
3	0	4.526949986568070E+002	1.2562364E+000	-2.7036618E+002
3	0	4.531949986441759E+002	1.2557316E+000	-2.7037677E+002
3	0	4.536949986315449E+002	1.2552886E+000	-2.7037326E+002
3	0	4.537195986309234E+002	1.2550521E+000	-2.7040506E+002