EC-Lab ASCII FILE
Nb header lines : 55                          

Open Circuit Voltage

Run on channel : 1 (SN 81504)
User : 
CE vs. WE compliance from -10 V to 10 V
Electrode connection : standard
Potential control : Ewe
Ewe ctrl range : min = -2.50 V, max = 2.50 V
Safety Limits :
	Do not start on E overload
Acquisition started on : 05/07/2026 17:51:53.741
Loaded Setting File :  C:\PEM-WE_measurements\2026\372_IV_IV IrOx, 5 min Pt, 30 min C, etched cathode\new station\Loopeis new\1,46 V different time gaps open cell\Loopeis 1,46V_60s_5_PEIS from 65Hz to 10Hz.mps
Saved on :
	File : L_15_Loopeis 1,46V_60s_5_PEIS from 65Hz to 10Hz_18_OCV_C01.mpr
	Directory : C:\PEM-WE_measurements\2026\372_IV_IV IrOx, 5 min Pt, 30 min C, etched cathode\new station\Loopeis new\1,46 V different time gaps open cell\
	Host : 192.168.0.2
Device : SP-150e (SN .005491)
Address : 192.168.0.91
EC-LAB for windows v11.71 (software)
Internet server v28.00 (firmware)
Command interpretor v14.01 (firmware)
Electrode material : 
Initial state : 
Electrolyte : 
Comments : 
Current amplifier : SP-150eB-20A
Electrode surface area : 0.001 cm²
Characteristic mass : 0.001 g
Equivalent Weight : 0.000 g/eq.
Density : 0.000 g/cm3
Volume (V) : 0.001 cm³
Record Analogic IN 1
Text export
   Mode : Standard
   Time format : Elapsed
Cycle Definition : Charge/Discharge alternance
External device configuration :
   device type : Temperature Probe
   device name : Other
   Analog IN 1 : 
      unit : T/Â°C
      max : 100.000 at 2.000 V
      min : 0.000 at 1.460 V
tR (h:m:s)          0:01:0.0000         
dER/dt (mV/h)       1.0                 
record              <Ewe>               
dER (mV)            10.00               
dtR (s)             0.5000              
E range min (V)     -2.500              
E range max (V)     2.500               

mode	error	time/s	<Ewe/V>	Analog IN 1/V	
3	0	1.340782012351337E+003	1.2760873E+000	-2.7037677E+002
3	0	1.341282012338706E+003	1.2692006E+000	-2.7036267E+002
3	0	1.341782012326075E+003	1.2316552E+000	-2.7038385E+002
3	0	1.342282012313444E+003	1.1558976E+000	-2.7038031E+002
3	0	1.342782012300813E+003	9.0876174E-001	-2.7038031E+002
3	0	1.343282012288182E+003	4.6863997E-001	-2.7036267E+002
3	0	1.343782012275551E+003	3.5362896E-001	-2.7036972E+002
3	0	1.344282012262920E+003	3.3739743E-001	-2.7038031E+002
3	0	1.344782012250289E+003	3.2852882E-001	-2.7037326E+002
3	0	1.345282012237658E+003	3.2154670E-001	-2.7039447E+002
3	0	1.345782012225027E+003	3.1626323E-001	-2.7037677E+002
3	0	1.346282012212396E+003	3.1225321E-001	-2.7035913E+002
3	0	1.346782012199765E+003	3.0912569E-001	-2.7036972E+002
3	0	1.347282012187134E+003	3.0662194E-001	-2.7036618E+002
3	0	1.347782012174503E+003	3.0454999E-001	-2.7037677E+002
3	0	1.348282012161872E+003	3.0281585E-001	-2.7040155E+002
3	0	1.348782012149240E+003	3.0130613E-001	-2.7038385E+002
3	0	1.349282012136609E+003	2.9997301E-001	-2.7037326E+002
3	0	1.349782012123978E+003	2.9876781E-001	-2.7038031E+002
3	0	1.350282012111347E+003	2.9770058E-001	-2.7038385E+002
3	0	1.350782012098716E+003	2.9673630E-001	-2.7034851E+002
3	0	1.351282012086085E+003	2.9582962E-001	-2.7037677E+002
3	0	1.351782012073454E+003	2.9498363E-001	-2.7037326E+002
3	0	1.352282012060823E+003	2.9419038E-001	-2.7036267E+002
3	0	1.352782012048192E+003	2.9343852E-001	-2.7036618E+002
3	0	1.353282012035561E+003	2.9268655E-001	-2.7038742E+002
3	0	1.353782012022930E+003	2.9194978E-001	-2.7037326E+002
3	0	1.354282012010299E+003	2.9125500E-001	-2.7038742E+002
3	0	1.354782011997668E+003	2.9059938E-001	-2.7036618E+002
3	0	1.355282011985037E+003	2.8995731E-001	-2.7039093E+002
3	0	1.355782011972406E+003	2.8933024E-001	-2.7040860E+002
3	0	1.356282011959775E+003	2.8872451E-001	-2.7038385E+002
3	0	1.356782011947143E+003	2.8812161E-001	-2.7038031E+002
3	0	1.357282011934512E+003	2.8750244E-001	-2.7036618E+002
3	0	1.357782011921881E+003	2.8688437E-001	-2.7037326E+002
3	0	1.358282011909250E+003	2.8629601E-001	-2.7040860E+002
3	0	1.358782011896619E+003	2.8573251E-001	-2.7038385E+002
3	0	1.359282011883988E+003	2.8517222E-001	-2.7038031E+002
3	0	1.359782011871357E+003	2.8461957E-001	-2.7035205E+002
3	0	1.360282011858726E+003	2.8407454E-001	-2.7039801E+002
3	0	1.360782011846095E+003	2.8352377E-001	-2.7038031E+002
3	0	1.361282011833464E+003	2.8296548E-001	-2.7036618E+002
3	0	1.361782011820833E+003	2.8240091E-001	-2.7038385E+002
3	0	1.362282011808202E+003	2.8186831E-001	-2.7038031E+002
3	0	1.362782011795571E+003	2.8134954E-001	-2.7035205E+002
3	0	1.363282011782940E+003	2.8082991E-001	-2.7037326E+002
3	0	1.363782011770309E+003	2.8031808E-001	-2.7037326E+002
3	0	1.364282011757678E+003	2.7981210E-001	-2.7035913E+002
3	0	1.364782011745046E+003	2.7930954E-001	-2.7038742E+002
3	0	1.365282011732415E+003	2.7879086E-001	-2.7036972E+002
3	0	1.365782011719784E+003	2.7826717E-001	-2.7035559E+002
3	0	1.366282011707153E+003	2.7777171E-001	-2.7038742E+002
3	0	1.366782011694522E+003	2.7729324E-001	-2.7039447E+002
3	0	1.367282011681891E+003	2.7681437E-001	-2.7039093E+002
3	0	1.367782011669260E+003	2.7633572E-001	-2.7038742E+002
3	0	1.368282011656629E+003	2.7586862E-001	-2.7039801E+002
3	0	1.368782011643998E+003	2.7538222E-001	-2.7040860E+002
3	0	1.369282011631367E+003	2.7489275E-001	-2.7038031E+002
3	0	1.369782011618736E+003	2.7442816E-001	-2.7038385E+002
3	0	1.370282011606105E+003	2.7397984E-001	-2.7037677E+002
3	0	1.370782011593474E+003	2.7355626E-001	-2.7037677E+002
3	0	1.371282011580843E+003	2.7312064E-001	-2.7036267E+002
3	0	1.371782011568212E+003	2.7268368E-001	-2.7036972E+002
3	0	1.372282011555581E+003	2.7225983E-001	-2.7036618E+002
3	0	1.372782011542949E+003	2.7183014E-001	-2.7041919E+002
3	0	1.373282011530318E+003	2.7137697E-001	-2.7037326E+002
3	0	1.373782011517687E+003	2.7091610E-001	-2.7038742E+002
3	0	1.374282011505056E+003	2.7048603E-001	-2.7039093E+002
3	0	1.374782011492425E+003	2.7007183E-001	-2.7038742E+002
3	0	1.375282011479794E+003	2.6967162E-001	-2.7036267E+002
3	0	1.375782011467163E+003	2.6927155E-001	-2.7038031E+002
3	0	1.376282011454532E+003	2.6886982E-001	-2.7036972E+002
3	0	1.376782011441901E+003	2.6846832E-001	-2.7036267E+002
3	0	1.377282011429270E+003	2.6805121E-001	-2.7036618E+002
3	0	1.377782011416639E+003	2.6762041E-001	-2.7038742E+002
3	0	1.378282011404008E+003	2.6721916E-001	-2.7037326E+002
3	0	1.378782011391377E+003	2.6684770E-001	-2.7038031E+002
3	0	1.379282011378746E+003	2.6647192E-001	-2.7038742E+002
3	0	1.379782011366115E+003	2.6609695E-001	-2.7037326E+002
3	0	1.380282011353484E+003	2.6572549E-001	-2.7039093E+002
3	0	1.380782011340852E+003	2.6534918E-001	-2.7040506E+002
3	0	1.381282011328221E+003	2.6495546E-001	-2.7039093E+002
3	0	1.381782011315590E+003	2.6456290E-001	-2.7038742E+002
3	0	1.382282011302959E+003	2.6419711E-001	-2.7039447E+002
3	0	1.382782011290328E+003	2.6385924E-001	-2.7038031E+002
3	0	1.383282011277697E+003	2.6351666E-001	-2.7035205E+002
3	0	1.383782011265066E+003	2.6317468E-001	-2.7036618E+002
3	0	1.384282011252435E+003	2.6282504E-001	-2.7039447E+002
3	0	1.384782011239804E+003	2.6248243E-001	-2.7039093E+002
3	0	1.385282011227173E+003	2.6212412E-001	-2.7038031E+002
3	0	1.385782011214542E+003	2.6174626E-001	-2.7037677E+002
3	0	1.386282011201911E+003	2.6140672E-001	-2.7040155E+002
3	0	1.386782011189280E+003	2.6109576E-001	-2.7040155E+002
3	0	1.387282011176649E+003	2.6078343E-001	-2.7037326E+002
3	0	1.387782011164018E+003	2.6046613E-001	-2.7037677E+002
3	0	1.388282011151387E+003	2.6015180E-001	-2.7036972E+002
3	0	1.388782011138755E+003	2.5984189E-001	-2.7038031E+002
3	0	1.389282011126124E+003	2.5951758E-001	-2.7036972E+002
3	0	1.389782011113493E+003	2.5917444E-001	-2.7038385E+002
3	0	1.390282011100862E+003	2.5886124E-001	-2.7040155E+002
3	0	1.390782011088231E+003	2.5857642E-001	-2.7038385E+002
3	0	1.391282011075600E+003	2.5829229E-001	-2.7037677E+002
3	0	1.391782011062969E+003	2.5800961E-001	-2.7034497E+002
3	0	1.392282011050338E+003	2.5772873E-001	-2.7037677E+002
3	0	1.392782011037707E+003	2.5744104E-001	-2.7037326E+002
3	0	1.393282011025076E+003	2.5713459E-001	-2.7038385E+002
3	0	1.393782011012445E+003	2.5681645E-001	-2.7038031E+002
3	0	1.394282010999814E+003	2.5652829E-001	-2.7038385E+002
3	0	1.394782010987183E+003	2.5627640E-001	-2.7038385E+002
3	0	1.395282010974552E+003	2.5601691E-001	-2.7039801E+002
3	0	1.395782010961921E+003	2.5575304E-001	-2.7038742E+002
3	0	1.396282010949290E+003	2.5549352E-001	-2.7039093E+002
3	0	1.396782010936658E+003	2.5522661E-001	-2.7038742E+002
3	0	1.397282010924027E+003	2.5494650E-001	-2.7036618E+002
3	0	1.397782010911396E+003	2.5465459E-001	-2.7039801E+002
3	0	1.398282010898765E+003	2.5438896E-001	-2.7038031E+002
3	0	1.398782010886134E+003	2.5415903E-001	-2.7037677E+002
3	0	1.399282010873503E+003	2.5391957E-001	-2.7037677E+002
3	0	1.399782010860872E+003	2.5368354E-001	-2.7036972E+002
3	0	1.400282010848241E+003	2.5344571E-001	-2.7039093E+002
3	0	1.400282410848231E+003	2.5344148E-001	-2.7041214E+002