EC-Lab ASCII FILE
Nb header lines : 55                          

Open Circuit Voltage

Run on channel : 1 (SN 81504)
User : 
CE vs. WE compliance from -10 V to 10 V
Electrode connection : standard
Potential control : Ewe
Ewe ctrl range : min = -2.50 V, max = 2.50 V
Safety Limits :
	Do not start on E overload
Acquisition started on : 05/07/2026 15:46:26.830
Loaded Setting File :  C:\PEM-WE_measurements\2026\372_IV_IV IrOx, 5 min Pt, 30 min C, etched cathode\new station\Loopeis new\1,46 V different time gaps open cell\Loopeis 1,46V_45s_3_PEIS from 6500Hz to 1000Hz.mps
Saved on :
	File : L_08_Loopeis 1,46V_45s_3_PEIS from 6500Hz to 1000Hz_10_OCV_C01.mpr
	Directory : C:\PEM-WE_measurements\2026\372_IV_IV IrOx, 5 min Pt, 30 min C, etched cathode\new station\Loopeis new\1,46 V different time gaps open cell\
	Host : 192.168.0.2
Device : SP-150e (SN .005491)
Address : 192.168.0.91
EC-LAB for windows v11.71 (software)
Internet server v28.00 (firmware)
Command interpretor v14.01 (firmware)
Electrode material : 
Initial state : 
Electrolyte : 
Comments : 
Current amplifier : SP-150eB-20A
Electrode surface area : 0.001 cm²
Characteristic mass : 0.001 g
Equivalent Weight : 0.000 g/eq.
Density : 0.000 g/cm3
Volume (V) : 0.001 cm³
Record Analogic IN 1
Text export
   Mode : Standard
   Time format : Elapsed
Cycle Definition : Charge/Discharge alternance
External device configuration :
   device type : Temperature Probe
   device name : Other
   Analog IN 1 : 
      unit : T/Â°C
      max : 100.000 at 2.000 V
      min : 0.000 at 1.460 V
tR (h:m:s)          0:00:45.0000        
dER/dt (mV/h)       1.0                 
record              <Ewe>               
dER (mV)            10.00               
dtR (s)             0.5000              
E range min (V)     -2.500              
E range max (V)     2.500               

mode	error	time/s	<Ewe/V>	Analog IN 1/V	
3	0	4.056543963116565E+002	1.2772015E+000	-2.7040155E+002
3	0	4.061543962990254E+002	1.2723824E+000	-2.7038742E+002
3	0	4.066543962863943E+002	1.2370439E+000	-2.7037677E+002
3	0	4.071543962737633E+002	1.1637425E+000	-2.7035913E+002
3	0	4.076543962611322E+002	9.2780942E-001	-2.7038031E+002
3	0	4.081543962485011E+002	4.7671759E-001	-2.7038742E+002
3	0	4.086543962358701E+002	3.5789463E-001	-2.7039447E+002
3	0	4.091543962232390E+002	3.4154984E-001	-2.7038385E+002
3	0	4.096543962106080E+002	3.3254528E-001	-2.7036267E+002
3	0	4.101543961979769E+002	3.2548800E-001	-2.7038031E+002
3	0	4.106543961853458E+002	3.2016855E-001	-2.7036972E+002
3	0	4.111543961727148E+002	3.1613222E-001	-2.7038742E+002
3	0	4.116543961600837E+002	3.1298727E-001	-2.7039447E+002
3	0	4.121543961474526E+002	3.1047240E-001	-2.7039093E+002
3	0	4.126543961348216E+002	3.0838636E-001	-2.7034851E+002
3	0	4.131543961221905E+002	3.0661586E-001	-2.7038385E+002
3	0	4.136543961095595E+002	3.0507392E-001	-2.7037677E+002
3	0	4.141543960969284E+002	3.0373845E-001	-2.7037677E+002
3	0	4.146543960842973E+002	3.0256543E-001	-2.7037326E+002
3	0	4.151543960716663E+002	3.0149353E-001	-2.7035913E+002
3	0	4.156543960590352E+002	3.0051011E-001	-2.7036972E+002
3	0	4.161543960464041E+002	2.9960167E-001	-2.7037326E+002
3	0	4.166543960337731E+002	2.9874650E-001	-2.7038742E+002
3	0	4.171543960211420E+002	2.9792213E-001	-2.7038742E+002
3	0	4.176543960085110E+002	2.9711059E-001	-2.7037677E+002
3	0	4.181543959958799E+002	2.9636836E-001	-2.7037326E+002
3	0	4.186543959832488E+002	2.9566529E-001	-2.7038031E+002
3	0	4.191543959706178E+002	2.9498139E-001	-2.7038385E+002
3	0	4.196543959579867E+002	2.9432505E-001	-2.7039447E+002
3	0	4.201543959453556E+002	2.9368249E-001	-2.7039447E+002
3	0	4.206543959327246E+002	2.9305583E-001	-2.7038031E+002
3	0	4.211543959200935E+002	2.9242191E-001	-2.7035913E+002
3	0	4.216543959074625E+002	2.9178092E-001	-2.7036972E+002
3	0	4.221543958948314E+002	2.9117453E-001	-2.7036618E+002
3	0	4.226543958822003E+002	2.9058808E-001	-2.7035205E+002
3	0	4.231543958695693E+002	2.9001173E-001	-2.7036618E+002
3	0	4.236543958569382E+002	2.8944334E-001	-2.7037677E+002
3	0	4.241543958443071E+002	2.8888300E-001	-2.7037326E+002
3	0	4.246543958316761E+002	2.8833115E-001	-2.7036618E+002
3	0	4.251543958190450E+002	2.8776798E-001	-2.7040155E+002
3	0	4.256543958064140E+002	2.8719038E-001	-2.7036618E+002
3	0	4.261543957937829E+002	2.8664139E-001	-2.7038742E+002
3	0	4.266543957811518E+002	2.8611347E-001	-2.7037677E+002
3	0	4.271543957685208E+002	2.8559297E-001	-2.7035559E+002
3	0	4.276543957558897E+002	2.8507194E-001	-2.7037677E+002
3	0	4.281543957432586E+002	2.8456205E-001	-2.7034851E+002
3	0	4.286543957306276E+002	2.8404799E-001	-2.7038385E+002
3	0	4.291543957179965E+002	2.8351468E-001	-2.7037677E+002
3	0	4.296543957053655E+002	2.8297573E-001	-2.7038031E+002
3	0	4.301543956927344E+002	2.8247523E-001	-2.7038385E+002
3	0	4.306543956801033E+002	2.8198978E-001	-2.7038742E+002
3	0	4.311543956674723E+002	2.8149688E-001	-2.7038385E+002
3	0	4.316543956548412E+002	2.8101140E-001	-2.7036972E+002
3	0	4.321543956422101E+002	2.8054440E-001	-2.7036972E+002
3	0	4.326543956295791E+002	2.8005904E-001	-2.7039093E+002
3	0	4.331543956169480E+002	2.7956709E-001	-2.7038742E+002
3	0	4.336543956043170E+002	2.7906927E-001	-2.7038385E+002
3	0	4.341543955916859E+002	2.7860749E-001	-2.7036972E+002
3	0	4.346543955790548E+002	2.7815226E-001	-2.7035913E+002
3	0	4.351543955664238E+002	2.7768606E-001	-2.7037677E+002
3	0	4.356543955537927E+002	2.7723524E-001	-2.7036618E+002
3	0	4.361543955411616E+002	2.7679223E-001	-2.7038031E+002
3	0	4.366543955285306E+002	2.7634192E-001	-2.7036618E+002
3	0	4.371543955158995E+002	2.7588445E-001	-2.7034497E+002
3	0	4.376543955032685E+002	2.7541718E-001	-2.7038031E+002
3	0	4.381543954906374E+002	2.7498016E-001	-2.7039447E+002
3	0	4.386543954780063E+002	2.7457184E-001	-2.7037677E+002
3	0	4.391543954653753E+002	2.7415565E-001	-2.7037677E+002
3	0	4.396543954527442E+002	2.7373794E-001	-2.7036618E+002
3	0	4.401543954401131E+002	2.7332845E-001	-2.7038031E+002
3	0	4.406543954274821E+002	2.7291217E-001	-2.7036618E+002
3	0	4.411543954148510E+002	2.7248830E-001	-2.7036972E+002
3	0	4.416543954022200E+002	2.7206481E-001	-2.7038385E+002
3	0	4.421543953895889E+002	2.7166265E-001	-2.7035913E+002
3	0	4.426543953769578E+002	2.7127144E-001	-2.7036618E+002
3	0	4.431543953643268E+002	2.7089098E-001	-2.7036267E+002
3	0	4.436543953516957E+002	2.7050817E-001	-2.7036972E+002
3	0	4.441543953390646E+002	2.7012494E-001	-2.7035913E+002
3	0	4.446543953264336E+002	2.6975104E-001	-2.7037677E+002
3	0	4.451543953138025E+002	2.6935959E-001	-2.7040506E+002
3	0	4.456543953011715E+002	2.6895401E-001	-2.7038385E+002
3	0	4.461543952885404E+002	2.6858377E-001	-2.7037677E+002
3	0	4.466543952759093E+002	2.6823041E-001	-2.7039447E+002
3	0	4.471543952632783E+002	2.6787594E-001	-2.7039093E+002
3	0	4.476543952506472E+002	2.6752269E-001	-2.7038742E+002
3	0	4.481543952380162E+002	2.6717103E-001	-2.7037326E+002
3	0	4.486543952253851E+002	2.6682499E-001	-2.7035913E+002
3	0	4.491543952127540E+002	2.6645607E-001	-2.7038385E+002
3	0	4.496543952001230E+002	2.6607978E-001	-2.7037677E+002
3	0	4.501543951874919E+002	2.6573882E-001	-2.7035205E+002
3	0	4.501547951874818E+002	2.6559788E-001	-2.7036267E+002