EC-Lab ASCII FILE
Nb header lines : 55                          

Open Circuit Voltage

Run on channel : 1 (SN 81504)
User : 
CE vs. WE compliance from -10 V to 10 V
Electrode connection : standard
Potential control : Ewe
Ewe ctrl range : min = -2.50 V, max = 2.50 V
Safety Limits :
	Do not start on E overload
Acquisition started on : 05/08/2026 00:43:10.981
Loaded Setting File :  C:\PEM-WE_measurements\2026\372_IV_IV IrOx, 5 min Pt, 30 min C, etched cathode\new station\Loopeis new\1,46 V different time gaps open cell\Loopeis 1,46V_180s_4_PEIS from 650Hz to 100Hz.mps
Saved on :
	File : L_29_Loopeis 1,46V_180s_4_PEIS from 650Hz to 100Hz_18_OCV_C01.mpr
	Directory : C:\PEM-WE_measurements\2026\372_IV_IV IrOx, 5 min Pt, 30 min C, etched cathode\new station\Loopeis new\1,46 V different time gaps open cell\
	Host : 192.168.0.2
Device : SP-150e (SN .005491)
Address : 192.168.0.91
EC-LAB for windows v11.71 (software)
Internet server v28.00 (firmware)
Command interpretor v14.01 (firmware)
Electrode material : 
Initial state : 
Electrolyte : 
Comments : 
Current amplifier : SP-150eB-20A
Electrode surface area : 0.001 cm²
Characteristic mass : 0.001 g
Equivalent Weight : 0.000 g/eq.
Density : 0.000 g/cm3
Volume (V) : 0.001 cm³
Record Analogic IN 1
Text export
   Mode : Standard
   Time format : Elapsed
Cycle Definition : Charge/Discharge alternance
External device configuration :
   device type : Temperature Probe
   device name : Other
   Analog IN 1 : 
      unit : T/Â°C
      max : 100.000 at 2.000 V
      min : 0.000 at 1.460 V
tR (h:m:s)          0:03:0.0000         
dER/dt (mV/h)       1.0                 
record              <Ewe>               
dER (mV)            10.00               
dtR (s)             0.5000              
E range min (V)     -2.500              
E range max (V)     2.500               

mode	error	time/s	<Ewe/V>	Analog IN 1/V	
3	0	1.851500966759995E+003	1.2193688E+000	-2.7037677E+002
3	0	1.852000966747364E+003	1.1690538E+000	-2.7035205E+002
3	0	1.852500966734733E+003	7.9417419E-001	-2.7035913E+002
3	0	1.853000966722102E+003	4.1732955E-001	-2.7039447E+002
3	0	1.853500966709471E+003	3.4531382E-001	-2.7038031E+002
3	0	1.854000966696840E+003	3.3370927E-001	-2.7038385E+002
3	0	1.854500966684209E+003	3.2603335E-001	-2.7036618E+002
3	0	1.855000966671578E+003	3.1998605E-001	-2.7035205E+002
3	0	1.855500966658947E+003	3.1536567E-001	-2.7037677E+002
3	0	1.856000966646316E+003	3.1179368E-001	-2.7039801E+002
3	0	1.856500966633685E+003	3.0895886E-001	-2.7036972E+002
3	0	1.857000966621054E+003	3.0664787E-001	-2.7037677E+002
3	0	1.857500966608422E+003	3.0472228E-001	-2.7036972E+002
3	0	1.858000966595791E+003	3.0307016E-001	-2.7036267E+002
3	0	1.858500966583160E+003	3.0161488E-001	-2.7039093E+002
3	0	1.859000966570529E+003	3.0033261E-001	-2.7037677E+002
3	0	1.859500966557898E+003	2.9921687E-001	-2.7039447E+002
3	0	1.860000966545267E+003	2.9819727E-001	-2.7036972E+002
3	0	1.860500966532636E+003	2.9725808E-001	-2.7035559E+002
3	0	1.861000966520005E+003	2.9637891E-001	-2.7037326E+002
3	0	1.861500966507374E+003	2.9556078E-001	-2.7038742E+002
3	0	1.862000966494743E+003	2.9476303E-001	-2.7038742E+002
3	0	1.862500966482112E+003	2.9398787E-001	-2.7038031E+002
3	0	1.863000966469481E+003	2.9325646E-001	-2.7039447E+002
3	0	1.863500966456850E+003	2.9258108E-001	-2.7040155E+002
3	0	1.864000966444219E+003	2.9192212E-001	-2.7037326E+002
3	0	1.864500966431588E+003	2.9127246E-001	-2.7038385E+002
3	0	1.865000966418957E+003	2.9065049E-001	-2.7035559E+002
3	0	1.865500966406325E+003	2.9004154E-001	-2.7037677E+002
3	0	1.866000966393694E+003	2.8942323E-001	-2.7037326E+002
3	0	1.866500966381063E+003	2.8880513E-001	-2.7036618E+002
3	0	1.867000966368432E+003	2.8820869E-001	-2.7035205E+002
3	0	1.867500966355801E+003	2.8764880E-001	-2.7039801E+002
3	0	1.868000966343170E+003	2.8709522E-001	-2.7039093E+002
3	0	1.868500966330539E+003	2.8654727E-001	-2.7035913E+002
3	0	1.869000966317908E+003	2.8601018E-001	-2.7037326E+002
3	0	1.869500966305277E+003	2.8547969E-001	-2.7038031E+002
3	0	1.870000966292646E+003	2.8493851E-001	-2.7039801E+002
3	0	1.870500966280015E+003	2.8438920E-001	-2.7038385E+002
3	0	1.871000966267384E+003	2.8385437E-001	-2.7038385E+002
3	0	1.871500966254753E+003	2.8336045E-001	-2.7038031E+002
3	0	1.872000966242122E+003	2.8285792E-001	-2.7039447E+002
3	0	1.872500966229491E+003	2.8236574E-001	-2.7034497E+002
3	0	1.873000966216860E+003	2.8188148E-001	-2.7039801E+002
3	0	1.873500966204228E+003	2.8139958E-001	-2.7035913E+002
3	0	1.874000966191597E+003	2.8090629E-001	-2.7035205E+002
3	0	1.874500966178966E+003	2.8039363E-001	-2.7038742E+002
3	0	1.875000966166335E+003	2.7990958E-001	-2.7036972E+002
3	0	1.875500966153704E+003	2.7945465E-001	-2.7038385E+002
3	0	1.876000966141073E+003	2.7899817E-001	-2.7041214E+002
3	0	1.876500966128442E+003	2.7854663E-001	-2.7036618E+002
3	0	1.877000966115811E+003	2.7810284E-001	-2.7036972E+002
3	0	1.877500966103180E+003	2.7765113E-001	-2.7037326E+002
3	0	1.878000966090549E+003	2.7720219E-001	-2.7039447E+002
3	0	1.878500966077918E+003	2.7673370E-001	-2.7038385E+002
3	0	1.879000966065287E+003	2.7627951E-001	-2.7038031E+002
3	0	1.879500966052656E+003	2.7586809E-001	-2.7038031E+002
3	0	1.880000966040025E+003	2.7544811E-001	-2.7038385E+002
3	0	1.880500966027394E+003	2.7502882E-001	-2.7039093E+002
3	0	1.881000966014763E+003	2.7462929E-001	-2.7037326E+002
3	0	1.881500966002131E+003	2.7422255E-001	-2.7037326E+002
3	0	1.882000965989500E+003	2.7379861E-001	-2.7036972E+002
3	0	1.882500965976869E+003	2.7336448E-001	-2.7039447E+002
3	0	1.883000965964238E+003	2.7294442E-001	-2.7039093E+002
3	0	1.883500965951607E+003	2.7255800E-001	-2.7036972E+002
3	0	1.884000965938976E+003	2.7217445E-001	-2.7040860E+002
3	0	1.884500965926345E+003	2.7178916E-001	-2.7038031E+002
3	0	1.885000965913714E+003	2.7140257E-001	-2.7038031E+002
3	0	1.885500965901083E+003	2.7102563E-001	-2.7038385E+002
3	0	1.886000965888452E+003	2.7063859E-001	-2.7037326E+002
3	0	1.886500965875821E+003	2.7023149E-001	-2.7036267E+002
3	0	1.887000965863190E+003	2.6984581E-001	-2.7038385E+002
3	0	1.887500965850559E+003	2.6949942E-001	-2.7039801E+002
3	0	1.888000965837928E+003	2.6914570E-001	-2.7035205E+002
3	0	1.888500965825297E+003	2.6879784E-001	-2.7038031E+002
3	0	1.889000965812666E+003	2.6844198E-001	-2.7039093E+002
3	0	1.889500965800034E+003	2.6809564E-001	-2.7037677E+002
3	0	1.890000965787403E+003	2.6773539E-001	-2.7036972E+002
3	0	1.890500965774772E+003	2.6736221E-001	-2.7038742E+002
3	0	1.891000965762141E+003	2.6700914E-001	-2.7037677E+002
3	0	1.891500965749510E+003	2.6668817E-001	-2.7035205E+002
3	0	1.892000965736879E+003	2.6635933E-001	-2.7038742E+002
3	0	1.892500965724248E+003	2.6603684E-001	-2.7040506E+002
3	0	1.893000965711617E+003	2.6572001E-001	-2.7038742E+002
3	0	1.893500965698986E+003	2.6539934E-001	-2.7038031E+002
3	0	1.894000965686355E+003	2.6506573E-001	-2.7036618E+002
3	0	1.894500965673724E+003	2.6472390E-001	-2.7038385E+002
3	0	1.895000965661093E+003	2.6440725E-001	-2.7034143E+002
3	0	1.895500965648462E+003	2.6410797E-001	-2.7037326E+002
3	0	1.896000965635831E+003	2.6381159E-001	-2.7039801E+002
3	0	1.896500965623200E+003	2.6352090E-001	-2.7038031E+002
3	0	1.897000965610569E+003	2.6323053E-001	-2.7039801E+002
3	0	1.897500965597937E+003	2.6293948E-001	-2.7037677E+002
3	0	1.898000965585306E+003	2.6264063E-001	-2.7039801E+002
3	0	1.898500965572675E+003	2.6231310E-001	-2.7036267E+002
3	0	1.899000965560044E+003	2.6201990E-001	-2.7040155E+002
3	0	1.899500965547413E+003	2.6174495E-001	-2.7036618E+002
3	0	1.900000965534782E+003	2.6147398E-001	-2.7036618E+002
3	0	1.900500965522151E+003	2.6120311E-001	-2.7039093E+002
3	0	1.901000965509520E+003	2.6093653E-001	-2.7038385E+002
3	0	1.901500965496889E+003	2.6066652E-001	-2.7038031E+002
3	0	1.902000965484258E+003	2.6038641E-001	-2.7034851E+002
3	0	1.902500965471627E+003	2.6009133E-001	-2.7035559E+002
3	0	1.903000965458996E+003	2.5981113E-001	-2.7038031E+002
3	0	1.903500965446365E+003	2.5956929E-001	-2.7036972E+002
3	0	1.904000965433734E+003	2.5932091E-001	-2.7036267E+002
3	0	1.904500965421103E+003	2.5907630E-001	-2.7038742E+002
3	0	1.905000965408472E+003	2.5883344E-001	-2.7038742E+002
3	0	1.905500965395840E+003	2.5857285E-001	-2.7036972E+002
3	0	1.906000965383209E+003	2.5831664E-001	-2.7034851E+002
3	0	1.906500965370578E+003	2.5803843E-001	-2.7035559E+002
3	0	1.907000965357947E+003	2.5777990E-001	-2.7037677E+002
3	0	1.907500965345316E+003	2.5755280E-001	-2.7036267E+002
3	0	1.908000965332685E+003	2.5731990E-001	-2.7035559E+002
3	0	1.908500965320054E+003	2.5709137E-001	-2.7036267E+002
3	0	1.909000965307423E+003	2.5686505E-001	-2.7038742E+002
3	0	1.909500965294792E+003	2.5662956E-001	-2.7036972E+002
3	0	1.910000965282161E+003	2.5636759E-001	-2.7039801E+002
3	0	1.910500965269530E+003	2.5612333E-001	-2.7038742E+002
3	0	1.911000965256899E+003	2.5589970E-001	-2.7038385E+002
3	0	1.911500965244268E+003	2.5569573E-001	-2.7040155E+002
3	0	1.912000965231637E+003	2.5549757E-001	-2.7038742E+002
3	0	1.912500965219006E+003	2.5528839E-001	-2.7040155E+002
3	0	1.913000965206375E+003	2.5507748E-001	-2.7039447E+002
3	0	1.913500965193743E+003	2.5486177E-001	-2.7037677E+002
3	0	1.914000965181112E+003	2.5463340E-001	-2.7037677E+002
3	0	1.914500965168481E+003	2.5439787E-001	-2.7039447E+002
3	0	1.915000965155850E+003	2.5418445E-001	-2.7038385E+002
3	0	1.915500965143219E+003	2.5400516E-001	-2.7038031E+002
3	0	1.916000965130588E+003	2.5382239E-001	-2.7039093E+002
3	0	1.916500965117957E+003	2.5363249E-001	-2.7037677E+002
3	0	1.917000965105326E+003	2.5344229E-001	-2.7039801E+002
3	0	1.917500965092695E+003	2.5324878E-001	-2.7035913E+002
3	0	1.918000965080064E+003	2.5304392E-001	-2.7035913E+002
3	0	1.918500965067433E+003	2.5281432E-001	-2.7040506E+002
3	0	1.919000965054802E+003	2.5260273E-001	-2.7037677E+002
3	0	1.919500965042171E+003	2.5243703E-001	-2.7036972E+002
3	0	1.920000965029540E+003	2.5226805E-001	-2.7038031E+002
3	0	1.920500965016909E+003	2.5208789E-001	-2.7037326E+002
3	0	1.921000965004278E+003	2.5190809E-001	-2.7037677E+002
3	0	1.921500964991646E+003	2.5172988E-001	-2.7038742E+002
3	0	1.922000964979015E+003	2.5153390E-001	-2.7035913E+002
3	0	1.922500964966384E+003	2.5132409E-001	-2.7038031E+002
3	0	1.923000964953753E+003	2.5113121E-001	-2.7040860E+002
3	0	1.923500964941122E+003	2.5097433E-001	-2.7037677E+002
3	0	1.924000964928491E+003	2.5081050E-001	-2.7037677E+002
3	0	1.924500964915860E+003	2.5064486E-001	-2.7035205E+002
3	0	1.925000964903229E+003	2.5048554E-001	-2.7038742E+002
3	0	1.925500964890598E+003	2.5031340E-001	-2.7040155E+002
3	0	1.926000964877967E+003	2.5011882E-001	-2.7037677E+002
3	0	1.926500964865336E+003	2.4992304E-001	-2.7040155E+002
3	0	1.927000964852705E+003	2.4974605E-001	-2.7039447E+002
3	0	1.927500964840074E+003	2.4960020E-001	-2.7040860E+002
3	0	1.928000964827443E+003	2.4945766E-001	-2.7038742E+002
3	0	1.928500964814812E+003	2.4930841E-001	-2.7038031E+002
3	0	1.929000964802181E+003	2.4915773E-001	-2.7038385E+002
3	0	1.929500964789549E+003	2.4900541E-001	-2.7038742E+002
3	0	1.930000964776918E+003	2.4883175E-001	-2.7036972E+002
3	0	1.930500964764287E+003	2.4863939E-001	-2.7037677E+002
3	0	1.931000964751656E+003	2.4847536E-001	-2.7038742E+002
3	0	1.931500964739025E+003	2.4834114E-001	-2.7037677E+002
3	0	1.932000964726394E+003	2.4820827E-001	-2.7040506E+002
3	0	1.932500964713763E+003	2.4806824E-001	-2.7039447E+002
3	0	1.933000964701132E+003	2.4793148E-001	-2.7036972E+002
3	0	1.933500964688501E+003	2.4779229E-001	-2.7036972E+002
3	0	1.934000964675870E+003	2.4763349E-001	-2.7036972E+002
3	0	1.934500964663239E+003	2.4745101E-001	-2.7037326E+002
3	0	1.935000964650608E+003	2.4728844E-001	-2.7038385E+002
3	0	1.935500964637977E+003	2.4716766E-001	-2.7038385E+002
3	0	1.936000964625346E+003	2.4704874E-001	-2.7039447E+002
3	0	1.936500964612715E+003	2.4691744E-001	-2.7040506E+002
3	0	1.937000964600084E+003	2.4679013E-001	-2.7037326E+002
3	0	1.937500964587452E+003	2.4665849E-001	-2.7039447E+002
3	0	1.938000964574821E+003	2.4650897E-001	-2.7036618E+002
3	0	1.938500964562190E+003	2.4634139E-001	-2.7037326E+002
3	0	1.939000964549559E+003	2.4619061E-001	-2.7040860E+002
3	0	1.939500964536928E+003	2.4608061E-001	-2.7040860E+002
3	0	1.940000964524297E+003	2.4597043E-001	-2.7038031E+002
3	0	1.940500964511666E+003	2.4585260E-001	-2.7039447E+002
3	0	1.941000964499035E+003	2.4573536E-001	-2.7037677E+002
3	0	1.941500964486404E+003	2.4561685E-001	-2.7038031E+002
3	0	1.942000964473773E+003	2.4547452E-001	-2.7034497E+002
3	0	1.942500964461142E+003	2.4531308E-001	-2.7036267E+002
3	0	1.943000964448511E+003	2.4517037E-001	-2.7038385E+002
3	0	1.943500964435880E+003	2.4505766E-001	-2.7036972E+002
3	0	1.944000964423249E+003	2.4494876E-001	-2.7038742E+002
3	0	1.944500964410618E+003	2.4483526E-001	-2.7039093E+002
3	0	1.945000964397987E+003	2.4471593E-001	-2.7038031E+002
3	0	1.945500964385355E+003	2.4460152E-001	-2.7038742E+002
3	0	1.946000964372724E+003	2.4446300E-001	-2.7039447E+002
3	0	1.946500964360093E+003	2.4430837E-001	-2.7038385E+002
3	0	1.947000964347462E+003	2.4416320E-001	-2.7040506E+002
3	0	1.947500964334831E+003	2.4406341E-001	-2.7036972E+002
3	0	1.948000964322200E+003	2.4395949E-001	-2.7036267E+002
3	0	1.948500964309569E+003	2.4385367E-001	-2.7035913E+002
3	0	1.949000964296938E+003	2.4374625E-001	-2.7036267E+002
3	0	1.949500964284307E+003	2.4363010E-001	-2.7035205E+002
3	0	1.950000964271676E+003	2.4350624E-001	-2.7035913E+002
3	0	1.950500964259045E+003	2.4335955E-001	-2.7036618E+002
3	0	1.951000964246414E+003	2.4323609E-001	-2.7038385E+002
3	0	1.951500964233783E+003	2.4314417E-001	-2.7038742E+002
3	0	1.952000964221152E+003	2.4305727E-001	-2.7037677E+002
3	0	1.952500964208521E+003	2.4295707E-001	-2.7035559E+002
3	0	1.953000964195890E+003	2.4285689E-001	-2.7038742E+002
3	0	1.953500964183258E+003	2.4275474E-001	-2.7037326E+002
3	0	1.954000964170627E+003	2.4263068E-001	-2.7038385E+002
3	0	1.954500964157996E+003	2.4248494E-001	-2.7036618E+002
3	0	1.955000964145365E+003	2.4236071E-001	-2.7040860E+002
3	0	1.955500964132734E+003	2.4227118E-001	-2.7037326E+002
3	0	1.956000964120103E+003	2.4218573E-001	-2.7038385E+002
3	0	1.956500964107472E+003	2.4209513E-001	-2.7036972E+002
3	0	1.957000964094841E+003	2.4200144E-001	-2.7036618E+002
3	0	1.957500964082210E+003	2.4191859E-001	-2.7037677E+002
3	0	1.958000964069579E+003	2.4180409E-001	-2.7036618E+002
3	0	1.958500964056948E+003	2.4166903E-001	-2.7036267E+002
3	0	1.959000964044317E+003	2.4154711E-001	-2.7036267E+002
3	0	1.959500964031686E+003	2.4146780E-001	-2.7037326E+002
3	0	1.960000964019055E+003	2.4138883E-001	-2.7038031E+002
3	0	1.960500964006424E+003	2.4130048E-001	-2.7037677E+002
3	0	1.961000963993793E+003	2.4121100E-001	-2.7034497E+002
3	0	1.961500963981161E+003	2.4112076E-001	-2.7037326E+002
3	0	1.962000963968530E+003	2.4101631E-001	-2.7037326E+002
3	0	1.962500963955899E+003	2.4088307E-001	-2.7035559E+002
3	0	1.963000963943268E+003	2.4076693E-001	-2.7039801E+002
3	0	1.963500963930637E+003	2.4069177E-001	-2.7038385E+002
3	0	1.964000963918006E+003	2.4062011E-001	-2.7041214E+002
3	0	1.964500963905375E+003	2.4053226E-001	-2.7038742E+002
3	0	1.965000963892744E+003	2.4044152E-001	-2.7039093E+002
3	0	1.965500963880113E+003	2.4035241E-001	-2.7039093E+002
3	0	1.966000963867482E+003	2.4024621E-001	-2.7039447E+002
3	0	1.966500963854851E+003	2.4010792E-001	-2.7038385E+002
3	0	1.967000963842220E+003	2.3999304E-001	-2.7038385E+002
3	0	1.967500963829589E+003	2.3992126E-001	-2.7036267E+002
3	0	1.968000963816958E+003	2.3984742E-001	-2.7038385E+002
3	0	1.968500963804327E+003	2.3976523E-001	-2.7038031E+002
3	0	1.969000963791696E+003	2.3968554E-001	-2.7038031E+002
3	0	1.969500963779064E+003	2.3960604E-001	-2.7038385E+002
3	0	1.970000963766433E+003	2.3950011E-001	-2.7038742E+002
3	0	1.970500963753802E+003	2.3937255E-001	-2.7038742E+002
3	0	1.971000963741171E+003	2.3925966E-001	-2.7039801E+002
3	0	1.971500963728540E+003	2.3919126E-001	-2.7038385E+002
3	0	1.972000963715909E+003	2.3912589E-001	-2.7036972E+002
3	0	1.972500963703278E+003	2.3905335E-001	-2.7035559E+002
3	0	1.973000963690647E+003	2.3897935E-001	-2.7034143E+002
3	0	1.973500963678016E+003	2.3890249E-001	-2.7038385E+002
3	0	1.974000963665385E+003	2.3879758E-001	-2.7039447E+002
3	0	1.974500963652754E+003	2.3868304E-001	-2.7038385E+002
3	0	1.975000963640123E+003	2.3857826E-001	-2.7037326E+002
3	0	1.975500963627492E+003	2.3851158E-001	-2.7039801E+002
3	0	1.976000963614861E+003	2.3844743E-001	-2.7038385E+002
3	0	1.976500963602230E+003	2.3838100E-001	-2.7037326E+002
3	0	1.977000963589599E+003	2.3831439E-001	-2.7037677E+002
3	0	1.977500963576967E+003	2.3824459E-001	-2.7037326E+002
3	0	1.978000963564336E+003	2.3814847E-001	-2.7035913E+002
3	0	1.978500963551705E+003	2.3803763E-001	-2.7037326E+002
3	0	1.979000963539074E+003	2.3793896E-001	-2.7038742E+002
3	0	1.979500963526443E+003	2.3787425E-001	-2.7036972E+002
3	0	1.980000963513812E+003	2.3780809E-001	-2.7038385E+002
3	0	1.980500963501181E+003	2.3774737E-001	-2.7037326E+002
3	0	1.981000963488550E+003	2.3767997E-001	-2.7039447E+002
3	0	1.981500963475919E+003	2.3761103E-001	-2.7037677E+002
3	0	1.982000963463288E+003	2.3752056E-001	-2.7038742E+002
3	0	1.982500963450657E+003	2.3740660E-001	-2.7036618E+002
3	0	1.983000963438026E+003	2.3730646E-001	-2.7038031E+002
3	0	1.983500963425395E+003	2.3724672E-001	-2.7038385E+002
3	0	1.984000963412764E+003	2.3718458E-001	-2.7037677E+002
3	0	1.984500963400133E+003	2.3712222E-001	-2.7037326E+002
3	0	1.985000963387502E+003	2.3705192E-001	-2.7040155E+002
3	0	1.985500963374870E+003	2.3698118E-001	-2.7036618E+002
3	0	1.986000963362239E+003	2.3688512E-001	-2.7037677E+002
3	0	1.986500963349608E+003	2.3677482E-001	-2.7039447E+002
3	0	1.987000963336977E+003	2.3667175E-001	-2.7036972E+002
3	0	1.987500963324346E+003	2.3661168E-001	-2.7036972E+002
3	0	1.988000963311715E+003	2.3655587E-001	-2.7039801E+002
3	0	1.988500963299084E+003	2.3649386E-001	-2.7039801E+002
3	0	1.989000963286453E+003	2.3642389E-001	-2.7036972E+002
3	0	1.989500963273822E+003	2.3634784E-001	-2.7034497E+002
3	0	1.990000963261191E+003	2.3626336E-001	-2.7038385E+002
3	0	1.990500963248560E+003	2.3615403E-001	-2.7036618E+002
3	0	1.991000963235929E+003	2.3605846E-001	-2.7037677E+002
3	0	1.991500963223298E+003	2.3600468E-001	-2.7036972E+002
3	0	1.992000963210667E+003	2.3595153E-001	-2.7035913E+002
3	0	1.992500963198036E+003	2.3589371E-001	-2.7040155E+002
3	0	1.993000963185405E+003	2.3583238E-001	-2.7038031E+002
3	0	1.993500963172773E+003	2.3578028E-001	-2.7036618E+002
3	0	1.994000963160142E+003	2.3570050E-001	-2.7039801E+002
3	0	1.994500963147511E+003	2.3559491E-001	-2.7038031E+002
3	0	1.995000963134880E+003	2.3550627E-001	-2.7040155E+002
3	0	1.995500963122249E+003	2.3545702E-001	-2.7037326E+002
3	0	1.996000963109618E+003	2.3540795E-001	-2.7038385E+002
3	0	1.996500963096987E+003	2.3535530E-001	-2.7038742E+002
3	0	1.997000963084356E+003	2.3529881E-001	-2.7040155E+002
3	0	1.997500963071725E+003	2.3524000E-001	-2.7037677E+002
3	0	1.998000963059094E+003	2.3516200E-001	-2.7039801E+002
3	0	1.998500963046463E+003	2.3505490E-001	-2.7038031E+002
3	0	1.999000963033832E+003	2.3496675E-001	-2.7037677E+002
3	0	1.999500963021201E+003	2.3491688E-001	-2.7036267E+002
3	0	2.000000963008570E+003	2.3486964E-001	-2.7036972E+002
3	0	2.000500962995939E+003	2.3481320E-001	-2.7038385E+002
3	0	2.001000962983308E+003	2.3476379E-001	-2.7038385E+002
3	0	2.001500962970676E+003	2.3470902E-001	-2.7039447E+002
3	0	2.002000962958045E+003	2.3462574E-001	-2.7036618E+002
3	0	2.002500962945414E+003	2.3452276E-001	-2.7038742E+002
3	0	2.003000962932783E+003	2.3444264E-001	-2.7038742E+002
3	0	2.003500962920152E+003	2.3439433E-001	-2.7035913E+002
3	0	2.004000962907521E+003	2.3435184E-001	-2.7038031E+002
3	0	2.004500962894890E+003	2.3429669E-001	-2.7038742E+002
3	0	2.005000962882259E+003	2.3424013E-001	-2.7040155E+002
3	0	2.005500962869628E+003	2.3418289E-001	-2.7038385E+002
3	0	2.006000962856997E+003	2.3410477E-001	-2.7039093E+002
3	0	2.006500962844366E+003	2.3400331E-001	-2.7037326E+002
3	0	2.007000962831735E+003	2.3391637E-001	-2.7037677E+002
3	0	2.007500962819104E+003	2.3386399E-001	-2.7037677E+002
3	0	2.008000962806473E+003	2.3381466E-001	-2.7035559E+002
3	0	2.008500962793842E+003	2.3376131E-001	-2.7038031E+002
3	0	2.009000962781211E+003	2.3370853E-001	-2.7036267E+002
3	0	2.009500962768579E+003	2.3364727E-001	-2.7036972E+002
3	0	2.010000962755948E+003	2.3357166E-001	-2.7040155E+002
3	0	2.010500962743317E+003	2.3347276E-001	-2.7037677E+002
3	0	2.011000962730686E+003	2.3338734E-001	-2.7037326E+002
3	0	2.011500962718055E+003	2.3334607E-001	-2.7038031E+002
3	0	2.012000962705424E+003	2.3330568E-001	-2.7038385E+002
3	0	2.012500962692793E+003	2.3325802E-001	-2.7039093E+002
3	0	2.013000962680162E+003	2.3321639E-001	-2.7039801E+002
3	0	2.013500962667531E+003	2.3315516E-001	-2.7036618E+002
3	0	2.014000962654900E+003	2.3307940E-001	-2.7040506E+002
3	0	2.014500962642269E+003	2.3297958E-001	-2.7037326E+002
3	0	2.015000962629638E+003	2.3289832E-001	-2.7036618E+002
3	0	2.015500962617007E+003	2.3285441E-001	-2.7036618E+002
3	0	2.016000962604376E+003	2.3281835E-001	-2.7038742E+002
3	0	2.016500962591745E+003	2.3276754E-001	-2.7039801E+002
3	0	2.017000962579114E+003	2.3272295E-001	-2.7039093E+002
3	0	2.017500962566482E+003	2.3267171E-001	-2.7038031E+002
3	0	2.018000962553851E+003	2.3260561E-001	-2.7042273E+002
3	0	2.018500962541220E+003	2.3250841E-001	-2.7040155E+002
3	0	2.019000962528589E+003	2.3243095E-001	-2.7036618E+002
3	0	2.019500962515958E+003	2.3239122E-001	-2.7035559E+002
3	0	2.020000962503327E+003	2.3235482E-001	-2.7037677E+002
3	0	2.020500962490696E+003	2.3230904E-001	-2.7035205E+002
3	0	2.021000962478065E+003	2.3226243E-001	-2.7039447E+002
3	0	2.021500962465434E+003	2.3221534E-001	-2.7038742E+002
3	0	2.022000962452803E+003	2.3214325E-001	-2.7034851E+002
3	0	2.022500962440172E+003	2.3206109E-001	-2.7034851E+002
3	0	2.023000962427541E+003	2.3198451E-001	-2.7035559E+002
3	0	2.023500962414910E+003	2.3194245E-001	-2.7037326E+002
3	0	2.024000962402279E+003	2.3190743E-001	-2.7036267E+002
3	0	2.024500962389648E+003	2.3186351E-001	-2.7038031E+002
3	0	2.025000962377017E+003	2.3181716E-001	-2.7040155E+002
3	0	2.025500962364385E+003	2.3176894E-001	-2.7039093E+002
3	0	2.026000962351754E+003	2.3169467E-001	-2.7036618E+002
3	0	2.026500962339123E+003	2.3159452E-001	-2.7038742E+002
3	0	2.027000962326492E+003	2.3151681E-001	-2.7036618E+002
3	0	2.027500962313861E+003	2.3147389E-001	-2.7037677E+002
3	0	2.028000962301230E+003	2.3142596E-001	-2.7039447E+002
3	0	2.028500962288599E+003	2.3137830E-001	-2.7039447E+002
3	0	2.029000962275968E+003	2.3133309E-001	-2.7039093E+002
3	0	2.029500962263337E+003	2.3127840E-001	-2.7037326E+002
3	0	2.030000962250706E+003	2.3120761E-001	-2.7037677E+002
3	0	2.030500962238075E+003	2.3111793E-001	-2.7037326E+002
3	0	2.031000962225444E+003	2.3103963E-001	-2.7038031E+002
3	0	2.031001362225434E+003	2.3094159E-001	-2.7039093E+002