EC-Lab ASCII FILE
Nb header lines : 55                          

Open Circuit Voltage

Run on channel : 1 (SN 81504)
User : 
CE vs. WE compliance from -10 V to 10 V
Electrode connection : standard
Potential control : Ewe
Ewe ctrl range : min = -2.50 V, max = 2.50 V
Safety Limits :
	Do not start on E overload
Acquisition started on : 05/10/2026 01:27:16.117
Loaded Setting File :  C:\PEM-WE_measurements\2026\372_IV_IV IrOx, 5 min Pt, 30 min C, etched cathode\new station\Loopeis new\1,46 V different time gaps closed cell\Loopeis 1,46V_45s_5_PEIS from 65Hz to 10Hz.mps
Saved on :
	File : L_10_Loopeis 1,46V_45s_5_PEIS from 65Hz to 10Hz_20_OCV_C01.mpr
	Directory : C:\PEM-WE_measurements\2026\372_IV_IV IrOx, 5 min Pt, 30 min C, etched cathode\new station\Loopeis new\1,46 V different time gaps closed cell\
	Host : 192.168.0.2
Device : SP-150e (SN .005491)
Address : 192.168.0.91
EC-LAB for windows v11.71 (software)
Internet server v28.00 (firmware)
Command interpretor v14.01 (firmware)
Electrode material : 
Initial state : 
Electrolyte : 
Comments : 
Current amplifier : SP-150eB-20A
Electrode surface area : 0.001 cm²
Characteristic mass : 0.001 g
Equivalent Weight : 0.000 g/eq.
Density : 0.000 g/cm3
Volume (V) : 0.001 cm³
Record Analogic IN 1
Text export
   Mode : Standard
   Time format : Elapsed
Cycle Definition : Charge/Discharge alternance
External device configuration :
   device type : Temperature Probe
   device name : Other
   Analog IN 1 : 
      unit : T/Â°C
      max : 100.000 at 2.000 V
      min : 0.000 at 1.460 V
tR (h:m:s)          0:00:45.0000        
dER/dt (mV/h)       1.0                 
record              <Ewe>               
dER (mV)            10.00               
dtR (s)             0.5000              
E range min (V)     -2.500              
E range max (V)     2.500               

mode	error	time/s	<Ewe/V>	Analog IN 1/V	
3	0	1.348786618190206E+003	1.2291312E+000	-2.7037677E+002
3	0	1.349286618177575E+003	1.2400439E+000	-2.7037326E+002
3	0	1.349786618164944E+003	1.2448472E+000	-2.7039093E+002
3	0	1.350286618152313E+003	1.2477460E+000	-2.7039801E+002
3	0	1.350786618139682E+003	1.2497991E+000	-2.7036972E+002
3	0	1.351286618127051E+003	1.2513514E+000	-2.7038031E+002
3	0	1.351786618114420E+003	1.2525599E+000	-2.7037677E+002
3	0	1.352286618101789E+003	1.2535150E+000	-2.7037677E+002
3	0	1.352786618089158E+003	1.2542876E+000	-2.7036618E+002
3	0	1.353286618076527E+003	1.2549005E+000	-2.7039093E+002
3	0	1.353786618063896E+003	1.2553486E+000	-2.7037677E+002
3	0	1.354286618051265E+003	1.2556713E+000	-2.7041214E+002
3	0	1.354786618038634E+003	1.2559818E+000	-2.7040155E+002
3	0	1.355286618026003E+003	1.2562596E+000	-2.7037326E+002
3	0	1.355786618013371E+003	1.2564899E+000	-2.7034143E+002
3	0	1.356286618000740E+003	1.2566841E+000	-2.7037326E+002
3	0	1.356786617988109E+003	1.2568508E+000	-2.7036972E+002
3	0	1.357286617975478E+003	1.2569762E+000	-2.7040155E+002
3	0	1.357786617962847E+003	1.2570257E+000	-2.7037677E+002
3	0	1.358286617950216E+003	1.2570015E+000	-2.7037326E+002
3	0	1.358786617937585E+003	1.2570345E+000	-2.7038385E+002
3	0	1.359286617924954E+003	1.2570761E+000	-2.7038742E+002
3	0	1.359786617912323E+003	1.2571088E+000	-2.7039093E+002
3	0	1.360286617899692E+003	1.2571231E+000	-2.7039093E+002
3	0	1.360786617887061E+003	1.2571352E+000	-2.7036618E+002
3	0	1.361286617874430E+003	1.2571046E+000	-2.7039093E+002
3	0	1.361786617861799E+003	1.2570171E+000	-2.7037326E+002
3	0	1.362286617849168E+003	1.2568753E+000	-2.7038385E+002
3	0	1.362786617836537E+003	1.2567923E+000	-2.7038742E+002
3	0	1.363286617823906E+003	1.2567331E+000	-2.7037326E+002
3	0	1.363786617811274E+003	1.2566767E+000	-2.7036972E+002
3	0	1.364286617798643E+003	1.2566061E+000	-2.7038031E+002
3	0	1.364786617786012E+003	1.2565360E+000	-2.7035913E+002
3	0	1.365286617773381E+003	1.2564338E+000	-2.7039447E+002
3	0	1.365786617760750E+003	1.2562615E+000	-2.7037677E+002
3	0	1.366286617748119E+003	1.2560416E+000	-2.7038385E+002
3	0	1.366786617735488E+003	1.2558867E+000	-2.7036972E+002
3	0	1.367286617722857E+003	1.2557541E+000	-2.7037326E+002
3	0	1.367786617710226E+003	1.2556129E+000	-2.7036618E+002
3	0	1.368286617697595E+003	1.2554740E+000	-2.7038385E+002
3	0	1.368786617684964E+003	1.2553341E+000	-2.7038385E+002
3	0	1.369286617672333E+003	1.2551700E+000	-2.7036267E+002
3	0	1.369786617659702E+003	1.2549434E+000	-2.7036618E+002
3	0	1.370286617647071E+003	1.2546583E+000	-2.7035913E+002
3	0	1.370786617634440E+003	1.2544419E+000	-2.7040506E+002
3	0	1.371286617621809E+003	1.2542554E+000	-2.7038742E+002
3	0	1.371786617609177E+003	1.2540578E+000	-2.7036267E+002
3	0	1.372286617596546E+003	1.2538539E+000	-2.7036267E+002
3	0	1.372786617583915E+003	1.2536426E+000	-2.7038385E+002
3	0	1.373286617571284E+003	1.2534010E+000	-2.7037677E+002
3	0	1.373786617558653E+003	1.2531123E+000	-2.7039801E+002
3	0	1.374286617546022E+003	1.2527688E+000	-2.7037326E+002
3	0	1.374786617533391E+003	1.2524936E+000	-2.7035913E+002
3	0	1.375286617520760E+003	1.2522638E+000	-2.7036267E+002
3	0	1.375786617508129E+003	1.2520324E+000	-2.7040506E+002
3	0	1.376286617495498E+003	1.2518047E+000	-2.7040506E+002
3	0	1.376786617482867E+003	1.2515781E+000	-2.7036618E+002
3	0	1.377286617470236E+003	1.2513280E+000	-2.7039447E+002
3	0	1.377786617457605E+003	1.2510265E+000	-2.7035559E+002
3	0	1.378286617444974E+003	1.2506685E+000	-2.7036972E+002
3	0	1.378786617432343E+003	1.2503937E+000	-2.7038385E+002
3	0	1.379286617419712E+003	1.2501379E+000	-2.7039447E+002
3	0	1.379786617407080E+003	1.2498870E+000	-2.7037677E+002
3	0	1.380286617394449E+003	1.2496341E+000	-2.7037326E+002
3	0	1.380786617381818E+003	1.2493839E+000	-2.7040155E+002
3	0	1.381286617369187E+003	1.2491119E+000	-2.7037677E+002
3	0	1.381786617356556E+003	1.2487680E+000	-2.7037326E+002
3	0	1.382286617343925E+003	1.2483708E+000	-2.7037326E+002
3	0	1.382786617331294E+003	1.2480531E+000	-2.7040860E+002
3	0	1.383286617318663E+003	1.2477660E+000	-2.7037677E+002
3	0	1.383786617306032E+003	1.2474735E+000	-2.7039093E+002
3	0	1.384286617293401E+003	1.2471683E+000	-2.7038742E+002
3	0	1.384786617280770E+003	1.2468677E+000	-2.7037326E+002
3	0	1.385286617268139E+003	1.2465423E+000	-2.7038385E+002
3	0	1.385786617255508E+003	1.2461492E+000	-2.7039801E+002
3	0	1.386286617242877E+003	1.2457083E+000	-2.7035913E+002
3	0	1.386786617230246E+003	1.2453386E+000	-2.7035205E+002
3	0	1.387286617217615E+003	1.2450063E+000	-2.7037677E+002
3	0	1.387786617204983E+003	1.2446742E+000	-2.7039447E+002
3	0	1.388286617192352E+003	1.2443407E+000	-2.7038742E+002
3	0	1.388786617179721E+003	1.2440102E+000	-2.7038742E+002
3	0	1.389286617167090E+003	1.2436587E+000	-2.7038385E+002
3	0	1.389786617154459E+003	1.2432477E+000	-2.7038742E+002
3	0	1.390286617141828E+003	1.2427845E+000	-2.7034851E+002
3	0	1.390786617129197E+003	1.2424002E+000	-2.7035559E+002
3	0	1.391286617116566E+003	1.2420387E+000	-2.7039447E+002
3	0	1.391786617103935E+003	1.2416753E+000	-2.7037326E+002
3	0	1.392286617091304E+003	1.2413117E+000	-2.7037677E+002
3	0	1.392786617078673E+003	1.2409463E+000	-2.7037677E+002
3	0	1.393286617066042E+003	1.2405663E+000	-2.7036972E+002
3	0	1.393311217065420E+003	1.2403414E+000	-2.7039801E+002