EC-Lab ASCII FILE
Nb header lines : 55                          

Open Circuit Voltage

Run on channel : 1 (SN 81504)
User : 
CE vs. WE compliance from -10 V to 10 V
Electrode connection : standard
Potential control : Ewe
Ewe ctrl range : min = -2.50 V, max = 2.50 V
Safety Limits :
	Do not start on E overload
Acquisition started on : 05/08/2026 00:05:30.308
Loaded Setting File :  C:\PEM-WE_measurements\2026\372_IV_IV IrOx, 5 min Pt, 30 min C, etched cathode\new station\Loopeis new\1,46 V different time gaps open cell\Loopeis 1,46V_180s_3_PEIS from 6500Hz to 1000Hz.mps
Saved on :
	File : L_28_Loopeis 1,46V_180s_3_PEIS from 6500Hz to 1000Hz_12_OCV_C01.mpr
	Directory : C:\PEM-WE_measurements\2026\372_IV_IV IrOx, 5 min Pt, 30 min C, etched cathode\new station\Loopeis new\1,46 V different time gaps open cell\
	Host : 192.168.0.2
Device : SP-150e (SN .005491)
Address : 192.168.0.91
EC-LAB for windows v11.71 (software)
Internet server v28.00 (firmware)
Command interpretor v14.01 (firmware)
Electrode material : 
Initial state : 
Electrolyte : 
Comments : 
Current amplifier : SP-150eB-20A
Electrode surface area : 0.001 cm²
Characteristic mass : 0.001 g
Equivalent Weight : 0.000 g/eq.
Density : 0.000 g/cm3
Volume (V) : 0.001 cm³
Record Analogic IN 1
Text export
   Mode : Standard
   Time format : Elapsed
Cycle Definition : Charge/Discharge alternance
External device configuration :
   device type : Temperature Probe
   device name : Other
   Analog IN 1 : 
      unit : T/Â°C
      max : 100.000 at 2.000 V
      min : 0.000 at 1.460 V
tR (h:m:s)          0:03:0.0000         
dER/dt (mV/h)       1.0                 
record              <Ewe>               
dER (mV)            10.00               
dtR (s)             0.5000              
E range min (V)     -2.500              
E range max (V)     2.500               

mode	error	time/s	<Ewe/V>	Analog IN 1/V	
3	0	1.172631980356018E+003	9.4236761E-001	-2.7038385E+002
3	0	1.173131980343387E+003	1.1299413E+000	-2.7039447E+002
3	0	1.173631980330756E+003	7.5544226E-001	-2.7036972E+002
3	0	1.174131980318125E+003	3.9022771E-001	-2.7040155E+002
3	0	1.174631980305494E+003	3.2186055E-001	-2.7035559E+002
3	0	1.175131980292863E+003	3.1231940E-001	-2.7036618E+002
3	0	1.175631980280232E+003	3.0579737E-001	-2.7038742E+002
3	0	1.176131980267601E+003	3.0039752E-001	-2.7038742E+002
3	0	1.176631980254970E+003	2.9615414E-001	-2.7038385E+002
3	0	1.177131980242339E+003	2.9284075E-001	-2.7039093E+002
3	0	1.177631980229708E+003	2.9018998E-001	-2.7040860E+002
3	0	1.178131980217076E+003	2.8804085E-001	-2.7038031E+002
3	0	1.178631980204445E+003	2.8624204E-001	-2.7039093E+002
3	0	1.179131980191814E+003	2.8469577E-001	-2.7036972E+002
3	0	1.179631980179183E+003	2.8333464E-001	-2.7037677E+002
3	0	1.180131980166552E+003	2.8216329E-001	-2.7038031E+002
3	0	1.180631980153921E+003	2.8112972E-001	-2.7038385E+002
3	0	1.181131980141290E+003	2.8019324E-001	-2.7038031E+002
3	0	1.181631980128659E+003	2.7932891E-001	-2.7036267E+002
3	0	1.182131980116028E+003	2.7852711E-001	-2.7037326E+002
3	0	1.182631980103397E+003	2.7776667E-001	-2.7037326E+002
3	0	1.183131980090766E+003	2.7702779E-001	-2.7038385E+002
3	0	1.183631980078135E+003	2.7630746E-001	-2.7038031E+002
3	0	1.184131980065504E+003	2.7563712E-001	-2.7041214E+002
3	0	1.184631980052873E+003	2.7501479E-001	-2.7038385E+002
3	0	1.185131980040242E+003	2.7442023E-001	-2.7035913E+002
3	0	1.185631980027611E+003	2.7383405E-001	-2.7036972E+002
3	0	1.186131980014979E+003	2.7325547E-001	-2.7039801E+002
3	0	1.186631980002348E+003	2.7268139E-001	-2.7037326E+002
3	0	1.187131979989717E+003	2.7210689E-001	-2.7039093E+002
3	0	1.187631979977086E+003	2.7151832E-001	-2.7038742E+002
3	0	1.188131979964455E+003	2.7096376E-001	-2.7038742E+002
3	0	1.188631979951824E+003	2.7045351E-001	-2.7038031E+002
3	0	1.189131979939193E+003	2.6993981E-001	-2.7038031E+002
3	0	1.189631979926562E+003	2.6943839E-001	-2.7040506E+002
3	0	1.190131979913931E+003	2.6893780E-001	-2.7038385E+002
3	0	1.190631979901300E+003	2.6843867E-001	-2.7041568E+002
3	0	1.191131979888669E+003	2.6792699E-001	-2.7037326E+002
3	0	1.191631979876038E+003	2.6740232E-001	-2.7036267E+002
3	0	1.192131979863407E+003	2.6690993E-001	-2.7037326E+002
3	0	1.192631979850776E+003	2.6643944E-001	-2.7039447E+002
3	0	1.193131979838145E+003	2.6597974E-001	-2.7039447E+002
3	0	1.193631979825514E+003	2.6551729E-001	-2.7036972E+002
3	0	1.194131979812882E+003	2.6505655E-001	-2.7038742E+002
3	0	1.194631979800251E+003	2.6460132E-001	-2.7037326E+002
3	0	1.195131979787620E+003	2.6412958E-001	-2.7037326E+002
3	0	1.195631979774989E+003	2.6364493E-001	-2.7037326E+002
3	0	1.196131979762358E+003	2.6319233E-001	-2.7039801E+002
3	0	1.196631979749727E+003	2.6276073E-001	-2.7038031E+002
3	0	1.197131979737096E+003	2.6233527E-001	-2.7037326E+002
3	0	1.197631979724465E+003	2.6190904E-001	-2.7037677E+002
3	0	1.198131979711834E+003	2.6148432E-001	-2.7038031E+002
3	0	1.198631979699203E+003	2.6105487E-001	-2.7038742E+002
3	0	1.199131979686572E+003	2.6061159E-001	-2.7036972E+002
3	0	1.199631979673941E+003	2.6015756E-001	-2.7038031E+002
3	0	1.200131979661310E+003	2.5974151E-001	-2.7037677E+002
3	0	1.200631979648679E+003	2.5934914E-001	-2.7037677E+002
3	0	1.201131979636048E+003	2.5895986E-001	-2.7040155E+002
3	0	1.201631979623417E+003	2.5856188E-001	-2.7039093E+002
3	0	1.202131979610785E+003	2.5817207E-001	-2.7036267E+002
3	0	1.202631979598154E+003	2.5777483E-001	-2.7039093E+002
3	0	1.203131979585523E+003	2.5735873E-001	-2.7038031E+002
3	0	1.203631979572892E+003	2.5692728E-001	-2.7038742E+002
3	0	1.204131979560261E+003	2.5653884E-001	-2.7039093E+002
3	0	1.204631979547630E+003	2.5617668E-001	-2.7038742E+002
3	0	1.205131979534999E+003	2.5580463E-001	-2.7039447E+002
3	0	1.205631979522368E+003	2.5544095E-001	-2.7038742E+002
3	0	1.206131979509737E+003	2.5507572E-001	-2.7037677E+002
3	0	1.206631979497106E+003	2.5470820E-001	-2.7036618E+002
3	0	1.207131979484475E+003	2.5432384E-001	-2.7038742E+002
3	0	1.207631979471844E+003	2.5392956E-001	-2.7039093E+002
3	0	1.208131979459213E+003	2.5356776E-001	-2.7036972E+002
3	0	1.208631979446582E+003	2.5322694E-001	-2.7036972E+002
3	0	1.209131979433951E+003	2.5289562E-001	-2.7038742E+002
3	0	1.209631979421320E+003	2.5255167E-001	-2.7038385E+002
3	0	1.210131979408688E+003	2.5221711E-001	-2.7037326E+002
3	0	1.210631979396057E+003	2.5188202E-001	-2.7038742E+002
3	0	1.211131979383426E+003	2.5153056E-001	-2.7036618E+002
3	0	1.211631979370795E+003	2.5116825E-001	-2.7039447E+002
3	0	1.212131979358164E+003	2.5083545E-001	-2.7037677E+002
3	0	1.212631979345533E+003	2.5053087E-001	-2.7040506E+002
3	0	1.213131979332902E+003	2.5022721E-001	-2.7038742E+002
3	0	1.213631979320271E+003	2.4991561E-001	-2.7039447E+002
3	0	1.214131979307640E+003	2.4960984E-001	-2.7037677E+002
3	0	1.214631979295009E+003	2.4930176E-001	-2.7038031E+002
3	0	1.215131979282378E+003	2.4897580E-001	-2.7036972E+002
3	0	1.215631979269747E+003	2.4863270E-001	-2.7038031E+002
3	0	1.216131979257116E+003	2.4832816E-001	-2.7036618E+002
3	0	1.216631979244485E+003	2.4805015E-001	-2.7037326E+002
3	0	1.217131979231854E+003	2.4776810E-001	-2.7038031E+002
3	0	1.217631979219223E+003	2.4748038E-001	-2.7036972E+002
3	0	1.218131979206592E+003	2.4719848E-001	-2.7036618E+002
3	0	1.218631979193960E+003	2.4691319E-001	-2.7035559E+002
3	0	1.219131979181329E+003	2.4660940E-001	-2.7039801E+002
3	0	1.219631979168698E+003	2.4629337E-001	-2.7036267E+002
3	0	1.220131979156067E+003	2.4601427E-001	-2.7034143E+002
3	0	1.220631979143436E+003	2.4575877E-001	-2.7038742E+002
3	0	1.221131979130805E+003	2.4550301E-001	-2.7035913E+002
3	0	1.221631979118174E+003	2.4524754E-001	-2.7038385E+002
3	0	1.222131979105543E+003	2.4498947E-001	-2.7038031E+002
3	0	1.222631979092912E+003	2.4472354E-001	-2.7036618E+002
3	0	1.223131979080281E+003	2.4444151E-001	-2.7038031E+002
3	0	1.223631979067650E+003	2.4415147E-001	-2.7036267E+002
3	0	1.224131979055019E+003	2.4389234E-001	-2.7037677E+002
3	0	1.224631979042388E+003	2.4365853E-001	-2.7038031E+002
3	0	1.225131979029757E+003	2.4342179E-001	-2.7037326E+002
3	0	1.225631979017126E+003	2.4318600E-001	-2.7040506E+002
3	0	1.226131979004495E+003	2.4295077E-001	-2.7038385E+002
3	0	1.226631978991863E+003	2.4270262E-001	-2.7039801E+002
3	0	1.227131978979232E+003	2.4243709E-001	-2.7037326E+002
3	0	1.227631978966601E+003	2.4216010E-001	-2.7036267E+002
3	0	1.228131978953970E+003	2.4192239E-001	-2.7038742E+002
3	0	1.228631978941339E+003	2.4170525E-001	-2.7037677E+002
3	0	1.229131978928708E+003	2.4148895E-001	-2.7039093E+002
3	0	1.229631978916077E+003	2.4126925E-001	-2.7034497E+002
3	0	1.230131978903446E+003	2.4105175E-001	-2.7036267E+002
3	0	1.230631978890815E+003	2.4083374E-001	-2.7041568E+002
3	0	1.231131978878184E+003	2.4059793E-001	-2.7039093E+002
3	0	1.231631978865553E+003	2.4034484E-001	-2.7036267E+002
3	0	1.232131978852922E+003	2.4012743E-001	-2.7036618E+002
3	0	1.232631978840291E+003	2.3993221E-001	-2.7035205E+002
3	0	1.233131978827660E+003	2.3973927E-001	-2.7038742E+002
3	0	1.233631978815029E+003	2.3953864E-001	-2.7039447E+002
3	0	1.234131978802398E+003	2.3934552E-001	-2.7037677E+002
3	0	1.234631978789766E+003	2.3914203E-001	-2.7039093E+002
3	0	1.235131978777135E+003	2.3892397E-001	-2.7038385E+002
3	0	1.235631978764504E+003	2.3868898E-001	-2.7037677E+002
3	0	1.236131978751873E+003	2.3848094E-001	-2.7036972E+002
3	0	1.236631978739242E+003	2.3831335E-001	-2.7038031E+002
3	0	1.237131978726611E+003	2.3813565E-001	-2.7036618E+002
3	0	1.237631978713980E+003	2.3795250E-001	-2.7038742E+002
3	0	1.238131978701349E+003	2.3777562E-001	-2.7035913E+002
3	0	1.238631978688718E+003	2.3758326E-001	-2.7038031E+002
3	0	1.239131978676087E+003	2.3736976E-001	-2.7039447E+002
3	0	1.239631978663456E+003	2.3715052E-001	-2.7039093E+002
3	0	1.240131978650825E+003	2.3696485E-001	-2.7036618E+002
3	0	1.240631978638194E+003	2.3680109E-001	-2.7038385E+002
3	0	1.241131978625563E+003	2.3663440E-001	-2.7038031E+002
3	0	1.241631978612932E+003	2.3646879E-001	-2.7038385E+002
3	0	1.242131978600301E+003	2.3630023E-001	-2.7036267E+002
3	0	1.242631978587669E+003	2.3612419E-001	-2.7038385E+002
3	0	1.243131978575038E+003	2.3593487E-001	-2.7039093E+002
3	0	1.243631978562407E+003	2.3573014E-001	-2.7039093E+002
3	0	1.244131978549776E+003	2.3556495E-001	-2.7039093E+002
3	0	1.244631978537145E+003	2.3541595E-001	-2.7040860E+002
3	0	1.245131978524514E+003	2.3526317E-001	-2.7035205E+002
3	0	1.245631978511883E+003	2.3510206E-001	-2.7037326E+002
3	0	1.246131978499252E+003	2.3493834E-001	-2.7037326E+002
3	0	1.246631978486621E+003	2.3476544E-001	-2.7035559E+002
3	0	1.247131978473990E+003	2.3457675E-001	-2.7037677E+002
3	0	1.247631978461359E+003	2.3437975E-001	-2.7036618E+002
3	0	1.248131978448728E+003	2.3421799E-001	-2.7038031E+002
3	0	1.248631978436097E+003	2.3407172E-001	-2.7036972E+002
3	0	1.249131978423466E+003	2.3392889E-001	-2.7034851E+002
3	0	1.249631978410835E+003	2.3377967E-001	-2.7033789E+002
3	0	1.250131978398204E+003	2.3362634E-001	-2.7039447E+002
3	0	1.250631978385572E+003	2.3347433E-001	-2.7036972E+002
3	0	1.251131978372941E+003	2.3330262E-001	-2.7036972E+002
3	0	1.251631978360310E+003	2.3312227E-001	-2.7036618E+002
3	0	1.252131978347679E+003	2.3297217E-001	-2.7038031E+002
3	0	1.252631978335048E+003	2.3284623E-001	-2.7039447E+002
3	0	1.253131978322417E+003	2.3271732E-001	-2.7037677E+002
3	0	1.253631978309786E+003	2.3257911E-001	-2.7039801E+002
3	0	1.254131978297155E+003	2.3244806E-001	-2.7037677E+002
3	0	1.254631978284524E+003	2.3230997E-001	-2.7037677E+002
3	0	1.255131978271893E+003	2.3215224E-001	-2.7036618E+002
3	0	1.255631978259262E+003	2.3197594E-001	-2.7038742E+002
3	0	1.256131978246631E+003	2.3183934E-001	-2.7037326E+002
3	0	1.256631978234000E+003	2.3172913E-001	-2.7036267E+002
3	0	1.257131978221369E+003	2.3161069E-001	-2.7037326E+002
3	0	1.257631978208738E+003	2.3148282E-001	-2.7039093E+002
3	0	1.258131978196107E+003	2.3136556E-001	-2.7036267E+002
3	0	1.258631978183475E+003	2.3123199E-001	-2.7036972E+002
3	0	1.259131978170844E+003	2.3108020E-001	-2.7039447E+002
3	0	1.259631978158213E+003	2.3091958E-001	-2.7041214E+002
3	0	1.260131978145582E+003	2.3078990E-001	-2.7038031E+002
3	0	1.260631978132951E+003	2.3068741E-001	-2.7038742E+002
3	0	1.261131978120320E+003	2.3057848E-001	-2.7040155E+002
3	0	1.261631978107689E+003	2.3046751E-001	-2.7040506E+002
3	0	1.262131978095058E+003	2.3035763E-001	-2.7038031E+002
3	0	1.262631978082427E+003	2.3023751E-001	-2.7037326E+002
3	0	1.263131978069796E+003	2.3009618E-001	-2.7038031E+002
3	0	1.263631978057165E+003	2.2993520E-001	-2.7036972E+002
3	0	1.264131978044534E+003	2.2981165E-001	-2.7037326E+002
3	0	1.264631978031903E+003	2.2970740E-001	-2.7039447E+002
3	0	1.265131978019272E+003	2.2960469E-001	-2.7035559E+002
3	0	1.265631978006641E+003	2.2949401E-001	-2.7039093E+002
3	0	1.266131977994010E+003	2.2938490E-001	-2.7035205E+002
3	0	1.266631977981378E+003	2.2926974E-001	-2.7040155E+002
3	0	1.267131977968747E+003	2.2913153E-001	-2.7037326E+002
3	0	1.267631977956116E+003	2.2898152E-001	-2.7039447E+002
3	0	1.268131977943485E+003	2.2885959E-001	-2.7036972E+002
3	0	1.268631977930854E+003	2.2876155E-001	-2.7038385E+002
3	0	1.269131977918223E+003	2.2866379E-001	-2.7038742E+002
3	0	1.269631977905592E+003	2.2855760E-001	-2.7039093E+002
3	0	1.270131977892961E+003	2.2844765E-001	-2.7037326E+002
3	0	1.270631977880330E+003	2.2833905E-001	-2.7037326E+002
3	0	1.271131977867699E+003	2.2821142E-001	-2.7038385E+002
3	0	1.271631977855068E+003	2.2806649E-001	-2.7035205E+002
3	0	1.272131977842437E+003	2.2795506E-001	-2.7040155E+002
3	0	1.272631977829806E+003	2.2787321E-001	-2.7037677E+002
3	0	1.273131977817175E+003	2.2778697E-001	-2.7036618E+002
3	0	1.273631977804544E+003	2.2769228E-001	-2.7038031E+002
3	0	1.274131977791913E+003	2.2759458E-001	-2.7038031E+002
3	0	1.274631977779281E+003	2.2749425E-001	-2.7039447E+002
3	0	1.275131977766650E+003	2.2737151E-001	-2.7037326E+002
3	0	1.275631977754019E+003	2.2722852E-001	-2.7037677E+002
3	0	1.276131977741388E+003	2.2712365E-001	-2.7038385E+002
3	0	1.276631977728757E+003	2.2704215E-001	-2.7038031E+002
3	0	1.277131977716126E+003	2.2696027E-001	-2.7036618E+002
3	0	1.277631977703495E+003	2.2687149E-001	-2.7038385E+002
3	0	1.278131977690864E+003	2.2678877E-001	-2.7037677E+002
3	0	1.278631977678233E+003	2.2669737E-001	-2.7038031E+002
3	0	1.279131977665602E+003	2.2658187E-001	-2.7038742E+002
3	0	1.279631977652971E+003	2.2644855E-001	-2.7039093E+002
3	0	1.280131977640340E+003	2.2635181E-001	-2.7041214E+002
3	0	1.280631977627709E+003	2.2627594E-001	-2.7039093E+002
3	0	1.281131977615078E+003	2.2619295E-001	-2.7036618E+002
3	0	1.281631977602447E+003	2.2611172E-001	-2.7037326E+002
3	0	1.282131977589816E+003	2.2602448E-001	-2.7037677E+002
3	0	1.282631977577184E+003	2.2593807E-001	-2.7036972E+002
3	0	1.283131977564553E+003	2.2582355E-001	-2.7036972E+002
3	0	1.283631977551922E+003	2.2569442E-001	-2.7041568E+002
3	0	1.284131977539291E+003	2.2559652E-001	-2.7038385E+002
3	0	1.284631977526660E+003	2.2553061E-001	-2.7036972E+002
3	0	1.285131977514029E+003	2.2545995E-001	-2.7038031E+002
3	0	1.285631977501398E+003	2.2538234E-001	-2.7036972E+002
3	0	1.286131977488767E+003	2.2530037E-001	-2.7035913E+002
3	0	1.286631977476136E+003	2.2521225E-001	-2.7037326E+002
3	0	1.287131977463505E+003	2.2509843E-001	-2.7040506E+002
3	0	1.287631977450874E+003	2.2497569E-001	-2.7039447E+002
3	0	1.288131977438243E+003	2.2488427E-001	-2.7038385E+002
3	0	1.288631977425612E+003	2.2481756E-001	-2.7036267E+002
3	0	1.289131977412981E+003	2.2474489E-001	-2.7036267E+002
3	0	1.289631977400350E+003	2.2466241E-001	-2.7038031E+002
3	0	1.290131977387719E+003	2.2458619E-001	-2.7037326E+002
3	0	1.290631977375087E+003	2.2449990E-001	-2.7038742E+002
3	0	1.291131977362456E+003	2.2439520E-001	-2.7038385E+002
3	0	1.291631977349825E+003	2.2427648E-001	-2.7038742E+002
3	0	1.292131977337194E+003	2.2418654E-001	-2.7039093E+002
3	0	1.292631977324563E+003	2.2412379E-001	-2.7040155E+002
3	0	1.293131977311932E+003	2.2405802E-001	-2.7035205E+002
3	0	1.293631977299301E+003	2.2398548E-001	-2.7039093E+002
3	0	1.294131977286670E+003	2.2391571E-001	-2.7038385E+002
3	0	1.294631977274039E+003	2.2383444E-001	-2.7040506E+002
3	0	1.295131977261408E+003	2.2373529E-001	-2.7037677E+002
3	0	1.295631977248777E+003	2.2361922E-001	-2.7039093E+002
3	0	1.296131977236146E+003	2.2353379E-001	-2.7038385E+002
3	0	1.296631977223515E+003	2.2347593E-001	-2.7037677E+002
3	0	1.297131977210884E+003	2.2341470E-001	-2.7037677E+002
3	0	1.297631977198253E+003	2.2335237E-001	-2.7037677E+002
3	0	1.298131977185622E+003	2.2328128E-001	-2.7038742E+002
3	0	1.298631977172990E+003	2.2321212E-001	-2.7037677E+002
3	0	1.299131977160359E+003	2.2311127E-001	-2.7038031E+002
3	0	1.299631977147728E+003	2.2299762E-001	-2.7038031E+002
3	0	1.300131977135097E+003	2.2291456E-001	-2.7038031E+002
3	0	1.300631977122466E+003	2.2285903E-001	-2.7040155E+002
3	0	1.301131977109835E+003	2.2279923E-001	-2.7039801E+002
3	0	1.301631977097204E+003	2.2273456E-001	-2.7037677E+002
3	0	1.302131977084573E+003	2.2267169E-001	-2.7037677E+002
3	0	1.302631977071942E+003	2.2260226E-001	-2.7039801E+002
3	0	1.303131977059311E+003	2.2250934E-001	-2.7038031E+002
3	0	1.303631977046680E+003	2.2240391E-001	-2.7038031E+002
3	0	1.304131977034049E+003	2.2232646E-001	-2.7039093E+002
3	0	1.304631977021418E+003	2.2227454E-001	-2.7038031E+002
3	0	1.305131977008787E+003	2.2221969E-001	-2.7039093E+002
3	0	1.305631976996156E+003	2.2215636E-001	-2.7038742E+002
3	0	1.306131976983525E+003	2.2209077E-001	-2.7038031E+002
3	0	1.306631976970893E+003	2.2202791E-001	-2.7036267E+002
3	0	1.307131976958262E+003	2.2193012E-001	-2.7036267E+002
3	0	1.307631976945631E+003	2.2181900E-001	-2.7038031E+002
3	0	1.308131976933000E+003	2.2173902E-001	-2.7038385E+002
3	0	1.308631976920369E+003	2.2168104E-001	-2.7038031E+002
3	0	1.309131976907738E+003	2.2162598E-001	-2.7036618E+002
3	0	1.309631976895107E+003	2.2155833E-001	-2.7037326E+002
3	0	1.310131976882476E+003	2.2149943E-001	-2.7038031E+002
3	0	1.310631976869845E+003	2.2142899E-001	-2.7037326E+002
3	0	1.311131976857214E+003	2.2133842E-001	-2.7037677E+002
3	0	1.311631976844583E+003	2.2122772E-001	-2.7039801E+002
3	0	1.312131976831952E+003	2.2115391E-001	-2.7039447E+002
3	0	1.312631976819321E+003	2.2110178E-001	-2.7036267E+002
3	0	1.313131976806690E+003	2.2105065E-001	-2.7035559E+002
3	0	1.313631976794059E+003	2.2099520E-001	-2.7039801E+002
3	0	1.314131976781428E+003	2.2093563E-001	-2.7040506E+002
3	0	1.314631976768796E+003	2.2087531E-001	-2.7039447E+002
3	0	1.315131976756165E+003	2.2078551E-001	-2.7035559E+002
3	0	1.315631976743534E+003	2.2068283E-001	-2.7038385E+002
3	0	1.316131976730903E+003	2.2061424E-001	-2.7038031E+002
3	0	1.316631976718272E+003	2.2056866E-001	-2.7039447E+002
3	0	1.317131976705641E+003	2.2052065E-001	-2.7038031E+002
3	0	1.317631976693010E+003	2.2046991E-001	-2.7038385E+002
3	0	1.318131976680379E+003	2.2041473E-001	-2.7037326E+002
3	0	1.318631976667748E+003	2.2035167E-001	-2.7038031E+002
3	0	1.319131976655117E+003	2.2026774E-001	-2.7038031E+002
3	0	1.319631976642486E+003	2.2016852E-001	-2.7038385E+002
3	0	1.320131976629855E+003	2.2009240E-001	-2.7037677E+002
3	0	1.320631976617224E+003	2.2004904E-001	-2.7036267E+002
3	0	1.321131976604593E+003	2.2000456E-001	-2.7039447E+002
3	0	1.321631976591962E+003	2.1995202E-001	-2.7036972E+002
3	0	1.322131976579331E+003	2.1990980E-001	-2.7038031E+002
3	0	1.322631976566699E+003	2.1984781E-001	-2.7036618E+002
3	0	1.323131976554068E+003	2.1976656E-001	-2.7039093E+002
3	0	1.323631976541437E+003	2.1966784E-001	-2.7039093E+002
3	0	1.324131976528806E+003	2.1960135E-001	-2.7038742E+002
3	0	1.324631976516175E+003	2.1956024E-001	-2.7036618E+002
3	0	1.325131976503544E+003	2.1951364E-001	-2.7036618E+002
3	0	1.325631976490913E+003	2.1946530E-001	-2.7039093E+002
3	0	1.326131976478282E+003	2.1941395E-001	-2.7038031E+002
3	0	1.326631976465651E+003	2.1935253E-001	-2.7038385E+002
3	0	1.327131976453020E+003	2.1927667E-001	-2.7036972E+002
3	0	1.327631976440389E+003	2.1916774E-001	-2.7038031E+002
3	0	1.328131976427758E+003	2.1909593E-001	-2.7040155E+002
3	0	1.328631976415127E+003	2.1905304E-001	-2.7037326E+002
3	0	1.329131976402496E+003	2.1899979E-001	-2.7038742E+002
3	0	1.329631976389865E+003	2.1894650E-001	-2.7036267E+002
3	0	1.330131976377234E+003	2.1889195E-001	-2.7038385E+002
3	0	1.330631976364602E+003	2.1882781E-001	-2.7036972E+002
3	0	1.331131976351971E+003	2.1874483E-001	-2.7036618E+002
3	0	1.331631976339340E+003	2.1863970E-001	-2.7036972E+002
3	0	1.332131976326709E+003	2.1857098E-001	-2.7038031E+002
3	0	1.332631976314078E+003	2.1852855E-001	-2.7038742E+002
3	0	1.333131976301447E+003	2.1848507E-001	-2.7038742E+002
3	0	1.333631976288816E+003	2.1843573E-001	-2.7038031E+002
3	0	1.334131976276185E+003	2.1838763E-001	-2.7034851E+002
3	0	1.334631976263554E+003	2.1832879E-001	-2.7037326E+002
3	0	1.335131976250923E+003	2.1823741E-001	-2.7039447E+002
3	0	1.335631976238292E+003	2.1812999E-001	-2.7036618E+002
3	0	1.336131976225661E+003	2.1805221E-001	-2.7039447E+002
3	0	1.336631976213030E+003	2.1800491E-001	-2.7037677E+002
3	0	1.337131976200399E+003	2.1795487E-001	-2.7039801E+002
3	0	1.337631976187768E+003	2.1790612E-001	-2.7038031E+002
3	0	1.338131976175137E+003	2.1785319E-001	-2.7039801E+002
3	0	1.338631976162505E+003	2.1778539E-001	-2.7038385E+002
3	0	1.339131976149874E+003	2.1770191E-001	-2.7036618E+002
3	0	1.339631976137243E+003	2.1759690E-001	-2.7037326E+002
3	0	1.340131976124612E+003	2.1752982E-001	-2.7037677E+002
3	0	1.340631976111981E+003	2.1748942E-001	-2.7038742E+002
3	0	1.341131976099350E+003	2.1744366E-001	-2.7039093E+002
3	0	1.341631976086719E+003	2.1741928E-001	-2.7038385E+002
3	0	1.342131976074088E+003	2.1738404E-001	-2.7038742E+002
3	0	1.342631976061457E+003	2.1734205E-001	-2.7037677E+002
3	0	1.343131976048826E+003	2.1727628E-001	-2.7036618E+002
3	0	1.343631976036195E+003	2.1719803E-001	-2.7038385E+002
3	0	1.344131976023564E+003	2.1714103E-001	-2.7036267E+002
3	0	1.344631976010933E+003	2.1711038E-001	-2.7038742E+002
3	0	1.345131975998302E+003	2.1707572E-001	-2.7036267E+002
3	0	1.345631975985671E+003	2.1703802E-001	-2.7038742E+002
3	0	1.346131975973040E+003	2.1699554E-001	-2.7037326E+002
3	0	1.346631975960408E+003	2.1694332E-001	-2.7036972E+002
3	0	1.347131975947777E+003	2.1686719E-001	-2.7038385E+002
3	0	1.347631975935146E+003	2.1677069E-001	-2.7036267E+002
3	0	1.348131975922515E+003	2.1670558E-001	-2.7039093E+002
3	0	1.348631975909884E+003	2.1666113E-001	-2.7038742E+002
3	0	1.349131975897253E+003	2.1661922E-001	-2.7039801E+002
3	0	1.349631975884622E+003	2.1657348E-001	-2.7039093E+002
3	0	1.350131975871991E+003	2.1652442E-001	-2.7036972E+002
3	0	1.350631975859360E+003	2.1646863E-001	-2.7039801E+002
3	0	1.351131975846729E+003	2.1638988E-001	-2.7038385E+002
3	0	1.351631975834098E+003	2.1628934E-001	-2.7037326E+002
3	0	1.352131975821467E+003	2.1622673E-001	-2.7037677E+002
3	0	1.352157575820820E+003	2.1621379E-001	-2.7039093E+002