EC-Lab ASCII FILE
Nb header lines : 48                          

Open Circuit Voltage

Run on channel : 1 (SN 81504)
User : 
CE vs. WE compliance from -10 V to 10 V
Electrode connection : standard
Potential control : Ewe
Ewe ctrl range : min = -2.50 V, max = 2.50 V
Safety Limits :
	Do not start on E overload
Acquisition started on : 05/07/2026 16:58:53.259
Loaded Setting File :  C:\PEM-WE_measurements\2026\372_IV_IV IrOx, 5 min Pt, 30 min C, etched cathode\new station\Loopeis new\1,46 V different time gaps open cell\Loopeis 1,46V_60s_2_PEIS from 65kHz to 10kHz.mps
Saved on :
	File : L_12_Loopeis 1,46V_60s_2_PEIS from 65kHz to 10kHz_10_OCV_C01.mpr
	Directory : C:\PEM-WE_measurements\2026\372_IV_IV IrOx, 5 min Pt, 30 min C, etched cathode\new station\Loopeis new\1,46 V different time gaps open cell\
	Host : 192.168.0.2
Device : SP-150e (SN .005491)
Address : 192.168.0.91
EC-LAB for windows v11.71 (software)
Internet server v28.00 (firmware)
Command interpretor v14.01 (firmware)
Electrode material : 
Initial state : 
Electrolyte : 
Comments : 
Current amplifier : SP-150eB-20A
Electrode surface area : 0.001 cm²
Characteristic mass : 0.001 g
Equivalent Weight : 0.000 g/eq.
Density : 0.000 g/cm3
Volume (V) : 0.001 cm³
Record Analogic IN 1
Text export
   Mode : Standard
   Time format : Elapsed
Cycle Definition : Charge/Discharge alternance
tR (h:m:s)          0:01:0.0000         
dER/dt (mV/h)       1.0                 
record              <Ewe>               
dER (mV)            10.00               
dtR (s)             0.5000              
E range min (V)     -2.500              
E range max (V)     2.500               

mode	error	time/s	<Ewe/V>	Analog IN 1/V	
3	0	4.662813948257099E+002	1.2780513E+000	-9.1562819E-005
3	0	4.667813948130788E+002	1.2758934E+000	3.8648941E-006
3	0	4.672813948004477E+002	1.2466340E+000	-1.2973390E-004
3	0	4.677813947878167E+002	1.1859221E+000	-1.1064836E-004
3	0	4.682813947751856E+002	1.0164576E+000	-3.4306191E-005
3	0	4.687813947625546E+002	5.4639578E-001	-9.1562819E-005
3	0	4.692813947499235E+002	3.7594232E-001	-1.1064836E-004
3	0	4.697813947372924E+002	3.5044947E-001	-1.5220648E-005
3	0	4.702813947246614E+002	3.4058678E-001	-3.4306191E-005
3	0	4.707813947120303E+002	3.3290690E-001	-3.4306191E-005
3	0	4.712813946993992E+002	3.2710522E-001	6.1121522E-005
3	0	4.717813946867682E+002	3.2272542E-001	2.2950437E-005
3	0	4.722813946741371E+002	3.1932303E-001	2.2950437E-005
3	0	4.727813946615061E+002	3.1661153E-001	-1.5220648E-005
3	0	4.732813946488750E+002	3.1437376E-001	-5.3391734E-005
3	0	4.737813946362439E+002	3.1250218E-001	2.2950437E-005
3	0	4.742813946236129E+002	3.1088427E-001	-1.4881945E-004
3	0	4.747813946109818E+002	3.0943578E-001	-5.3391734E-005
3	0	4.752813945983507E+002	3.0814084E-001	-1.5220648E-005
3	0	4.757813945857197E+002	3.0700693E-001	-5.3391734E-005
3	0	4.762813945730886E+002	3.0597186E-001	1.7563478E-004
3	0	4.767813945604576E+002	3.0500773E-001	-1.5220648E-005
3	0	4.772813945478265E+002	3.0411604E-001	-1.1064836E-004
3	0	4.777813945351954E+002	3.0326951E-001	3.8648941E-006
3	0	4.782813945225644E+002	3.0245751E-001	-1.5220648E-005
3	0	4.787813945099333E+002	3.0165213E-001	6.1121522E-005
3	0	4.792813944973022E+002	3.0086985E-001	-3.4306191E-005
3	0	4.797813944846712E+002	3.0015436E-001	3.8648941E-006
3	0	4.802813944720401E+002	2.9946634E-001	-7.2477276E-005
3	0	4.807813944594091E+002	2.9879999E-001	-3.4306191E-005
3	0	4.812813944467780E+002	2.9814523E-001	-7.2477276E-005
3	0	4.817813944341469E+002	2.9749960E-001	-1.4881945E-004
3	0	4.822813944215159E+002	2.9684901E-001	2.2950437E-005
3	0	4.827813944088848E+002	2.9619113E-001	4.2035979E-005
3	0	4.832813943962537E+002	2.9555482E-001	-1.1064836E-004
3	0	4.837813943836227E+002	2.9495656E-001	-5.3391734E-005
3	0	4.842813943709916E+002	2.9437682E-001	-5.3391734E-005
3	0	4.847813943583606E+002	2.9380104E-001	-7.2477276E-005
3	0	4.852813943457295E+002	2.9322922E-001	-7.2477276E-005
3	0	4.857813943330984E+002	2.9267108E-001	-3.4306191E-005
3	0	4.862813943204674E+002	2.9209799E-001	-1.2973390E-004
3	0	4.867813943078363E+002	2.9152045E-001	-5.3391734E-005
3	0	4.872813942952052E+002	2.9094326E-001	1.1837815E-004
3	0	4.877813942825742E+002	2.9040945E-001	6.1121522E-005
3	0	4.882813942699431E+002	2.8988513E-001	-1.5220648E-005
3	0	4.887813942573121E+002	2.8935412E-001	-3.4306191E-005
3	0	4.892813942446810E+002	2.8883100E-001	8.0207064E-005
3	0	4.897813942320499E+002	2.8831804E-001	-7.2477276E-005
3	0	4.902813942194189E+002	2.8779137E-001	3.8648941E-006
3	0	4.907813942067878E+002	2.8724894E-001	6.1121522E-005
3	0	4.912813941941567E+002	2.8671926E-001	-7.2477276E-005
3	0	4.917813941815257E+002	2.8622171E-001	-1.5220648E-005
3	0	4.922813941688946E+002	2.8573859E-001	2.2950437E-005
3	0	4.927813941562636E+002	2.8524834E-001	-1.1064836E-004
3	0	4.932813941436325E+002	2.8476122E-001	-1.5220648E-005
3	0	4.937813941310014E+002	2.8427920E-001	-7.2477276E-005
3	0	4.942813941183704E+002	2.8378689E-001	-1.1064836E-004
3	0	4.947813941057393E+002	2.8328809E-001	-7.2477276E-005
3	0	4.952813940931082E+002	2.8278619E-001	8.0207064E-005
3	0	4.957813940804772E+002	2.8233033E-001	-7.2477276E-005
3	0	4.962813940678461E+002	2.8188178E-001	-1.4881945E-004
3	0	4.967813940552151E+002	2.8142828E-001	6.1121522E-005
3	0	4.972813940425840E+002	2.8097475E-001	-9.1562819E-005
3	0	4.977813940299529E+002	2.8052866E-001	-1.4881945E-004
3	0	4.982813940173219E+002	2.8006253E-001	-1.8699054E-004
3	0	4.987813940046908E+002	2.7959797E-001	-9.1562819E-005
3	0	4.992813939920597E+002	2.7913588E-001	4.2035979E-005
3	0	4.997813939794287E+002	2.7871633E-001	6.1121522E-005
3	0	5.002813939667976E+002	2.7829841E-001	-1.2973390E-004
3	0	5.007813939541666E+002	2.7787817E-001	-7.2477276E-005
3	0	5.012813939415355E+002	2.7746141E-001	-7.2477276E-005
3	0	5.017813939289044E+002	2.7704361E-001	-5.3391734E-005
3	0	5.022813939162734E+002	2.7662316E-001	-2.6333271E-004
3	0	5.027813939036423E+002	2.7618739E-001	4.2035979E-005
3	0	5.032813938910112E+002	2.7575558E-001	4.2035979E-005
3	0	5.037813938783802E+002	2.7536011E-001	-7.2477276E-005
3	0	5.042813938657491E+002	2.7498069E-001	6.1121522E-005
3	0	5.047813938531181E+002	2.7459902E-001	-7.2477276E-005
3	0	5.052813938404870E+002	2.7422041E-001	-1.5220648E-005
3	0	5.057813938278559E+002	2.7383339E-001	-5.3391734E-005
3	0	5.062813938152249E+002	2.7344760E-001	-1.2973390E-004
3	0	5.067813938025938E+002	2.7304322E-001	-7.2477276E-005
3	0	5.072813937899627E+002	2.7263591E-001	8.0207064E-005
3	0	5.077813937773317E+002	2.7228218E-001	-1.5220648E-005
3	0	5.082813937647006E+002	2.7194032E-001	3.8648941E-006
3	0	5.087813937520696E+002	2.7158228E-001	6.1121522E-005
3	0	5.092813937394385E+002	2.7122629E-001	8.0207064E-005
3	0	5.097813937268074E+002	2.7087909E-001	1.1837815E-004
3	0	5.102813937141764E+002	2.7052003E-001	-5.3391734E-005
3	0	5.107813937015453E+002	2.7013478E-001	-1.5220648E-005
3	0	5.112813936889143E+002	2.6977029E-001	9.9292607E-005
3	0	5.117813936762832E+002	2.6944450E-001	6.1121522E-005
3	0	5.122813936636521E+002	2.6912355E-001	-3.4306191E-005
3	0	5.127813936510211E+002	2.6879680E-001	-5.3391734E-005
3	0	5.132813936383900E+002	2.6847455E-001	-5.3391734E-005
3	0	5.137813936257589E+002	2.6815462E-001	-3.4306191E-005
3	0	5.142813936131279E+002	2.6782596E-001	4.2035979E-005
3	0	5.147813936004968E+002	2.6748008E-001	-7.2477276E-005
3	0	5.152813935878658E+002	2.6713851E-001	4.2035979E-005
3	0	5.157813935752347E+002	2.6683140E-001	-1.6790499E-004
3	0	5.162813935626036E+002	2.6653773E-001	6.1121522E-005
3	0	5.167813935499726E+002	2.6624012E-001	4.2035979E-005
3	0	5.172813935373415E+002	2.6594612E-001	3.8648941E-006
3	0	5.177813935247104E+002	2.6564571E-001	-9.1562819E-005
3	0	5.182813935120794E+002	2.6534113E-001	4.2035979E-005
3	0	5.187813934994483E+002	2.6501378E-001	-9.1562819E-005
3	0	5.192813934868173E+002	2.6469868E-001	1.1837815E-004
3	0	5.197813934741862E+002	2.6442763E-001	-3.4306191E-005
3	0	5.202813934615551E+002	2.6416495E-001	-7.2477276E-005
3	0	5.207813934489241E+002	2.6389590E-001	3.8648941E-006
3	0	5.212813934362930E+002	2.6362151E-001	9.9292607E-005
3	0	5.217813934236619E+002	2.6335487E-001	-1.8699054E-004
3	0	5.222813934110309E+002	2.6307929E-001	-5.3391734E-005
3	0	5.227813933983998E+002	2.6278111E-001	-3.4306191E-005
3	0	5.232813933857688E+002	2.6248997E-001	-9.1562819E-005
3	0	5.237813933731377E+002	2.6223347E-001	-7.2477276E-005
3	0	5.242813933605066E+002	2.6199320E-001	-7.2477276E-005
3	0	5.247813933478756E+002	2.6174659E-001	-1.2973390E-004
3	0	5.252813933352445E+002	2.6150501E-001	2.2950437E-005
3	0	5.257813933226134E+002	2.6126260E-001	8.0207064E-005
3	0	5.257817933226033E+002	2.6109409E-001	-1.4881945E-004