EC-Lab ASCII FILE
Nb header lines : 55                          

Open Circuit Voltage

Run on channel : 1 (SN 81504)
User : 
CE vs. WE compliance from -10 V to 10 V
Electrode connection : standard
Potential control : Ewe
Ewe ctrl range : min = -2.50 V, max = 2.50 V
Safety Limits :
	Do not start on E overload
Acquisition started on : 05/07/2026 19:27:13.907
Loaded Setting File :  C:\PEM-WE_measurements\2026\372_IV_IV IrOx, 5 min Pt, 30 min C, etched cathode\new station\Loopeis new\1,46 V different time gaps open cell\Loopeis 1,46V_90s_4_PEIS from 650Hz to 100Hz.mps
Saved on :
	File : L_19_Loopeis 1,46V_90s_4_PEIS from 650Hz to 100Hz_12_OCV_C01.mpr
	Directory : C:\PEM-WE_measurements\2026\372_IV_IV IrOx, 5 min Pt, 30 min C, etched cathode\new station\Loopeis new\1,46 V different time gaps open cell\
	Host : 192.168.0.2
Device : SP-150e (SN .005491)
Address : 192.168.0.91
EC-LAB for windows v11.71 (software)
Internet server v28.00 (firmware)
Command interpretor v14.01 (firmware)
Electrode material : 
Initial state : 
Electrolyte : 
Comments : 
Current amplifier : SP-150eB-20A
Electrode surface area : 0.001 cm²
Characteristic mass : 0.001 g
Equivalent Weight : 0.000 g/eq.
Density : 0.000 g/cm3
Volume (V) : 0.001 cm³
Record Analogic IN 1
Text export
   Mode : Standard
   Time format : Elapsed
Cycle Definition : Charge/Discharge alternance
External device configuration :
   device type : Temperature Probe
   device name : Other
   Analog IN 1 : 
      unit : T/Â°C
      max : 100.000 at 2.000 V
      min : 0.000 at 1.460 V
tR (h:m:s)          0:01:30.0000        
dER/dt (mV/h)       1.0                 
record              <Ewe>               
dER (mV)            10.00               
dtR (s)             0.5000              
E range min (V)     -2.500              
E range max (V)     2.500               

mode	error	time/s	<Ewe/V>	Analog IN 1/V	
3	0	7.226159917231416E+002	1.0315192E+000	-2.7036618E+002
3	0	7.231159917105106E+002	1.2007552E+000	-2.7036267E+002
3	0	7.236159916978795E+002	1.1257317E+000	-2.7039093E+002
3	0	7.241159916852484E+002	9.1840935E-001	-2.7039801E+002
3	0	7.246159916726174E+002	4.7268382E-001	-2.7035559E+002
3	0	7.251159916599863E+002	3.1400082E-001	-2.7038742E+002
3	0	7.256159916473553E+002	2.9705876E-001	-2.7040155E+002
3	0	7.261159916347242E+002	2.9027319E-001	-2.7038742E+002
3	0	7.266159916220931E+002	2.8426930E-001	-2.7038742E+002
3	0	7.271159916094621E+002	2.7941358E-001	-2.7039801E+002
3	0	7.276159915968310E+002	2.7563974E-001	-2.7037677E+002
3	0	7.281159915841999E+002	2.7269924E-001	-2.7036618E+002
3	0	7.286159915715689E+002	2.7034798E-001	-2.7037677E+002
3	0	7.291159915589378E+002	2.6842186E-001	-2.7035913E+002
3	0	7.296159915463068E+002	2.6681122E-001	-2.7036267E+002
3	0	7.301159915336757E+002	2.6547021E-001	-2.7037326E+002
3	0	7.306159915210446E+002	2.6430973E-001	-2.7038385E+002
3	0	7.311159915084136E+002	2.6328248E-001	-2.7036972E+002
3	0	7.316159914957825E+002	2.6236156E-001	-2.7037677E+002
3	0	7.321159914831514E+002	2.6151830E-001	-2.7040506E+002
3	0	7.326159914705204E+002	2.6072717E-001	-2.7036972E+002
3	0	7.331159914578893E+002	2.5996548E-001	-2.7038031E+002
3	0	7.336159914452583E+002	2.5924867E-001	-2.7038742E+002
3	0	7.341159914326272E+002	2.5859469E-001	-2.7037677E+002
3	0	7.346159914199961E+002	2.5796235E-001	-2.7036618E+002
3	0	7.351159914073651E+002	2.5735179E-001	-2.7038385E+002
3	0	7.356159913947340E+002	2.5675690E-001	-2.7038031E+002
3	0	7.361159913821029E+002	2.5618532E-001	-2.7040860E+002
3	0	7.366159913694719E+002	2.5560376E-001	-2.7038385E+002
3	0	7.371159913568408E+002	2.5502595E-001	-2.7038385E+002
3	0	7.376159913442098E+002	2.5445756E-001	-2.7036972E+002
3	0	7.381159913315787E+002	2.5393018E-001	-2.7036972E+002
3	0	7.386159913189476E+002	2.5340974E-001	-2.7038385E+002
3	0	7.391159913063166E+002	2.5288960E-001	-2.7038031E+002
3	0	7.396159912936855E+002	2.5237140E-001	-2.7035913E+002
3	0	7.401159912810544E+002	2.5186288E-001	-2.7035913E+002
3	0	7.406159912684234E+002	2.5134650E-001	-2.7039093E+002
3	0	7.411159912557923E+002	2.5081390E-001	-2.7038385E+002
3	0	7.416159912431613E+002	2.5029749E-001	-2.7038385E+002
3	0	7.421159912305302E+002	2.4981476E-001	-2.7039447E+002
3	0	7.426159912178991E+002	2.4933392E-001	-2.7036972E+002
3	0	7.431159912052681E+002	2.4885306E-001	-2.7036618E+002
3	0	7.436159911926370E+002	2.4837464E-001	-2.7037326E+002
3	0	7.441159911800059E+002	2.4790823E-001	-2.7039093E+002
3	0	7.446159911673749E+002	2.4742667E-001	-2.7038742E+002
3	0	7.451159911547438E+002	2.4692471E-001	-2.7039447E+002
3	0	7.456159911421128E+002	2.4643302E-001	-2.7037326E+002
3	0	7.461159911294817E+002	2.4598081E-001	-2.7036267E+002
3	0	7.466159911168506E+002	2.4552648E-001	-2.7035913E+002
3	0	7.471159911042196E+002	2.4507299E-001	-2.7040155E+002
3	0	7.476159910915885E+002	2.4462403E-001	-2.7040155E+002
3	0	7.481159910789575E+002	2.4417710E-001	-2.7036972E+002
3	0	7.486159910663264E+002	2.4371976E-001	-2.7035913E+002
3	0	7.491159910536953E+002	2.4325213E-001	-2.7037677E+002
3	0	7.496159910410643E+002	2.4278995E-001	-2.7039447E+002
3	0	7.501159910284332E+002	2.4236026E-001	-2.7036267E+002
3	0	7.506159910158021E+002	2.4193339E-001	-2.7039093E+002
3	0	7.511159910031711E+002	2.4151121E-001	-2.7035913E+002
3	0	7.516159909905400E+002	2.4109034E-001	-2.7037677E+002
3	0	7.521159909779090E+002	2.4067515E-001	-2.7036618E+002
3	0	7.526159909652779E+002	2.4025042E-001	-2.7038031E+002
3	0	7.531159909526468E+002	2.3980553E-001	-2.7038031E+002
3	0	7.536159909400158E+002	2.3936871E-001	-2.7035913E+002
3	0	7.541159909273847E+002	2.3896942E-001	-2.7034851E+002
3	0	7.546159909147536E+002	2.3856546E-001	-2.7039801E+002
3	0	7.551159909021226E+002	2.3816769E-001	-2.7037677E+002
3	0	7.556159908894915E+002	2.3776764E-001	-2.7037326E+002
3	0	7.561159908768605E+002	2.3737243E-001	-2.7039447E+002
3	0	7.566159908642294E+002	2.3697151E-001	-2.7039093E+002
3	0	7.571159908515983E+002	2.3655730E-001	-2.7034851E+002
3	0	7.576159908389673E+002	2.3614350E-001	-2.7036972E+002
3	0	7.581159908263362E+002	2.3577733E-001	-2.7038742E+002
3	0	7.586159908137051E+002	2.3541047E-001	-2.7038742E+002
3	0	7.591159908010741E+002	2.3504640E-001	-2.7037677E+002
3	0	7.596159907884430E+002	2.3467492E-001	-2.7039801E+002
3	0	7.601159907758120E+002	2.3431349E-001	-2.7038031E+002
3	0	7.606159907631809E+002	2.3394968E-001	-2.7037677E+002
3	0	7.611159907505498E+002	2.3356138E-001	-2.7036972E+002
3	0	7.616159907379188E+002	2.3318511E-001	-2.7037677E+002
3	0	7.621159907252877E+002	2.3284672E-001	-2.7038031E+002
3	0	7.626159907126566E+002	2.3250228E-001	-2.7038031E+002
3	0	7.631159907000256E+002	2.3216636E-001	-2.7037677E+002
3	0	7.636159906873945E+002	2.3183437E-001	-2.7035559E+002
3	0	7.641159906747635E+002	2.3149793E-001	-2.7037677E+002
3	0	7.646159906621324E+002	2.3114574E-001	-2.7039447E+002
3	0	7.651159906495013E+002	2.3078248E-001	-2.7038031E+002
3	0	7.656159906368703E+002	2.3043431E-001	-2.7037326E+002
3	0	7.661159906242392E+002	2.3012377E-001	-2.7036972E+002
3	0	7.666159906116081E+002	2.2980711E-001	-2.7034851E+002
3	0	7.671159905989771E+002	2.2949362E-001	-2.7039801E+002
3	0	7.676159905863460E+002	2.2918934E-001	-2.7039447E+002
3	0	7.681159905737150E+002	2.2887865E-001	-2.7034851E+002
3	0	7.686159905610839E+002	2.2856669E-001	-2.7036618E+002
3	0	7.691159905484528E+002	2.2823192E-001	-2.7038385E+002
3	0	7.696159905358218E+002	2.2790946E-001	-2.7038031E+002
3	0	7.701159905231907E+002	2.2762477E-001	-2.7037677E+002
3	0	7.706159905105596E+002	2.2733070E-001	-2.7039801E+002
3	0	7.711159904979286E+002	2.2704311E-001	-2.7036267E+002
3	0	7.716159904852975E+002	2.2676468E-001	-2.7039093E+002
3	0	7.721159904726665E+002	2.2648668E-001	-2.7036618E+002
3	0	7.726159904600354E+002	2.2619137E-001	-2.7038742E+002
3	0	7.731159904474043E+002	2.2588682E-001	-2.7039447E+002
3	0	7.736159904347733E+002	2.2558707E-001	-2.7037326E+002
3	0	7.741159904221422E+002	2.2532645E-001	-2.7038385E+002
3	0	7.746159904095111E+002	2.2506066E-001	-2.7036267E+002
3	0	7.751159903968801E+002	2.2480398E-001	-2.7038742E+002
3	0	7.756159903842490E+002	2.2454561E-001	-2.7039801E+002
3	0	7.761159903716180E+002	2.2428390E-001	-2.7037326E+002
3	0	7.766159903589869E+002	2.2400956E-001	-2.7034851E+002
3	0	7.771159903463558E+002	2.2371954E-001	-2.7038742E+002
3	0	7.776159903337248E+002	2.2343986E-001	-2.7035205E+002
3	0	7.781159903210937E+002	2.2319227E-001	-2.7039447E+002
3	0	7.786159903084626E+002	2.2295670E-001	-2.7035913E+002
3	0	7.791159902958316E+002	2.2271127E-001	-2.7037677E+002
3	0	7.796159902832005E+002	2.2247626E-001	-2.7039447E+002
3	0	7.801159902705695E+002	2.2224486E-001	-2.7039447E+002
3	0	7.806159902579384E+002	2.2199562E-001	-2.7038385E+002
3	0	7.811159902453073E+002	2.2172698E-001	-2.7037677E+002
3	0	7.816159902326763E+002	2.2146378E-001	-2.7037677E+002
3	0	7.821159902200452E+002	2.2125220E-001	-2.7037677E+002
3	0	7.826159902074141E+002	2.2103500E-001	-2.7037677E+002
3	0	7.831159901947831E+002	2.2081867E-001	-2.7039447E+002
3	0	7.836159901821520E+002	2.2060938E-001	-2.7037677E+002
3	0	7.841159901695210E+002	2.2039542E-001	-2.7038031E+002
3	0	7.846159901568899E+002	2.2017030E-001	-2.7039447E+002
3	0	7.851159901442588E+002	2.1992530E-001	-2.7035205E+002
3	0	7.856159901316278E+002	2.1968818E-001	-2.7037326E+002
3	0	7.861159901189967E+002	2.1949427E-001	-2.7039801E+002
3	0	7.866159901063656E+002	2.1929727E-001	-2.7037677E+002
3	0	7.871159900937346E+002	2.1909605E-001	-2.7040506E+002
3	0	7.876159900811035E+002	2.1890552E-001	-2.7038031E+002
3	0	7.881159900684725E+002	2.1871141E-001	-2.7037677E+002
3	0	7.886159900558414E+002	2.1850458E-001	-2.7039801E+002
3	0	7.891159900432103E+002	2.1828063E-001	-2.7038742E+002
3	0	7.896159900305793E+002	2.1805899E-001	-2.7037677E+002
3	0	7.901159900179482E+002	2.1787687E-001	-2.7035913E+002
3	0	7.906159900053171E+002	2.1769249E-001	-2.7036618E+002
3	0	7.911159899926861E+002	2.1751302E-001	-2.7035559E+002
3	0	7.916159899800550E+002	2.1733773E-001	-2.7037677E+002
3	0	7.921159899674240E+002	2.1716332E-001	-2.7038031E+002
3	0	7.926159899547929E+002	2.1697591E-001	-2.7038385E+002
3	0	7.931159899421618E+002	2.1675923E-001	-2.7036972E+002
3	0	7.936159899295308E+002	2.1655272E-001	-2.7040155E+002
3	0	7.941159899168997E+002	2.1639167E-001	-2.7041214E+002
3	0	7.946159899042686E+002	2.1621759E-001	-2.7038031E+002
3	0	7.951159898916376E+002	2.1605253E-001	-2.7035913E+002
3	0	7.956159898790065E+002	2.1589074E-001	-2.7039093E+002
3	0	7.961159898663755E+002	2.1572609E-001	-2.7038031E+002
3	0	7.966159898537444E+002	2.1554559E-001	-2.7035913E+002
3	0	7.971159898411133E+002	2.1534525E-001	-2.7037326E+002
3	0	7.976159898284823E+002	2.1515641E-001	-2.7037326E+002
3	0	7.981159898158512E+002	2.1500325E-001	-2.7038031E+002
3	0	7.986159898032201E+002	2.1484572E-001	-2.7035559E+002
3	0	7.991159897905891E+002	2.1469596E-001	-2.7039093E+002
3	0	7.996159897779580E+002	2.1455094E-001	-2.7035205E+002
3	0	8.001159897653270E+002	2.1440277E-001	-2.7039447E+002
3	0	8.006159897526959E+002	2.1423778E-001	-2.7037326E+002
3	0	8.011159897400648E+002	2.1405315E-001	-2.7040506E+002
3	0	8.016159897274338E+002	2.1387741E-001	-2.7038031E+002
3	0	8.021159897148027E+002	2.1374205E-001	-2.7038742E+002
3	0	8.026159897021716E+002	2.1359745E-001	-2.7036972E+002
3	0	8.031159896895406E+002	2.1345927E-001	-2.7039801E+002
3	0	8.036159896769095E+002	2.1332729E-001	-2.7039093E+002
3	0	8.041159896642785E+002	2.1319303E-001	-2.7036972E+002
3	0	8.046159896516474E+002	2.1304385E-001	-2.7036618E+002
3	0	8.051159896390163E+002	2.1287191E-001	-2.7036267E+002
3	0	8.056159896263853E+002	2.1270628E-001	-2.7035913E+002
3	0	8.061159896137542E+002	2.1258451E-001	-2.7036618E+002
3	0	8.066159896011231E+002	2.1245480E-001	-2.7037326E+002
3	0	8.071159895884921E+002	2.1233253E-001	-2.7038742E+002
3	0	8.076159895758610E+002	2.1220982E-001	-2.7038031E+002
3	0	8.081159895632300E+002	2.1207687E-001	-2.7038031E+002
3	0	8.086159895505989E+002	2.1191166E-001	-2.7039801E+002
3	0	8.091159895379678E+002	2.1176586E-001	-2.7037677E+002
3	0	8.096159895253368E+002	2.1162511E-001	-2.7038742E+002
3	0	8.101159895127057E+002	2.1152538E-001	-2.7039093E+002
3	0	8.106159895000746E+002	2.1142344E-001	-2.7039801E+002
3	0	8.111159894874436E+002	2.1131097E-001	-2.7036267E+002
3	0	8.116159894748125E+002	2.1119440E-001	-2.7039447E+002
3	0	8.121159894621815E+002	2.1107914E-001	-2.7038031E+002
3	0	8.121405894615600E+002	2.1101533E-001	-2.7039447E+002