EC-Lab ASCII FILE
Nb header lines : 55                          

Open Circuit Voltage

Run on channel : 1 (SN 81504)
User : 
CE vs. WE compliance from -10 V to 10 V
Electrode connection : standard
Potential control : Ewe
Ewe ctrl range : min = -2.50 V, max = 2.50 V
Safety Limits :
	Do not start on E overload
Acquisition started on : 05/09/2026 23:46:58.612
Loaded Setting File :  C:\PEM-WE_measurements\2026\372_IV_IV IrOx, 5 min Pt, 30 min C, etched cathode\new station\Loopeis new\1,46 V different time gaps closed cell\Loopeis 1,46V_30s_3_PEIS from 6500Hz to 1000Hz.mps
Saved on :
	File : L_03_Loopeis 1,46V_30s_3_PEIS from 6500Hz to 1000Hz_18_OCV_C01.mpr
	Directory : C:\PEM-WE_measurements\2026\372_IV_IV IrOx, 5 min Pt, 30 min C, etched cathode\new station\Loopeis new\1,46 V different time gaps closed cell\
	Host : 192.168.0.2
Device : SP-150e (SN .005491)
Address : 192.168.0.91
EC-LAB for windows v11.71 (software)
Internet server v28.00 (firmware)
Command interpretor v14.01 (firmware)
Electrode material : 
Initial state : 
Electrolyte : 
Comments : 
Current amplifier : SP-150eB-20A
Electrode surface area : 0.001 cm²
Characteristic mass : 0.001 g
Equivalent Weight : 0.000 g/eq.
Density : 0.000 g/cm3
Volume (V) : 0.001 cm³
Record Analogic IN 1
Text export
   Mode : Standard
   Time format : Elapsed
Cycle Definition : Charge/Discharge alternance
External device configuration :
   device type : Temperature Probe
   device name : Other
   Analog IN 1 : 
      unit : T/Â°C
      max : 100.000 at 2.000 V
      min : 0.000 at 1.460 V
tR (h:m:s)          0:00:30.0000        
dER/dt (mV/h)       1.0                 
record              <Ewe>               
dER (mV)            10.00               
dtR (s)             0.5000              
E range min (V)     -2.500              
E range max (V)     2.500               

mode	error	time/s	<Ewe/V>	Analog IN 1/V	
3	0	6.522189971086482E+002	1.4205203E+000	-2.7038385E+002
3	0	6.527189970960171E+002	1.4125630E+000	-2.7036618E+002
3	0	6.532189970833861E+002	1.4071342E+000	-2.7036618E+002
3	0	6.537189970707550E+002	1.4032153E+000	-2.7038031E+002
3	0	6.542189970581239E+002	1.4001223E+000	-2.7040155E+002
3	0	6.547189970454929E+002	1.3975729E+000	-2.7037326E+002
3	0	6.552189970328618E+002	1.3953961E+000	-2.7040155E+002
3	0	6.557189970202307E+002	1.3934920E+000	-2.7037677E+002
3	0	6.562189970075997E+002	1.3917242E+000	-2.7035559E+002
3	0	6.567189969949686E+002	1.3900621E+000	-2.7035913E+002
3	0	6.572189969823376E+002	1.3885987E+000	-2.7039447E+002
3	0	6.577189969697065E+002	1.3872912E+000	-2.7035559E+002
3	0	6.582189969570754E+002	1.3860824E+000	-2.7038385E+002
3	0	6.587189969444444E+002	1.3849564E+000	-2.7038031E+002
3	0	6.592189969318133E+002	1.3839124E+000	-2.7038385E+002
3	0	6.597189969191822E+002	1.3829099E+000	-2.7039447E+002
3	0	6.602189969065512E+002	1.3819067E+000	-2.7038742E+002
3	0	6.607189968939201E+002	1.3808953E+000	-2.7036267E+002
3	0	6.612189968812891E+002	1.3799806E+000	-2.7035913E+002
3	0	6.617189968686580E+002	1.3791564E+000	-2.7039447E+002
3	0	6.622189968560269E+002	1.3783687E+000	-2.7037677E+002
3	0	6.627189968433959E+002	1.3776107E+000	-2.7039093E+002
3	0	6.632189968307648E+002	1.3768905E+000	-2.7036618E+002
3	0	6.637189968181337E+002	1.3761759E+000	-2.7036972E+002
3	0	6.642189968055027E+002	1.3754227E+000	-2.7038742E+002
3	0	6.647189967928716E+002	1.3746408E+000	-2.7038742E+002
3	0	6.652189967802406E+002	1.3739276E+000	-2.7038031E+002
3	0	6.657189967676095E+002	1.3732805E+000	-2.7036972E+002
3	0	6.662189967549784E+002	1.3726425E+000	-2.7037326E+002
3	0	6.667189967423474E+002	1.3720156E+000	-2.7037677E+002
3	0	6.672189967297163E+002	1.3714099E+000	-2.7037677E+002
3	0	6.677189967170852E+002	1.3707956E+000	-2.7037677E+002
3	0	6.682189967044542E+002	1.3701428E+000	-2.7038031E+002
3	0	6.687189966918231E+002	1.3694315E+000	-2.7038385E+002
3	0	6.692189966791921E+002	1.3687714E+000	-2.7036618E+002
3	0	6.697189966665610E+002	1.3681792E+000	-2.7037326E+002
3	0	6.702189966539299E+002	1.3675783E+000	-2.7037677E+002
3	0	6.707189966412989E+002	1.3669851E+000	-2.7036972E+002
3	0	6.712189966286678E+002	1.3664031E+000	-2.7036972E+002
3	0	6.717189966160367E+002	1.3658119E+000	-2.7038742E+002
3	0	6.722189966034057E+002	1.3651736E+000	-2.7036618E+002
3	0	6.727189965907746E+002	1.3644876E+000	-2.7036972E+002
3	0	6.732189965781436E+002	1.3638542E+000	-2.7035913E+002
3	0	6.737189965655125E+002	1.3632853E+000	-2.7040155E+002
3	0	6.742189965528814E+002	1.3627149E+000	-2.7037677E+002
3	0	6.747189965402504E+002	1.3621454E+000	-2.7038031E+002
3	0	6.752189965276193E+002	1.3615937E+000	-2.7037677E+002
3	0	6.757189965149882E+002	1.3610235E+000	-2.7038385E+002
3	0	6.762189965023572E+002	1.3604076E+000	-2.7038031E+002
3	0	6.767189964897261E+002	1.3597362E+000	-2.7036972E+002
3	0	6.772189964770951E+002	1.3591211E+000	-2.7038742E+002
3	0	6.777189964644640E+002	1.3585557E+000	-2.7037326E+002
3	0	6.782189964518329E+002	1.3579866E+000	-2.7038742E+002
3	0	6.787189964392019E+002	1.3574281E+000	-2.7036972E+002
3	0	6.792189964265708E+002	1.3568661E+000	-2.7036618E+002
3	0	6.797189964139397E+002	1.3562999E+000	-2.7036972E+002
3	0	6.802189964013087E+002	1.3556845E+000	-2.7036972E+002
3	0	6.807189963886776E+002	1.3550152E+000	-2.7036618E+002
3	0	6.812189963760466E+002	1.3544018E+000	-2.7038385E+002
3	0	6.817189963634155E+002	1.3538190E+000	-2.7038031E+002
3	0	6.817193963634054E+002	1.3535647E+000	-2.7040506E+002