EC-Lab ASCII FILE
Nb header lines : 48                          

Open Circuit Voltage

Run on channel : 1 (SN 81504)
User : 
CE vs. WE compliance from -10 V to 10 V
Electrode connection : standard
Potential control : Ewe
Ewe ctrl range : min = -2.50 V, max = 2.50 V
Safety Limits :
	Do not start on E overload
Acquisition started on : 05/09/2026 23:34:18.990
Loaded Setting File :  C:\PEM-WE_measurements\2026\372_IV_IV IrOx, 5 min Pt, 30 min C, etched cathode\new station\Loopeis new\1,46 V different time gaps closed cell\Loopeis 1,46V_30s_2_PEIS from 65kHz to 10kHz.mps
Saved on :
	File : L_02_Loopeis 1,46V_30s_2_PEIS from 65kHz to 10kHz_12_OCV_C01.mpr
	Directory : C:\PEM-WE_measurements\2026\372_IV_IV IrOx, 5 min Pt, 30 min C, etched cathode\new station\Loopeis new\1,46 V different time gaps closed cell\
	Host : 192.168.0.2
Device : SP-150e (SN .005491)
Address : 192.168.0.91
EC-LAB for windows v11.71 (software)
Internet server v28.00 (firmware)
Command interpretor v14.01 (firmware)
Electrode material : 
Initial state : 
Electrolyte : 
Comments : 
Current amplifier : SP-150eB-20A
Electrode surface area : 0.001 cm²
Characteristic mass : 0.001 g
Equivalent Weight : 0.000 g/eq.
Density : 0.000 g/cm3
Volume (V) : 0.001 cm³
Record Analogic IN 1
Text export
   Mode : Standard
   Time format : Elapsed
Cycle Definition : Charge/Discharge alternance
tR (h:m:s)          0:00:30.0000        
dER/dt (mV/h)       1.0                 
record              <Ewe>               
dER (mV)            10.00               
dtR (s)             0.5000              
E range min (V)     -2.500              
E range max (V)     2.500               

mode	error	time/s	<Ewe/V>	Analog IN 1/V	
3	0	4.212135992359981E+002	1.2203560E+000	-1.5220648E-005
3	0	4.217135992233671E+002	1.2454376E+000	3.8648941E-006
3	0	4.222135992107360E+002	1.2503123E+000	3.8648941E-006
3	0	4.227135991981049E+002	1.2533243E+000	2.2950437E-005
3	0	4.232135991854739E+002	1.2554779E+000	3.8648941E-006
3	0	4.237135991728428E+002	1.2571017E+000	4.2035979E-005
3	0	4.242135991602117E+002	1.2583572E+000	-3.4306191E-005
3	0	4.247135991475807E+002	1.2593716E+000	-2.2516162E-004
3	0	4.252135991349496E+002	1.2602694E+000	3.8648941E-006
3	0	4.257135991223186E+002	1.2610383E+000	-7.2477276E-005
3	0	4.262135991096875E+002	1.2616843E+000	2.2950437E-005
3	0	4.267135990970564E+002	1.2622373E+000	-7.2477276E-005
3	0	4.272135990844254E+002	1.2627069E+000	-9.1562819E-005
3	0	4.277135990717943E+002	1.2630765E+000	-1.1064836E-004
3	0	4.282135990591632E+002	1.2633313E+000	-1.2973390E-004
3	0	4.287135990465322E+002	1.2635418E+000	1.9472031E-004
3	0	4.292135990339011E+002	1.2637640E+000	-1.5220648E-005
3	0	4.297135990212701E+002	1.2639563E+000	-5.3391734E-005
3	0	4.302135990086390E+002	1.2641041E+000	4.2035979E-005
3	0	4.307135989960079E+002	1.2642276E+000	-1.5220648E-005
3	0	4.312135989833769E+002	1.2643156E+000	3.8648941E-006
3	0	4.317135989707458E+002	1.2643493E+000	-1.2973390E-004
3	0	4.322135989581147E+002	1.2642921E+000	1.5654923E-004
3	0	4.327135989454837E+002	1.2642127E+000	-1.6790499E-004
3	0	4.332135989328526E+002	1.2641762E+000	-1.6790499E-004
3	0	4.337135989202216E+002	1.2641270E+000	4.2035979E-005
3	0	4.342135989075905E+002	1.2640551E+000	2.2950437E-005
3	0	4.347135988949594E+002	1.2639627E+000	-7.2477276E-005
3	0	4.352135988823284E+002	1.2638546E+000	-3.4306191E-005
3	0	4.357135988696973E+002	1.2636920E+000	3.8648941E-006
3	0	4.362135988570662E+002	1.2634611E+000	-2.0607607E-004
3	0	4.367135988444352E+002	1.2632117E+000	-5.3391734E-005
3	0	4.372135988318041E+002	1.2630068E+000	-7.2477276E-005
3	0	4.377135988191731E+002	1.2628026E+000	-1.6790499E-004
3	0	4.382135988065420E+002	1.2625829E+000	3.8648941E-006
3	0	4.387135987939109E+002	1.2623479E+000	3.8648941E-006
3	0	4.392135987812799E+002	1.2620974E+000	2.2950437E-005
3	0	4.397135987686488E+002	1.2618071E+000	8.0207064E-005
3	0	4.402135987560177E+002	1.2614377E+000	-3.4306191E-005
3	0	4.407135987433867E+002	1.2610482E+000	-1.6790499E-004
3	0	4.412135987307556E+002	1.2607057E+000	-1.8699054E-004
3	0	4.417135987181246E+002	1.2603610E+000	3.8648941E-006
3	0	4.422135987054935E+002	1.2600055E+000	-9.1562819E-005
3	0	4.427135986928624E+002	1.2596331E+000	-5.3391734E-005
3	0	4.432135986802314E+002	1.2592484E+000	-1.4881945E-004
3	0	4.437135986676003E+002	1.2588321E+000	3.8648941E-006
3	0	4.442135986549692E+002	1.2583407E+000	-1.6790499E-004
3	0	4.447135986423382E+002	1.2578305E+000	-3.4306191E-005
3	0	4.452135986297071E+002	1.2573839E+000	-1.8699054E-004
3	0	4.457135986170761E+002	1.2569411E+000	-1.2973390E-004
3	0	4.462135986044450E+002	1.2564917E+000	3.8648941E-006
3	0	4.467135985918139E+002	1.2560344E+000	4.2035979E-005
3	0	4.472135985791829E+002	1.2555763E+000	-1.5220648E-005
3	0	4.477135985665518E+002	1.2550697E+000	-3.4306191E-005
3	0	4.482135985539207E+002	1.2545021E+000	4.2035979E-005
3	0	4.487135985412897E+002	1.2539191E+000	-9.1562819E-005
3	0	4.492135985286586E+002	1.2533988E+000	-1.5220648E-005
3	0	4.497135985160276E+002	1.2528834E+000	-2.2516162E-004
3	0	4.502135985033965E+002	1.2523646E+000	-3.4306191E-005
3	0	4.507135984907654E+002	1.2518458E+000	-3.4306191E-005
3	0	4.507495984898560E+002	1.2515780E+000	-7.2477276E-005