EC-Lab ASCII FILE
Nb header lines : 55                          

Open Circuit Voltage

Run on channel : 1 (SN 81504)
User : 
CE vs. WE compliance from -10 V to 10 V
Electrode connection : standard
Potential control : Ewe
Ewe ctrl range : min = -2.50 V, max = 2.50 V
Safety Limits :
	Do not start on E overload
Acquisition started on : 05/08/2026 01:25:27.042
Loaded Setting File :  C:\PEM-WE_measurements\2026\372_IV_IV IrOx, 5 min Pt, 30 min C, etched cathode\new station\Loopeis new\1,46 V different time gaps open cell\Loopeis 1,46V_180s_5_PEIS from 65Hz to 10Hz.mps
Saved on :
	File : L_30_Loopeis 1,46V_180s_5_PEIS from 65Hz to 10Hz_14_OCV_C01.mpr
	Directory : C:\PEM-WE_measurements\2026\372_IV_IV IrOx, 5 min Pt, 30 min C, etched cathode\new station\Loopeis new\1,46 V different time gaps open cell\
	Host : 192.168.0.2
Device : SP-150e (SN .005491)
Address : 192.168.0.91
EC-LAB for windows v11.71 (software)
Internet server v28.00 (firmware)
Command interpretor v14.01 (firmware)
Electrode material : 
Initial state : 
Electrolyte : 
Comments : 
Current amplifier : SP-150eB-20A
Electrode surface area : 0.001 cm²
Characteristic mass : 0.001 g
Equivalent Weight : 0.000 g/eq.
Density : 0.000 g/cm3
Volume (V) : 0.001 cm³
Record Analogic IN 1
Text export
   Mode : Standard
   Time format : Elapsed
Cycle Definition : Charge/Discharge alternance
External device configuration :
   device type : Temperature Probe
   device name : Other
   Analog IN 1 : 
      unit : T/Â°C
      max : 100.000 at 2.000 V
      min : 0.000 at 1.460 V
tR (h:m:s)          0:03:0.0000         
dER/dt (mV/h)       1.0                 
record              <Ewe>               
dER (mV)            10.00               
dtR (s)             0.5000              
E range min (V)     -2.500              
E range max (V)     2.500               

mode	error	time/s	<Ewe/V>	Analog IN 1/V	
3	0	1.409686175242678E+003	1.2229022E+000	-2.7039093E+002
3	0	1.410186175230047E+003	1.1755227E+000	-2.7038385E+002
3	0	1.410686175217415E+003	8.3016938E-001	-2.7037677E+002
3	0	1.411186175204784E+003	4.2806384E-001	-2.7038385E+002
3	0	1.411686175192153E+003	3.4583026E-001	-2.7038031E+002
3	0	1.412186175179522E+003	3.3332732E-001	-2.7037326E+002
3	0	1.412686175166891E+003	3.2536876E-001	-2.7038742E+002
3	0	1.413186175154260E+003	3.1912008E-001	-2.7036618E+002
3	0	1.413686175141629E+003	3.1435567E-001	-2.7037677E+002
3	0	1.414186175128998E+003	3.1069547E-001	-2.7037326E+002
3	0	1.414686175116367E+003	3.0780098E-001	-2.7038742E+002
3	0	1.415186175103736E+003	3.0547822E-001	-2.7035205E+002
3	0	1.415686175091105E+003	3.0355451E-001	-2.7039093E+002
3	0	1.416186175078474E+003	3.0192021E-001	-2.7038385E+002
3	0	1.416686175065843E+003	3.0050209E-001	-2.7038031E+002
3	0	1.417186175053212E+003	2.9925558E-001	-2.7035205E+002
3	0	1.417686175040581E+003	2.9812819E-001	-2.7036618E+002
3	0	1.418186175027950E+003	2.9707226E-001	-2.7036972E+002
3	0	1.418686175015318E+003	2.9610246E-001	-2.7036618E+002
3	0	1.419186175002687E+003	2.9523590E-001	-2.7040860E+002
3	0	1.419686174990056E+003	2.9442170E-001	-2.7036618E+002
3	0	1.420186174977425E+003	2.9365817E-001	-2.7036618E+002
3	0	1.420686174964794E+003	2.9292995E-001	-2.7038742E+002
3	0	1.421186174952163E+003	2.9222986E-001	-2.7035913E+002
3	0	1.421686174939532E+003	2.9153919E-001	-2.7038742E+002
3	0	1.422186174926901E+003	2.9084069E-001	-2.7038031E+002
3	0	1.422686174914270E+003	2.9016787E-001	-2.7037326E+002
3	0	1.423186174901639E+003	2.8955179E-001	-2.7036267E+002
3	0	1.423686174889008E+003	2.8894579E-001	-2.7038742E+002
3	0	1.424186174876377E+003	2.8835663E-001	-2.7038742E+002
3	0	1.424686174863746E+003	2.8777626E-001	-2.7037677E+002
3	0	1.425186174851115E+003	2.8720590E-001	-2.7038385E+002
3	0	1.425686174838484E+003	2.8663701E-001	-2.7040506E+002
3	0	1.426186174825853E+003	2.8604048E-001	-2.7036618E+002
3	0	1.426686174813221E+003	2.8545859E-001	-2.7036972E+002
3	0	1.427186174800590E+003	2.8492960E-001	-2.7038385E+002
3	0	1.427686174787959E+003	2.8440434E-001	-2.7037677E+002
3	0	1.428186174775328E+003	2.8388223E-001	-2.7038385E+002
3	0	1.428686174762697E+003	2.8336790E-001	-2.7039447E+002
3	0	1.429186174750066E+003	2.8285819E-001	-2.7038742E+002
3	0	1.429686174737435E+003	2.8235036E-001	-2.7037326E+002
3	0	1.430186174724804E+003	2.8182447E-001	-2.7037677E+002
3	0	1.430686174712173E+003	2.8129005E-001	-2.7037677E+002
3	0	1.431186174699542E+003	2.8081110E-001	-2.7039093E+002
3	0	1.431686174686911E+003	2.8033030E-001	-2.7039093E+002
3	0	1.432186174674280E+003	2.7985340E-001	-2.7037326E+002
3	0	1.432686174661649E+003	2.7938700E-001	-2.7037326E+002
3	0	1.433186174649018E+003	2.7892479E-001	-2.7040155E+002
3	0	1.433686174636387E+003	2.7844778E-001	-2.7038031E+002
3	0	1.434186174623756E+003	2.7796289E-001	-2.7037677E+002
3	0	1.434686174611124E+003	2.7747491E-001	-2.7038385E+002
3	0	1.435186174598493E+003	2.7703121E-001	-2.7039801E+002
3	0	1.435686174585862E+003	2.7659157E-001	-2.7036972E+002
3	0	1.436186174573231E+003	2.7615392E-001	-2.7036618E+002
3	0	1.436686174560600E+003	2.7572623E-001	-2.7038742E+002
3	0	1.437186174547969E+003	2.7529496E-001	-2.7036618E+002
3	0	1.437686174535338E+003	2.7486074E-001	-2.7035205E+002
3	0	1.438186174522707E+003	2.7441388E-001	-2.7038742E+002
3	0	1.438686174510076E+003	2.7396455E-001	-2.7037326E+002
3	0	1.439186174497445E+003	2.7356216E-001	-2.7037677E+002
3	0	1.439686174484814E+003	2.7315050E-001	-2.7040155E+002
3	0	1.440186174472183E+003	2.7274838E-001	-2.7039447E+002
3	0	1.440686174459552E+003	2.7235451E-001	-2.7037677E+002
3	0	1.441186174446921E+003	2.7195987E-001	-2.7038385E+002
3	0	1.441686174434290E+003	2.7154940E-001	-2.7037326E+002
3	0	1.442186174421659E+003	2.7112567E-001	-2.7038031E+002
3	0	1.442686174409027E+003	2.7071536E-001	-2.7039447E+002
3	0	1.443186174396396E+003	2.7033874E-001	-2.7038742E+002
3	0	1.443686174383765E+003	2.6995996E-001	-2.7037677E+002
3	0	1.444186174371134E+003	2.6959467E-001	-2.7039093E+002
3	0	1.444686174358503E+003	2.6923347E-001	-2.7038385E+002
3	0	1.445186174345872E+003	2.6886651E-001	-2.7035913E+002
3	0	1.445686174333241E+003	2.6849377E-001	-2.7035559E+002
3	0	1.446186174320610E+003	2.6810604E-001	-2.7038742E+002
3	0	1.446686174307979E+003	2.6772279E-001	-2.7036267E+002
3	0	1.447186174295348E+003	2.6737922E-001	-2.7036267E+002
3	0	1.447686174282717E+003	2.6703584E-001	-2.7037326E+002
3	0	1.448186174270086E+003	2.6669961E-001	-2.7036618E+002
3	0	1.448686174257455E+003	2.6636046E-001	-2.7039093E+002
3	0	1.449186174244824E+003	2.6602378E-001	-2.7038385E+002
3	0	1.449686174232193E+003	2.6568615E-001	-2.7036618E+002
3	0	1.450186174219562E+003	2.6532850E-001	-2.7038031E+002
3	0	1.450686174206930E+003	2.6496962E-001	-2.7037326E+002
3	0	1.451186174194299E+003	2.6466045E-001	-2.7037677E+002
3	0	1.451686174181668E+003	2.6434851E-001	-2.7038742E+002
3	0	1.452186174169037E+003	2.6404181E-001	-2.7038031E+002
3	0	1.452686174156406E+003	2.6373836E-001	-2.7037326E+002
3	0	1.453186174143775E+003	2.6343229E-001	-2.7038031E+002
3	0	1.453686174131144E+003	2.6311502E-001	-2.7038742E+002
3	0	1.454186174118513E+003	2.6277989E-001	-2.7039447E+002
3	0	1.454686174105882E+003	2.6245034E-001	-2.7036972E+002
3	0	1.455186174093251E+003	2.6216280E-001	-2.7038385E+002
3	0	1.455686174080620E+003	2.6187682E-001	-2.7036267E+002
3	0	1.456186174067989E+003	2.6159120E-001	-2.7038742E+002
3	0	1.456686174055358E+003	2.6131767E-001	-2.7035559E+002
3	0	1.457186174042727E+003	2.6102793E-001	-2.7038385E+002
3	0	1.457686174030096E+003	2.6074195E-001	-2.7036972E+002
3	0	1.458186174017465E+003	2.6043457E-001	-2.7037677E+002
3	0	1.458686174004833E+003	2.6013407E-001	-2.7039447E+002
3	0	1.459186173992202E+003	2.5987595E-001	-2.7036618E+002
3	0	1.459686173979571E+003	2.5961867E-001	-2.7035913E+002
3	0	1.460186173966940E+003	2.5935608E-001	-2.7038385E+002
3	0	1.460686173954309E+003	2.5910306E-001	-2.7038385E+002
3	0	1.461186173941678E+003	2.5883514E-001	-2.7036972E+002
3	0	1.461686173929047E+003	2.5854695E-001	-2.7039447E+002
3	0	1.462186173916416E+003	2.5827408E-001	-2.7038031E+002
3	0	1.462686173903785E+003	2.5800654E-001	-2.7039447E+002
3	0	1.463186173891154E+003	2.5777686E-001	-2.7037326E+002
3	0	1.463686173878523E+003	2.5754437E-001	-2.7038031E+002
3	0	1.464186173865892E+003	2.5731298E-001	-2.7034143E+002
3	0	1.464686173853261E+003	2.5706673E-001	-2.7039093E+002
3	0	1.465186173840630E+003	2.5682402E-001	-2.7038385E+002
3	0	1.465686173827999E+003	2.5656810E-001	-2.7036267E+002
3	0	1.466186173815368E+003	2.5630057E-001	-2.7039801E+002
3	0	1.466686173802736E+003	2.5604081E-001	-2.7037326E+002
3	0	1.467186173790105E+003	2.5581485E-001	-2.7037677E+002
3	0	1.467686173777474E+003	2.5560910E-001	-2.7038742E+002
3	0	1.468186173764843E+003	2.5539118E-001	-2.7038742E+002
3	0	1.468686173752212E+003	2.5517514E-001	-2.7036972E+002
3	0	1.469186173739581E+003	2.5495365E-001	-2.7037326E+002
3	0	1.469686173726950E+003	2.5472367E-001	-2.7038742E+002
3	0	1.470186173714319E+003	2.5447497E-001	-2.7037326E+002
3	0	1.470686173701688E+003	2.5423968E-001	-2.7038742E+002
3	0	1.471186173689057E+003	2.5404152E-001	-2.7039801E+002
3	0	1.471686173676426E+003	2.5384617E-001	-2.7038031E+002
3	0	1.472186173663795E+003	2.5364670E-001	-2.7039093E+002
3	0	1.472686173651164E+003	2.5344592E-001	-2.7037326E+002
3	0	1.473186173638533E+003	2.5324610E-001	-2.7038385E+002
3	0	1.473686173625902E+003	2.5304312E-001	-2.7041568E+002
3	0	1.474186173613271E+003	2.5280938E-001	-2.7037326E+002
3	0	1.474686173600639E+003	2.5258020E-001	-2.7040860E+002
3	0	1.475186173588008E+003	2.5239971E-001	-2.7038031E+002
3	0	1.475686173575377E+003	2.5222310E-001	-2.7037326E+002
3	0	1.476186173562746E+003	2.5203598E-001	-2.7038385E+002
3	0	1.476686173550115E+003	2.5185084E-001	-2.7037677E+002
3	0	1.477186173537484E+003	2.5166658E-001	-2.7038742E+002
3	0	1.477686173524853E+003	2.5147188E-001	-2.7039801E+002
3	0	1.478186173512222E+003	2.5125229E-001	-2.7035913E+002
3	0	1.478686173499591E+003	2.5104618E-001	-2.7038385E+002
3	0	1.479186173486960E+003	2.5087535E-001	-2.7036267E+002
3	0	1.479686173474329E+003	2.5071961E-001	-2.7037326E+002
3	0	1.480186173461698E+003	2.5055742E-001	-2.7037677E+002
3	0	1.480686173449067E+003	2.5038829E-001	-2.7037326E+002
3	0	1.481186173436436E+003	2.5021565E-001	-2.7037326E+002
3	0	1.481686173423805E+003	2.5003397E-001	-2.7040506E+002
3	0	1.482186173411174E+003	2.4983229E-001	-2.7034497E+002
3	0	1.482686173398542E+003	2.4963140E-001	-2.7035913E+002
3	0	1.483186173385911E+003	2.4947427E-001	-2.7036972E+002
3	0	1.483686173373280E+003	2.4932864E-001	-2.7039093E+002
3	0	1.484186173360649E+003	2.4918030E-001	-2.7039093E+002
3	0	1.484686173348018E+003	2.4902184E-001	-2.7036267E+002
3	0	1.485186173335387E+003	2.4886838E-001	-2.7038031E+002
3	0	1.485686173322756E+003	2.4870317E-001	-2.7039801E+002
3	0	1.486186173310125E+003	2.4850926E-001	-2.7039801E+002
3	0	1.486686173297494E+003	2.4831744E-001	-2.7038742E+002
3	0	1.487186173284863E+003	2.4817497E-001	-2.7039093E+002
3	0	1.487686173272232E+003	2.4803993E-001	-2.7036267E+002
3	0	1.488186173259601E+003	2.4790139E-001	-2.7034497E+002
3	0	1.488686173246970E+003	2.4775770E-001	-2.7037677E+002
3	0	1.489186173234339E+003	2.4761494E-001	-2.7039447E+002
3	0	1.489686173221708E+003	2.4745968E-001	-2.7038031E+002
3	0	1.490186173209077E+003	2.4728499E-001	-2.7035559E+002
3	0	1.490686173196445E+003	2.4710104E-001	-2.7036618E+002
3	0	1.491186173183814E+003	2.4696440E-001	-2.7037326E+002
3	0	1.491686173171183E+003	2.4684523E-001	-2.7039447E+002
3	0	1.492186173158552E+003	2.4671488E-001	-2.7038742E+002
3	0	1.492686173145921E+003	2.4658258E-001	-2.7035913E+002
3	0	1.493186173133290E+003	2.4645613E-001	-2.7036618E+002
3	0	1.493686173120659E+003	2.4630207E-001	-2.7036972E+002
3	0	1.494186173108028E+003	2.4613087E-001	-2.7037326E+002
3	0	1.494686173095397E+003	2.4596244E-001	-2.7040860E+002
3	0	1.495186173082766E+003	2.4584159E-001	-2.7038742E+002
3	0	1.495686173070135E+003	2.4572562E-001	-2.7039447E+002
3	0	1.496186173057504E+003	2.4560775E-001	-2.7039093E+002
3	0	1.496686173044873E+003	2.4548285E-001	-2.7039093E+002
3	0	1.497186173032242E+003	2.4536180E-001	-2.7036267E+002
3	0	1.497686173019611E+003	2.4522501E-001	-2.7036618E+002
3	0	1.498186173006980E+003	2.4506496E-001	-2.7036267E+002
3	0	1.498686172994348E+003	2.4490021E-001	-2.7036972E+002
3	0	1.499186172981717E+003	2.4478354E-001	-2.7035913E+002
3	0	1.499686172969086E+003	2.4467398E-001	-2.7038031E+002
3	0	1.500186172956455E+003	2.4456261E-001	-2.7036618E+002
3	0	1.500686172943824E+003	2.4444544E-001	-2.7036618E+002
3	0	1.501186172931193E+003	2.4432953E-001	-2.7038031E+002
3	0	1.501686172918562E+003	2.4419460E-001	-2.7038385E+002
3	0	1.502186172905931E+003	2.4404010E-001	-2.7037677E+002
3	0	1.502686172893300E+003	2.4388377E-001	-2.7036618E+002
3	0	1.503186172880669E+003	2.4376900E-001	-2.7039447E+002
3	0	1.503686172868038E+003	2.4366830E-001	-2.7037677E+002
3	0	1.504186172855407E+003	2.4355413E-001	-2.7039093E+002
3	0	1.504686172842776E+003	2.4344249E-001	-2.7037677E+002
3	0	1.505186172830145E+003	2.4332891E-001	-2.7039801E+002
3	0	1.505686172817514E+003	2.4320574E-001	-2.7040506E+002
3	0	1.506186172804883E+003	2.4305545E-001	-2.7037326E+002
3	0	1.506686172792251E+003	2.4290875E-001	-2.7036618E+002
3	0	1.507186172779620E+003	2.4280404E-001	-2.7036618E+002
3	0	1.507686172766989E+003	2.4271335E-001	-2.7038742E+002
3	0	1.508186172754358E+003	2.4261740E-001	-2.7039801E+002
3	0	1.508686172741727E+003	2.4251384E-001	-2.7036972E+002
3	0	1.509186172729096E+003	2.4241063E-001	-2.7038031E+002
3	0	1.509686172716465E+003	2.4229471E-001	-2.7036267E+002
3	0	1.510186172703834E+003	2.4215819E-001	-2.7037326E+002
3	0	1.510686172691203E+003	2.4201779E-001	-2.7039093E+002
3	0	1.511186172678572E+003	2.4192284E-001	-2.7039093E+002
3	0	1.511686172665941E+003	2.4184237E-001	-2.7038385E+002
3	0	1.512186172653310E+003	2.4175252E-001	-2.7035559E+002
3	0	1.512686172640679E+003	2.4165656E-001	-2.7036267E+002
3	0	1.513186172628048E+003	2.4156320E-001	-2.7037326E+002
3	0	1.513686172615417E+003	2.4145702E-001	-2.7038385E+002
3	0	1.514186172602786E+003	2.4132507E-001	-2.7037677E+002
3	0	1.514686172590154E+003	2.4119149E-001	-2.7040155E+002
3	0	1.515186172577523E+003	2.4110213E-001	-2.7036972E+002
3	0	1.515686172564892E+003	2.4102530E-001	-2.7036972E+002
3	0	1.516186172552261E+003	2.4093638E-001	-2.7039093E+002
3	0	1.516686172539630E+003	2.4085137E-001	-2.7035913E+002
3	0	1.517186172526999E+003	2.4076658E-001	-2.7033084E+002
3	0	1.517686172514368E+003	2.4066360E-001	-2.7038742E+002
3	0	1.518186172501737E+003	2.4053842E-001	-2.7036618E+002
3	0	1.518686172489106E+003	2.4040909E-001	-2.7036618E+002
3	0	1.519186172476475E+003	2.4032687E-001	-2.7035913E+002
3	0	1.519686172463844E+003	2.4024893E-001	-2.7038031E+002
3	0	1.520186172451213E+003	2.4017030E-001	-2.7035913E+002
3	0	1.520686172438582E+003	2.4008788E-001	-2.7036972E+002
3	0	1.521186172425951E+003	2.4000086E-001	-2.7034851E+002
3	0	1.521686172413320E+003	2.3990585E-001	-2.7036618E+002
3	0	1.522186172400689E+003	2.3978141E-001	-2.7037326E+002
3	0	1.522686172388057E+003	2.3965675E-001	-2.7037677E+002
3	0	1.523186172375426E+003	2.3957323E-001	-2.7035559E+002
3	0	1.523686172362795E+003	2.3949800E-001	-2.7038031E+002
3	0	1.524186172350164E+003	2.3941758E-001	-2.7039447E+002
3	0	1.524686172337533E+003	2.3933363E-001	-2.7036267E+002
3	0	1.525186172324902E+003	2.3924918E-001	-2.7037677E+002
3	0	1.525686172312271E+003	2.3915534E-001	-2.7037677E+002
3	0	1.526186172299640E+003	2.3903798E-001	-2.7040506E+002
3	0	1.526686172287009E+003	2.3891930E-001	-2.7039447E+002
3	0	1.527186172274378E+003	2.3884188E-001	-2.7036972E+002
3	0	1.527686172261747E+003	2.3877379E-001	-2.7038742E+002
3	0	1.528186172249116E+003	2.3869835E-001	-2.7039093E+002
3	0	1.528686172236485E+003	2.3862500E-001	-2.7036972E+002
3	0	1.529186172223854E+003	2.3855291E-001	-2.7038031E+002
3	0	1.529686172211223E+003	2.3845324E-001	-2.7039093E+002
3	0	1.530186172198592E+003	2.3833519E-001	-2.7038385E+002
3	0	1.530686172185960E+003	2.3821741E-001	-2.7038031E+002
3	0	1.531186172173329E+003	2.3813720E-001	-2.7039447E+002
3	0	1.531686172160698E+003	2.3806734E-001	-2.7038031E+002
3	0	1.532186172148067E+003	2.3799649E-001	-2.7038385E+002
3	0	1.532686172135436E+003	2.3791212E-001	-2.7038742E+002
3	0	1.533186172122805E+003	2.3783597E-001	-2.7039093E+002
3	0	1.533686172110174E+003	2.3773628E-001	-2.7037326E+002
3	0	1.534186172097543E+003	2.3762672E-001	-2.7038031E+002
3	0	1.534686172084912E+003	2.3750962E-001	-2.7037326E+002
3	0	1.535186172072281E+003	2.3743825E-001	-2.7037326E+002
3	0	1.535686172059650E+003	2.3737442E-001	-2.7038742E+002
3	0	1.536186172047019E+003	2.3730174E-001	-2.7038385E+002
3	0	1.536686172034388E+003	2.3722482E-001	-2.7037677E+002
3	0	1.537186172021757E+003	2.3715250E-001	-2.7040506E+002
3	0	1.537686172009126E+003	2.3706591E-001	-2.7038742E+002
3	0	1.538186171996495E+003	2.3695260E-001	-2.7037677E+002
3	0	1.538686171983863E+003	2.3684445E-001	-2.7036618E+002
3	0	1.539186171971232E+003	2.3677489E-001	-2.7036618E+002
3	0	1.539686171958601E+003	2.3671810E-001	-2.7036972E+002
3	0	1.540186171945970E+003	2.3665504E-001	-2.7038385E+002
3	0	1.540686171933339E+003	2.3659176E-001	-2.7035559E+002
3	0	1.541186171920708E+003	2.3651952E-001	-2.7039801E+002
3	0	1.541686171908077E+003	2.3642963E-001	-2.7038031E+002
3	0	1.542186171895446E+003	2.3631869E-001	-2.7035913E+002
3	0	1.542686171882815E+003	2.3621169E-001	-2.7037326E+002
3	0	1.543186171870184E+003	2.3614565E-001	-2.7037326E+002
3	0	1.543686171857553E+003	2.3608421E-001	-2.7037677E+002
3	0	1.544186171844922E+003	2.3601826E-001	-2.7036618E+002
3	0	1.544686171832291E+003	2.3594154E-001	-2.7038031E+002
3	0	1.545186171819660E+003	2.3587337E-001	-2.7035913E+002
3	0	1.545686171807029E+003	2.3578991E-001	-2.7039093E+002
3	0	1.546186171794398E+003	2.3569153E-001	-2.7039801E+002
3	0	1.546686171781766E+003	2.3558635E-001	-2.7038031E+002
3	0	1.547186171769135E+003	2.3552504E-001	-2.7037326E+002
3	0	1.547686171756504E+003	2.3546845E-001	-2.7036267E+002
3	0	1.548186171743873E+003	2.3540668E-001	-2.7039447E+002
3	0	1.548686171731242E+003	2.3534779E-001	-2.7039447E+002
3	0	1.549186171718611E+003	2.3528381E-001	-2.7038742E+002
3	0	1.549686171705980E+003	2.3520324E-001	-2.7039447E+002
3	0	1.550186171693349E+003	2.3510225E-001	-2.7039447E+002
3	0	1.550686171680718E+003	2.3499739E-001	-2.7035913E+002
3	0	1.551186171668087E+003	2.3494059E-001	-2.7035205E+002
3	0	1.551686171655456E+003	2.3489146E-001	-2.7037326E+002
3	0	1.552186171642825E+003	2.3483478E-001	-2.7039447E+002
3	0	1.552686171630194E+003	2.3478019E-001	-2.7036972E+002
3	0	1.553186171617563E+003	2.3472452E-001	-2.7038742E+002
3	0	1.553686171604932E+003	2.3464642E-001	-2.7038385E+002
3	0	1.554186171592301E+003	2.3454791E-001	-2.7038742E+002
3	0	1.554686171579669E+003	2.3444840E-001	-2.7035205E+002
3	0	1.555186171567038E+003	2.3439391E-001	-2.7039447E+002
3	0	1.555686171554407E+003	2.3435241E-001	-2.7035559E+002
3	0	1.556186171541776E+003	2.3429498E-001	-2.7038742E+002
3	0	1.556686171529145E+003	2.3423846E-001	-2.7039801E+002
3	0	1.557186171516514E+003	2.3418324E-001	-2.7038031E+002
3	0	1.557686171503883E+003	2.3411340E-001	-2.7039447E+002
3	0	1.558186171491252E+003	2.3401654E-001	-2.7038742E+002
3	0	1.558686171478621E+003	2.3392062E-001	-2.7036267E+002
3	0	1.559186171465990E+003	2.3386720E-001	-2.7039093E+002
3	0	1.559686171453359E+003	2.3382315E-001	-2.7036618E+002
3	0	1.560186171440728E+003	2.3377047E-001	-2.7039801E+002
3	0	1.560686171428097E+003	2.3371190E-001	-2.7039447E+002
3	0	1.561186171415466E+003	2.3365638E-001	-2.7037326E+002
3	0	1.561686171402835E+003	2.3358041E-001	-2.7038031E+002
3	0	1.562186171390204E+003	2.3348734E-001	-2.7038031E+002
3	0	1.562686171377572E+003	2.3339376E-001	-2.7034497E+002
3	0	1.563186171364941E+003	2.3334381E-001	-2.7038742E+002
3	0	1.563686171352310E+003	2.3330137E-001	-2.7038031E+002
3	0	1.564186171339679E+003	2.3324925E-001	-2.7038742E+002
3	0	1.564686171327048E+003	2.3319654E-001	-2.7038742E+002
3	0	1.565186171314417E+003	2.3313236E-001	-2.7038031E+002
3	0	1.565686171301786E+003	2.3306513E-001	-2.7038031E+002
3	0	1.566186171289155E+003	2.3296808E-001	-2.7040860E+002
3	0	1.566686171276524E+003	2.3287855E-001	-2.7035205E+002
3	0	1.567186171263893E+003	2.3282948E-001	-2.7038385E+002
3	0	1.567686171251262E+003	2.3278677E-001	-2.7038742E+002
3	0	1.568186171238631E+003	2.3273829E-001	-2.7038742E+002
3	0	1.568686171226000E+003	2.3268332E-001	-2.7039447E+002
3	0	1.569186171213369E+003	2.3263216E-001	-2.7036972E+002
3	0	1.569686171200738E+003	2.3256642E-001	-2.7040860E+002
3	0	1.570186171188107E+003	2.3247130E-001	-2.7040860E+002
3	0	1.570686171175475E+003	2.3238248E-001	-2.7038742E+002
3	0	1.571186171162844E+003	2.3233888E-001	-2.7039093E+002
3	0	1.571686171150213E+003	2.3229876E-001	-2.7035205E+002
3	0	1.572186171137582E+003	2.3224927E-001	-2.7038031E+002
3	0	1.572686171124951E+003	2.3220101E-001	-2.7036267E+002
3	0	1.573186171112320E+003	2.3215473E-001	-2.7037677E+002
3	0	1.573686171099689E+003	2.3208712E-001	-2.7036618E+002
3	0	1.574186171087058E+003	2.3200321E-001	-2.7037677E+002
3	0	1.574686171074427E+003	2.3191468E-001	-2.7035913E+002
3	0	1.575186171061796E+003	2.3187448E-001	-2.7038742E+002
3	0	1.575686171049165E+003	2.3183756E-001	-2.7038385E+002
3	0	1.576186171036534E+003	2.3179360E-001	-2.7035205E+002
3	0	1.576686171023903E+003	2.3174764E-001	-2.7037326E+002
3	0	1.577186171011272E+003	2.3170511E-001	-2.7037326E+002
3	0	1.577686170998641E+003	2.3164235E-001	-2.7039093E+002
3	0	1.578186170986010E+003	2.3155648E-001	-2.7038385E+002
3	0	1.578686170973378E+003	2.3147026E-001	-2.7038742E+002
3	0	1.579186170960747E+003	2.3142529E-001	-2.7036618E+002
3	0	1.579686170948116E+003	2.3138736E-001	-2.7037677E+002
3	0	1.580186170935485E+003	2.3134591E-001	-2.7039801E+002
3	0	1.580686170922854E+003	2.3130018E-001	-2.7039093E+002
3	0	1.581186170910223E+003	2.3125626E-001	-2.7038031E+002
3	0	1.581686170897592E+003	2.3119698E-001	-2.7036618E+002
3	0	1.582186170884961E+003	2.3111263E-001	-2.7037326E+002
3	0	1.582686170872330E+003	2.3102005E-001	-2.7039093E+002
3	0	1.583186170859699E+003	2.3097667E-001	-2.7040506E+002
3	0	1.583686170847068E+003	2.3093939E-001	-2.7040506E+002
3	0	1.584186170834437E+003	2.3089595E-001	-2.7036267E+002
3	0	1.584686170821806E+003	2.3084623E-001	-2.7036972E+002
3	0	1.585186170809175E+003	2.3079219E-001	-2.7036618E+002
3	0	1.585686170796544E+003	2.3073290E-001	-2.7037677E+002
3	0	1.586186170783913E+003	2.3064607E-001	-2.7038742E+002
3	0	1.586686170771281E+003	2.3056369E-001	-2.7038742E+002
3	0	1.587186170758650E+003	2.3052184E-001	-2.7034497E+002
3	0	1.587686170746019E+003	2.3048964E-001	-2.7038385E+002
3	0	1.588186170733388E+003	2.3045279E-001	-2.7039801E+002
3	0	1.588686170720757E+003	2.3041125E-001	-2.7037326E+002
3	0	1.589186170708126E+003	2.3036709E-001	-2.7039447E+002
3	0	1.589186570708116E+003	2.3022597E-001	-2.7035913E+002