EC-Lab ASCII FILE
Nb header lines : 55                          

Open Circuit Voltage

Run on channel : 1 (SN 81504)
User : 
CE vs. WE compliance from -10 V to 10 V
Electrode connection : standard
Potential control : Ewe
Ewe ctrl range : min = -2.50 V, max = 2.50 V
Safety Limits :
	Do not start on E overload
Acquisition started on : 05/10/2026 06:49:56.074
Loaded Setting File :  C:\PEM-WE_measurements\2026\372_IV_IV IrOx, 5 min Pt, 30 min C, etched cathode\new station\Loopeis new\1,46 V different time gaps closed cell\Loopeis 1,46V_120s_4_PEIS from 650Hz to 100Hz.mps
Saved on :
	File : L_24_Loopeis 1,46V_120s_4_PEIS from 650Hz to 100Hz_02_OCV_C01.mpr
	Directory : C:\PEM-WE_measurements\2026\372_IV_IV IrOx, 5 min Pt, 30 min C, etched cathode\new station\Loopeis new\1,46 V different time gaps closed cell\
	Host : 192.168.0.2
Device : SP-150e (SN .005491)
Address : 192.168.0.91
EC-LAB for windows v11.71 (software)
Internet server v28.00 (firmware)
Command interpretor v14.01 (firmware)
Electrode material : 
Initial state : 
Electrolyte : 
Comments : 
Current amplifier : SP-150eB-20A
Electrode surface area : 0.001 cm²
Characteristic mass : 0.001 g
Equivalent Weight : 0.000 g/eq.
Density : 0.000 g/cm3
Volume (V) : 0.001 cm³
Record Analogic IN 1
Text export
   Mode : Standard
   Time format : Elapsed
Cycle Definition : Charge/Discharge alternance
External device configuration :
   device type : Temperature Probe
   device name : Other
   Analog IN 1 : 
      unit : T/Â°C
      max : 100.000 at 2.000 V
      min : 0.000 at 1.460 V
tR (h:m:s)          0:02:0.0000         
dER/dt (mV/h)       1.0                 
record              <Ewe>               
dER (mV)            10.00               
dtR (s)             0.5000              
E range min (V)     -2.500              
E range max (V)     2.500               

mode	error	time/s	<Ewe/V>	Analog IN 1/V	
3	0	4.549979885057837E+001	1.2908070E+000	-2.7036618E+002
3	0	4.599979883794731E+001	1.2973382E+000	-2.7038031E+002
3	0	4.649979882531625E+001	1.2937237E+000	-2.7039801E+002
3	0	4.699979881268519E+001	1.2842362E+000	-2.7040506E+002
3	0	4.749979880005412E+001	1.2669628E+000	-2.7037677E+002
3	0	4.799979878742306E+001	1.2386372E+000	-2.7039447E+002
3	0	4.849979877479200E+001	1.1926332E+000	-2.7036267E+002
3	0	4.899979876216094E+001	1.1094854E+000	-2.7035559E+002
3	0	4.949979874952987E+001	8.7170309E-001	-2.7038742E+002
3	0	4.999979873689881E+001	5.5472112E-001	-2.7037677E+002
3	0	5.049979872426775E+001	4.4473103E-001	-2.7036267E+002
3	0	5.099979871163669E+001	4.0846688E-001	-2.7036267E+002
3	0	5.149979869900562E+001	3.9794171E-001	-2.7039801E+002
3	0	5.199979868637456E+001	3.9429131E-001	-2.7039093E+002
3	0	5.249979867374350E+001	3.9217031E-001	-2.7039093E+002
3	0	5.299979866111244E+001	3.9022288E-001	-2.7041214E+002
3	0	5.349979864848137E+001	3.8872689E-001	-2.7038385E+002
3	0	5.399979863585031E+001	3.8823771E-001	-2.7037677E+002
3	0	5.449979862321925E+001	3.8795450E-001	-2.7036267E+002
3	0	5.499979861058819E+001	3.8755485E-001	-2.7038742E+002
3	0	5.549979859795712E+001	3.8719577E-001	-2.7039093E+002
3	0	5.599979858532606E+001	3.8693252E-001	-2.7038385E+002
3	0	5.649979857269500E+001	3.8665819E-001	-2.7036618E+002
3	0	5.699979856006394E+001	3.8622674E-001	-2.7035913E+002
3	0	5.749979854743287E+001	3.8591778E-001	-2.7036267E+002
3	0	5.799979853480181E+001	3.8632923E-001	-2.7038385E+002
3	0	5.849979852217075E+001	3.8666058E-001	-2.7037677E+002
3	0	5.899979850953969E+001	3.8680577E-001	-2.7037326E+002
3	0	5.949979849690862E+001	3.8680512E-001	-2.7037677E+002
3	0	5.999979848427756E+001	3.8684499E-001	-2.7038031E+002
3	0	6.049979847164650E+001	3.8676256E-001	-2.7038742E+002
3	0	6.099979845901544E+001	3.8643742E-001	-2.7039801E+002
3	0	6.149979844638438E+001	3.8616684E-001	-2.7036267E+002
3	0	6.199979843375331E+001	3.8658419E-001	-2.7038742E+002
3	0	6.249979842112225E+001	3.8694614E-001	-2.7040155E+002
3	0	6.299979840849119E+001	3.8709384E-001	-2.7034851E+002
3	0	6.349979839586013E+001	3.8711461E-001	-2.7038385E+002
3	0	6.399979838322906E+001	3.8724673E-001	-2.7038742E+002
3	0	6.449979837059800E+001	3.8714504E-001	-2.7036618E+002
3	0	6.499979835796694E+001	3.8683921E-001	-2.7037677E+002
3	0	6.549979834533588E+001	3.8664740E-001	-2.7041214E+002
3	0	6.599979833270481E+001	3.8702968E-001	-2.7037677E+002
3	0	6.649979832007375E+001	3.8737923E-001	-2.7036972E+002
3	0	6.699979830744269E+001	3.8752401E-001	-2.7039093E+002
3	0	6.749979829481163E+001	3.8753423E-001	-2.7038031E+002
3	0	6.799979828218056E+001	3.8745612E-001	-2.7039801E+002
3	0	6.849979826954950E+001	3.8733241E-001	-2.7039093E+002
3	0	6.899979825691844E+001	3.8693875E-001	-2.7037677E+002
3	0	6.949979824428738E+001	3.8660452E-001	-2.7035913E+002
3	0	6.999979823165631E+001	3.8687477E-001	-2.7038385E+002
3	0	7.049979821902525E+001	3.8715160E-001	-2.7036267E+002
3	0	7.099979820639419E+001	3.8730031E-001	-2.7039447E+002
3	0	7.149979819376313E+001	3.8743323E-001	-2.7036618E+002
3	0	7.199979818113206E+001	3.8776740E-001	-2.7037326E+002
3	0	7.249979816850100E+001	3.8803709E-001	-2.7037326E+002
3	0	7.299979815586994E+001	3.8822553E-001	-2.7037326E+002
3	0	7.349979814323888E+001	3.8850150E-001	-2.7038385E+002
3	0	7.399979813060781E+001	3.8946193E-001	-2.7036972E+002
3	0	7.449979811797675E+001	3.9035711E-001	-2.7036267E+002
3	0	7.499979810534569E+001	3.9103222E-001	-2.7040506E+002
3	0	7.549979809271463E+001	3.9157104E-001	-2.7038742E+002
3	0	7.599979808008356E+001	3.9197284E-001	-2.7038031E+002
3	0	7.649979806745250E+001	3.9230961E-001	-2.7038742E+002
3	0	7.699979805482144E+001	3.9230657E-001	-2.7037677E+002
3	0	7.749979804219038E+001	3.9233014E-001	-2.7039093E+002
3	0	7.799979802955932E+001	3.9282891E-001	-2.7038031E+002
3	0	7.849979801692825E+001	3.9327687E-001	-2.7039447E+002
3	0	7.899979800429719E+001	3.9350995E-001	-2.7038385E+002
3	0	7.949979799166613E+001	3.9361411E-001	-2.7037677E+002
3	0	7.999979797903507E+001	3.9365169E-001	-2.7039093E+002
3	0	8.049979796640400E+001	3.9350775E-001	-2.7039093E+002
3	0	8.099979795377294E+001	3.9310458E-001	-2.7039093E+002
3	0	8.149979794114188E+001	3.9268705E-001	-2.7038742E+002
3	0	8.199979792851082E+001	3.9284959E-001	-2.7037326E+002
3	0	8.249979791587975E+001	3.9294481E-001	-2.7038031E+002
3	0	8.299979790324869E+001	3.9283270E-001	-2.7037677E+002
3	0	8.349979789061763E+001	3.9263088E-001	-2.7039093E+002
3	0	8.399979787798657E+001	3.9243183E-001	-2.7037677E+002
3	0	8.449979786535550E+001	3.9212820E-001	-2.7038385E+002
3	0	8.499979785272444E+001	3.9162219E-001	-2.7038742E+002
3	0	8.549979784009338E+001	3.9101359E-001	-2.7038742E+002
3	0	8.599979782746232E+001	3.9097327E-001	-2.7035913E+002
3	0	8.649979781483125E+001	3.9090785E-001	-2.7038385E+002
3	0	8.699979780220019E+001	3.9069778E-001	-2.7034851E+002
3	0	8.749979778956913E+001	3.9036438E-001	-2.7037677E+002
3	0	8.799979777693807E+001	3.8999438E-001	-2.7036972E+002
3	0	8.849979776430700E+001	3.8959345E-001	-2.7038385E+002
3	0	8.899979775167594E+001	3.8893160E-001	-2.7036972E+002
3	0	8.949979773904488E+001	3.8829193E-001	-2.7034851E+002
3	0	8.999979772641382E+001	3.8818833E-001	-2.7036618E+002
3	0	9.049979771378275E+001	3.8812107E-001	-2.7038742E+002
3	0	9.099979770115169E+001	3.8797796E-001	-2.7037326E+002
3	0	9.149979768852063E+001	3.8782689E-001	-2.7036972E+002
3	0	9.199979767588957E+001	3.8779002E-001	-2.7039093E+002
3	0	9.249979766325851E+001	3.8776088E-001	-2.7039093E+002
3	0	9.299979765062744E+001	3.8759607E-001	-2.7035205E+002
3	0	9.349979763799638E+001	3.8758913E-001	-2.7039801E+002
3	0	9.399979762536532E+001	3.8815966E-001	-2.7037677E+002
3	0	9.449979761273426E+001	3.8874313E-001	-2.7037326E+002
3	0	9.499979760010319E+001	3.8917443E-001	-2.7034851E+002
3	0	9.549979758747213E+001	3.8946486E-001	-2.7038031E+002
3	0	9.599979757484107E+001	3.8966483E-001	-2.7037677E+002
3	0	9.649979756221001E+001	3.8971075E-001	-2.7034851E+002
3	0	9.699979754957894E+001	3.8953480E-001	-2.7035205E+002
3	0	9.749979753694788E+001	3.8927981E-001	-2.7037677E+002
3	0	9.799979752431682E+001	3.8949290E-001	-2.7039447E+002
3	0	9.849979751168576E+001	3.8967726E-001	-2.7037677E+002
3	0	9.899979749905469E+001	3.8969737E-001	-2.7037326E+002
3	0	9.949979748642363E+001	3.8954440E-001	-2.7037326E+002
3	0	9.999979747379257E+001	3.8940564E-001	-2.7036972E+002
3	0	1.004997974611615E+002	3.8911912E-001	-2.7039801E+002
3	0	1.009997974485304E+002	3.8862669E-001	-2.7039801E+002
3	0	1.014997974358994E+002	3.8812017E-001	-2.7036972E+002
3	0	1.019997974232683E+002	3.8807335E-001	-2.7039093E+002
3	0	1.024997974106373E+002	3.8803601E-001	-2.7033789E+002
3	0	1.029997973980062E+002	3.8780811E-001	-2.7035913E+002
3	0	1.034997973853751E+002	3.8746920E-001	-2.7037326E+002
3	0	1.039997973727441E+002	3.8709930E-001	-2.7037326E+002
3	0	1.044997973601130E+002	3.8660860E-001	-2.7036618E+002
3	0	1.049997973474819E+002	3.8593686E-001	-2.7037677E+002
3	0	1.054997973348509E+002	3.8524184E-001	-2.7036972E+002
3	0	1.059997973222198E+002	3.8504943E-001	-2.7037326E+002
3	0	1.064997973095888E+002	3.8488096E-001	-2.7037677E+002
3	0	1.069997972969577E+002	3.8457522E-001	-2.7038742E+002
3	0	1.074997972843266E+002	3.8418087E-001	-2.7036618E+002
3	0	1.079997972716956E+002	3.8377663E-001	-2.7037326E+002
3	0	1.084997972590645E+002	3.8325834E-001	-2.7036267E+002
3	0	1.089997972464334E+002	3.8260907E-001	-2.7037677E+002
3	0	1.094997972338024E+002	3.8190925E-001	-2.7037677E+002
3	0	1.099997972211713E+002	3.8165250E-001	-2.7036972E+002
3	0	1.104997972085403E+002	3.8146278E-001	-2.7036972E+002
3	0	1.109997971959092E+002	3.8121283E-001	-2.7039801E+002
3	0	1.114997971832781E+002	3.8095576E-001	-2.7035205E+002
3	0	1.119997971706471E+002	3.8080314E-001	-2.7039801E+002
3	0	1.124997971580160E+002	3.8057345E-001	-2.7036972E+002
3	0	1.129997971453849E+002	3.8021266E-001	-2.7039447E+002
3	0	1.134997971327539E+002	3.7985075E-001	-2.7036618E+002
3	0	1.139997971201228E+002	3.7988734E-001	-2.7038031E+002
3	0	1.144997971074918E+002	3.7993670E-001	-2.7037677E+002
3	0	1.149997970948607E+002	3.7984967E-001	-2.7038031E+002
3	0	1.154997970822296E+002	3.7963617E-001	-2.7036972E+002
3	0	1.159997970695986E+002	3.7941217E-001	-2.7036267E+002
3	0	1.164997970569675E+002	3.7907153E-001	-2.7036618E+002
3	0	1.169997970443364E+002	3.7857288E-001	-2.7038742E+002
3	0	1.174997970317054E+002	3.7810761E-001	-2.7036618E+002
3	0	1.179997970190743E+002	3.7801197E-001	-2.7036618E+002
3	0	1.184997970064433E+002	3.7790829E-001	-2.7038742E+002
3	0	1.189997969938122E+002	3.7771302E-001	-2.7039447E+002
3	0	1.194997969811811E+002	3.7739477E-001	-2.7037326E+002
3	0	1.199997969685501E+002	3.7710869E-001	-2.7036267E+002
3	0	1.204997969559190E+002	3.7670702E-001	-2.7037677E+002
3	0	1.209997969432879E+002	3.7616783E-001	-2.7037326E+002
3	0	1.214997969306569E+002	3.7561408E-001	-2.7038742E+002
3	0	1.219997969180258E+002	3.7547207E-001	-2.7038742E+002
3	0	1.224997969053948E+002	3.7533408E-001	-2.7037677E+002
3	0	1.229997968927637E+002	3.7507156E-001	-2.7036618E+002
3	0	1.234997968801326E+002	3.7475461E-001	-2.7035913E+002
3	0	1.239997968675016E+002	3.7443227E-001	-2.7038031E+002
3	0	1.244997968548705E+002	3.7402585E-001	-2.7038385E+002
3	0	1.249997968422394E+002	3.7349108E-001	-2.7036972E+002
3	0	1.254997968296084E+002	3.7295863E-001	-2.7038385E+002
3	0	1.259997968169773E+002	3.7278727E-001	-2.7036972E+002
3	0	1.264997968043463E+002	3.7266618E-001	-2.7038742E+002
3	0	1.269997967917152E+002	3.7245539E-001	-2.7037677E+002
3	0	1.274997967790841E+002	3.7217432E-001	-2.7036267E+002
3	0	1.279997967664531E+002	3.7188780E-001	-2.7038742E+002
3	0	1.284997967538220E+002	3.7153468E-001	-2.7038031E+002
3	0	1.289997967411909E+002	3.7103263E-001	-2.7039093E+002
3	0	1.294997967285599E+002	3.7055004E-001	-2.7040155E+002
3	0	1.299997967159288E+002	3.7040892E-001	-2.7035913E+002
3	0	1.304997967032978E+002	3.7031090E-001	-2.7040155E+002
3	0	1.309997966906667E+002	3.7013432E-001	-2.7038031E+002
3	0	1.314997966780356E+002	3.6997119E-001	-2.7038031E+002
3	0	1.319997966654046E+002	3.6989063E-001	-2.7038031E+002
3	0	1.324997966527735E+002	3.6981210E-001	-2.7037326E+002
3	0	1.329997966401424E+002	3.6968026E-001	-2.7037326E+002
3	0	1.334997966275114E+002	3.6959845E-001	-2.7038742E+002
3	0	1.339997966148803E+002	3.6991534E-001	-2.7036618E+002
3	0	1.344997966022493E+002	3.7033102E-001	-2.7036267E+002
3	0	1.349997965896182E+002	3.7068278E-001	-2.7035913E+002
3	0	1.354997965769871E+002	3.7093523E-001	-2.7035559E+002
3	0	1.359997965643561E+002	3.7113875E-001	-2.7035913E+002
3	0	1.364997965517250E+002	3.7125695E-001	-2.7037677E+002
3	0	1.369997965390940E+002	3.7120256E-001	-2.7037326E+002
3	0	1.374997965264629E+002	3.7107643E-001	-2.7037677E+002
3	0	1.379997965138318E+002	3.7122840E-001	-2.7038031E+002
3	0	1.384997965012008E+002	3.7141398E-001	-2.7036972E+002
3	0	1.389997964885697E+002	3.7146881E-001	-2.7037677E+002
3	0	1.394997964759386E+002	3.7139782E-001	-2.7039447E+002
3	0	1.399997964633076E+002	3.7127870E-001	-2.7040155E+002
3	0	1.404997964506765E+002	3.7106761E-001	-2.7036267E+002
3	0	1.409997964380455E+002	3.7071607E-001	-2.7035913E+002
3	0	1.414997964254144E+002	3.7033781E-001	-2.7035913E+002
3	0	1.419997964127833E+002	3.7028894E-001	-2.7038385E+002
3	0	1.424997964001523E+002	3.7025839E-001	-2.7039447E+002
3	0	1.429997963875212E+002	3.7013090E-001	-2.7035913E+002
3	0	1.434997963748901E+002	3.6991146E-001	-2.7037677E+002
3	0	1.439997963622591E+002	3.6966774E-001	-2.7036618E+002
3	0	1.444997963496280E+002	3.6935729E-001	-2.7038385E+002
3	0	1.449997963369970E+002	3.6890644E-001	-2.7039447E+002
3	0	1.454997963243659E+002	3.6842570E-001	-2.7037677E+002
3	0	1.459997963117348E+002	3.6826828E-001	-2.7037677E+002
3	0	1.464997962991038E+002	3.6816263E-001	-2.7039447E+002
3	0	1.469997962864727E+002	3.6796233E-001	-2.7039093E+002
3	0	1.474997962738416E+002	3.6767936E-001	-2.7038031E+002
3	0	1.479997962612106E+002	3.6733907E-001	-2.7036618E+002
3	0	1.484997962485795E+002	3.6695892E-001	-2.7038385E+002
3	0	1.489997962359485E+002	3.6644933E-001	-2.7039447E+002
3	0	1.494997962233174E+002	3.6592409E-001	-2.7039093E+002
3	0	1.499997962106863E+002	3.6571661E-001	-2.7034851E+002
3	0	1.504997961980553E+002	3.6556917E-001	-2.7036972E+002
3	0	1.509997961854242E+002	3.6537638E-001	-2.7039447E+002
3	0	1.514997961727931E+002	3.6514822E-001	-2.7036618E+002
3	0	1.519997961601621E+002	3.6501375E-001	-2.7036618E+002
3	0	1.524997961475310E+002	3.6485994E-001	-2.7039093E+002
3	0	1.529997961349000E+002	3.6468175E-001	-2.7037677E+002
3	0	1.534997961222689E+002	3.6455107E-001	-2.7037326E+002
3	0	1.539997961096378E+002	3.6479759E-001	-2.7039447E+002
3	0	1.544997960970068E+002	3.6509159E-001	-2.7038031E+002
3	0	1.549997960843757E+002	3.6533168E-001	-2.7038742E+002
3	0	1.554997960717446E+002	3.6545622E-001	-2.7039093E+002
3	0	1.559997960591136E+002	3.6555719E-001	-2.7036618E+002
3	0	1.564997960464825E+002	3.6553752E-001	-2.7037677E+002
3	0	1.569997960338515E+002	3.6536422E-001	-2.7037326E+002
3	0	1.574997960212204E+002	3.6513194E-001	-2.7037326E+002
3	0	1.579997960085893E+002	3.6517766E-001	-2.7039093E+002
3	0	1.584997959959583E+002	3.6523876E-001	-2.7041214E+002
3	0	1.589997959833272E+002	3.6518431E-001	-2.7038742E+002
3	0	1.594997959706961E+002	3.6505052E-001	-2.7036972E+002
3	0	1.599997959580651E+002	3.6490265E-001	-2.7037677E+002
3	0	1.604997959454340E+002	3.6460388E-001	-2.7038031E+002
3	0	1.609997959328030E+002	3.6417806E-001	-2.7036972E+002
3	0	1.614997959201719E+002	3.6380172E-001	-2.7039447E+002
3	0	1.619997959075408E+002	3.6371344E-001	-2.7038742E+002
3	0	1.624997958949098E+002	3.6364111E-001	-2.7036267E+002
3	0	1.629997958822787E+002	3.6348110E-001	-2.7037677E+002
3	0	1.634997958696476E+002	3.6324725E-001	-2.7038031E+002
3	0	1.639997958570166E+002	3.6300218E-001	-2.7037677E+002
3	0	1.644997958443855E+002	3.6269724E-001	-2.7038031E+002
3	0	1.649997958317545E+002	3.6225858E-001	-2.7037326E+002
3	0	1.650001958317444E+002	3.6200613E-001	-2.7037326E+002