EC-Lab ASCII FILE
Nb header lines : 55                          

Open Circuit Voltage

Run on channel : 1 (SN 81504)
User : 
CE vs. WE compliance from -10 V to 10 V
Electrode connection : standard
Potential control : Ewe
Ewe ctrl range : min = -2.50 V, max = 2.50 V
Safety Limits :
	Do not start on E overload
Acquisition started on : 05/10/2026 09:44:17.042
Loaded Setting File :  C:\PEM-WE_measurements\2026\372_IV_IV IrOx, 5 min Pt, 30 min C, etched cathode\new station\Loopeis new\1,46 V different time gaps closed cell\Loopeis 1,46V_180s_4_PEIS from 650Hz to 100Hz.mps
Saved on :
	File : L_29_Loopeis 1,46V_180s_4_PEIS from 650Hz to 100Hz_20_OCV_C01.mpr
	Directory : C:\PEM-WE_measurements\2026\372_IV_IV IrOx, 5 min Pt, 30 min C, etched cathode\new station\Loopeis new\1,46 V different time gaps closed cell\
	Host : 192.168.0.2
Device : SP-150e (SN .005491)
Address : 192.168.0.91
EC-LAB for windows v11.71 (software)
Internet server v28.00 (firmware)
Command interpretor v14.01 (firmware)
Electrode material : 
Initial state : 
Electrolyte : 
Comments : 
Current amplifier : SP-150eB-20A
Electrode surface area : 0.001 cm²
Characteristic mass : 0.001 g
Equivalent Weight : 0.000 g/eq.
Density : 0.000 g/cm3
Volume (V) : 0.001 cm³
Record Analogic IN 1
Text export
   Mode : Standard
   Time format : Elapsed
Cycle Definition : Charge/Discharge alternance
External device configuration :
   device type : Temperature Probe
   device name : Other
   Analog IN 1 : 
      unit : T/Â°C
      max : 100.000 at 2.000 V
      min : 0.000 at 1.460 V
tR (h:m:s)          0:03:0.0000         
dER/dt (mV/h)       1.0                 
record              <Ewe>               
dER (mV)            10.00               
dtR (s)             0.5000              
E range min (V)     -2.500              
E range max (V)     2.500               

mode	error	time/s	<Ewe/V>	Analog IN 1/V	
3	0	2.078227564433910E+003	1.1078550E+000	-2.7036972E+002
3	0	2.078727564421279E+003	1.2550054E+000	-2.7038742E+002
3	0	2.079227564408648E+003	1.2452326E+000	-2.7037677E+002
3	0	2.079727564396017E+003	1.2234341E+000	-2.7039093E+002
3	0	2.080227564383385E+003	1.1841561E+000	-2.7036972E+002
3	0	2.080727564370754E+003	1.1122600E+000	-2.7039093E+002
3	0	2.081227564358123E+003	8.8545698E-001	-2.7039093E+002
3	0	2.081727564345492E+003	4.9369290E-001	-2.7038385E+002
3	0	2.082227564332861E+003	3.6113334E-001	-2.7037677E+002
3	0	2.082727564320230E+003	3.3514941E-001	-2.7038031E+002
3	0	2.083227564307599E+003	3.3239570E-001	-2.7036618E+002
3	0	2.083727564294968E+003	3.3369434E-001	-2.7035913E+002
3	0	2.084227564282337E+003	3.3536714E-001	-2.7038385E+002
3	0	2.084727564269706E+003	3.3669412E-001	-2.7040155E+002
3	0	2.085227564257075E+003	3.3765438E-001	-2.7039093E+002
3	0	2.085727564244444E+003	3.3818263E-001	-2.7038385E+002
3	0	2.086227564231813E+003	3.3845565E-001	-2.7036972E+002
3	0	2.086727564219182E+003	3.3872655E-001	-2.7038385E+002
3	0	2.087227564206551E+003	3.3927006E-001	-2.7039093E+002
3	0	2.087727564193920E+003	3.3970714E-001	-2.7037326E+002
3	0	2.088227564181288E+003	3.4007770E-001	-2.7039093E+002
3	0	2.088727564168657E+003	3.4047735E-001	-2.7037326E+002
3	0	2.089227564156026E+003	3.4091640E-001	-2.7037326E+002
3	0	2.089727564143395E+003	3.4132475E-001	-2.7038385E+002
3	0	2.090227564130764E+003	3.4167400E-001	-2.7036972E+002
3	0	2.090727564118133E+003	3.4214365E-001	-2.7037677E+002
3	0	2.091227564105502E+003	3.4293860E-001	-2.7038385E+002
3	0	2.091727564092871E+003	3.4359345E-001	-2.7039093E+002
3	0	2.092227564080240E+003	3.4411380E-001	-2.7037677E+002
3	0	2.092727564067609E+003	3.4455562E-001	-2.7038385E+002
3	0	2.093227564054978E+003	3.4498158E-001	-2.7040860E+002
3	0	2.093727564042347E+003	3.4530041E-001	-2.7037677E+002
3	0	2.094227564029716E+003	3.4548068E-001	-2.7037677E+002
3	0	2.094727564017085E+003	3.4573242E-001	-2.7038031E+002
3	0	2.095227564004454E+003	3.4628317E-001	-2.7036267E+002
3	0	2.095727563991823E+003	3.4670860E-001	-2.7039093E+002
3	0	2.096227563979191E+003	3.4699628E-001	-2.7036972E+002
3	0	2.096727563966560E+003	3.4720376E-001	-2.7036618E+002
3	0	2.097227563953929E+003	3.4741727E-001	-2.7036972E+002
3	0	2.097727563941298E+003	3.4753722E-001	-2.7038742E+002
3	0	2.098227563928667E+003	3.4752420E-001	-2.7039447E+002
3	0	2.098727563916036E+003	3.4761801E-001	-2.7036618E+002
3	0	2.099227563903405E+003	3.4800810E-001	-2.7039093E+002
3	0	2.099727563890774E+003	3.4829476E-001	-2.7039093E+002
3	0	2.100227563878143E+003	3.4844074E-001	-2.7037677E+002
3	0	2.100727563865512E+003	3.4854776E-001	-2.7035559E+002
3	0	2.101227563852881E+003	3.4867188E-001	-2.7036267E+002
3	0	2.101727563840250E+003	3.4869933E-001	-2.7038385E+002
3	0	2.102227563827619E+003	3.4859413E-001	-2.7036267E+002
3	0	2.102727563814988E+003	3.4858480E-001	-2.7037677E+002
3	0	2.103227563802357E+003	3.4888649E-001	-2.7038385E+002
3	0	2.103727563789726E+003	3.4909582E-001	-2.7035913E+002
3	0	2.104227563777094E+003	3.4919232E-001	-2.7036972E+002
3	0	2.104727563764463E+003	3.4919313E-001	-2.7035913E+002
3	0	2.105227563751832E+003	3.4921753E-001	-2.7037326E+002
3	0	2.105727563739201E+003	3.4917226E-001	-2.7040506E+002
3	0	2.106227563726570E+003	3.4902689E-001	-2.7036972E+002
3	0	2.106727563713939E+003	3.4895429E-001	-2.7035559E+002
3	0	2.107227563701308E+003	3.4920266E-001	-2.7036618E+002
3	0	2.107727563688677E+003	3.4940577E-001	-2.7038385E+002
3	0	2.108227563676046E+003	3.4953696E-001	-2.7037677E+002
3	0	2.108727563663415E+003	3.4968409E-001	-2.7036972E+002
3	0	2.109227563650784E+003	3.4990877E-001	-2.7036618E+002
3	0	2.109727563638153E+003	3.5007676E-001	-2.7039447E+002
3	0	2.110227563625522E+003	3.5021329E-001	-2.7037326E+002
3	0	2.110727563612891E+003	3.5043111E-001	-2.7039447E+002
3	0	2.111227563600260E+003	3.5095882E-001	-2.7039801E+002
3	0	2.111727563587629E+003	3.5140973E-001	-2.7037677E+002
3	0	2.112227563574997E+003	3.5169074E-001	-2.7038742E+002
3	0	2.112727563562366E+003	3.5187799E-001	-2.7039801E+002
3	0	2.113227563549735E+003	3.5205489E-001	-2.7035559E+002
3	0	2.113727563537104E+003	3.5204539E-001	-2.7036267E+002
3	0	2.114227563524473E+003	3.5196427E-001	-2.7038742E+002
3	0	2.114727563511842E+003	3.5194215E-001	-2.7039801E+002
3	0	2.115227563499211E+003	3.5221910E-001	-2.7037677E+002
3	0	2.115727563486580E+003	3.5239458E-001	-2.7039093E+002
3	0	2.116227563473949E+003	3.5240796E-001	-2.7035913E+002
3	0	2.116727563461318E+003	3.5235029E-001	-2.7037677E+002
3	0	2.117227563448687E+003	3.5229674E-001	-2.7036972E+002
3	0	2.117727563436056E+003	3.5214603E-001	-2.7037326E+002
3	0	2.118227563423425E+003	3.5190865E-001	-2.7040506E+002
3	0	2.118727563410794E+003	3.5175979E-001	-2.7037677E+002
3	0	2.119227563398163E+003	3.5188591E-001	-2.7038742E+002
3	0	2.119727563385532E+003	3.5194522E-001	-2.7036267E+002
3	0	2.120227563372900E+003	3.5186967E-001	-2.7037677E+002
3	0	2.120727563360269E+003	3.5173163E-001	-2.7036972E+002
3	0	2.121227563347638E+003	3.5158172E-001	-2.7036972E+002
3	0	2.121727563335007E+003	3.5138705E-001	-2.7039447E+002
3	0	2.122227563322376E+003	3.5110274E-001	-2.7036618E+002
3	0	2.122727563309745E+003	3.5089806E-001	-2.7036267E+002
3	0	2.123227563297114E+003	3.5097137E-001	-2.7036267E+002
3	0	2.123727563284483E+003	3.5098112E-001	-2.7036267E+002
3	0	2.124227563271852E+003	3.5087141E-001	-2.7037677E+002
3	0	2.124727563259221E+003	3.5071820E-001	-2.7038031E+002
3	0	2.125227563246590E+003	3.5058159E-001	-2.7036972E+002
3	0	2.125727563233959E+003	3.5038257E-001	-2.7037326E+002
3	0	2.126227563221328E+003	3.5007116E-001	-2.7035559E+002
3	0	2.126727563208697E+003	3.4982333E-001	-2.7040155E+002
3	0	2.127227563196066E+003	3.4987375E-001	-2.7037326E+002
3	0	2.127727563183435E+003	3.4988925E-001	-2.7037677E+002
3	0	2.128227563170803E+003	3.4983510E-001	-2.7038031E+002
3	0	2.128727563158172E+003	3.4980875E-001	-2.7035913E+002
3	0	2.129227563145541E+003	3.4982115E-001	-2.7037677E+002
3	0	2.129727563132910E+003	3.4977311E-001	-2.7035913E+002
3	0	2.130227563120279E+003	3.4960917E-001	-2.7037326E+002
3	0	2.130727563107648E+003	3.4947929E-001	-2.7036618E+002
3	0	2.131227563095017E+003	3.4960794E-001	-2.7038031E+002
3	0	2.131727563082386E+003	3.4969115E-001	-2.7036972E+002
3	0	2.132227563069755E+003	3.4964213E-001	-2.7040155E+002
3	0	2.132727563057124E+003	3.4952688E-001	-2.7038031E+002
3	0	2.133227563044493E+003	3.4942240E-001	-2.7039801E+002
3	0	2.133727563031862E+003	3.4925485E-001	-2.7038742E+002
3	0	2.134227563019231E+003	3.4896913E-001	-2.7037677E+002
3	0	2.134727563006600E+003	3.4875596E-001	-2.7036267E+002
3	0	2.135227562993969E+003	3.4881163E-001	-2.7036972E+002
3	0	2.135727562981338E+003	3.4880269E-001	-2.7038385E+002
3	0	2.136227562968706E+003	3.4867582E-001	-2.7035559E+002
3	0	2.136727562956075E+003	3.4849259E-001	-2.7035205E+002
3	0	2.137227562943444E+003	3.4834051E-001	-2.7038385E+002
3	0	2.137727562930813E+003	3.4811860E-001	-2.7038031E+002
3	0	2.138227562918182E+003	3.4781098E-001	-2.7035559E+002
3	0	2.138727562905551E+003	3.4754708E-001	-2.7038031E+002
3	0	2.139227562892920E+003	3.4756818E-001	-2.7035913E+002
3	0	2.139727562880289E+003	3.4755132E-001	-2.7037326E+002
3	0	2.140227562867658E+003	3.4741771E-001	-2.7037677E+002
3	0	2.140727562855027E+003	3.4724367E-001	-2.7037677E+002
3	0	2.141227562842396E+003	3.4706545E-001	-2.7039093E+002
3	0	2.141727562829765E+003	3.4681565E-001	-2.7036972E+002
3	0	2.142227562817134E+003	3.4650028E-001	-2.7038385E+002
3	0	2.142727562804503E+003	3.4623596E-001	-2.7037677E+002
3	0	2.143227562791872E+003	3.4625113E-001	-2.7038031E+002
3	0	2.143727562779241E+003	3.4624234E-001	-2.7036972E+002
3	0	2.144227562766609E+003	3.4611708E-001	-2.7037326E+002
3	0	2.144727562753978E+003	3.4593159E-001	-2.7036972E+002
3	0	2.145227562741347E+003	3.4575099E-001	-2.7037326E+002
3	0	2.145727562728716E+003	3.4550974E-001	-2.7039093E+002
3	0	2.146227562716085E+003	3.4518683E-001	-2.7036267E+002
3	0	2.146727562703454E+003	3.4492633E-001	-2.7036618E+002
3	0	2.147227562690823E+003	3.4492907E-001	-2.7039447E+002
3	0	2.147727562678192E+003	3.4491244E-001	-2.7039093E+002
3	0	2.148227562665561E+003	3.4483677E-001	-2.7036972E+002
3	0	2.148727562652930E+003	3.4478283E-001	-2.7039093E+002
3	0	2.149227562640299E+003	3.4478655E-001	-2.7039093E+002
3	0	2.149727562627668E+003	3.4478763E-001	-2.7040155E+002
3	0	2.150227562615037E+003	3.4476748E-001	-2.7036618E+002
3	0	2.150727562602406E+003	3.4481108E-001	-2.7039093E+002
3	0	2.151227562589775E+003	3.4517291E-001	-2.7040506E+002
3	0	2.151727562577144E+003	3.4550127E-001	-2.7039801E+002
3	0	2.152227562564512E+003	3.4569997E-001	-2.7035559E+002
3	0	2.152727562551881E+003	3.4579721E-001	-2.7036267E+002
3	0	2.153227562539250E+003	3.4588182E-001	-2.7037677E+002
3	0	2.153727562526619E+003	3.4583452E-001	-2.7036972E+002
3	0	2.154227562513988E+003	3.4569520E-001	-2.7038031E+002
3	0	2.154727562501357E+003	3.4554154E-001	-2.7037677E+002
3	0	2.155227562488726E+003	3.4563974E-001	-2.7039093E+002
3	0	2.155727562476095E+003	3.4568280E-001	-2.7037677E+002
3	0	2.156227562463464E+003	3.4559673E-001	-2.7039447E+002
3	0	2.156727562450833E+003	3.4546688E-001	-2.7035205E+002
3	0	2.157227562438202E+003	3.4534034E-001	-2.7038031E+002
3	0	2.157727562425571E+003	3.4513092E-001	-2.7036618E+002
3	0	2.158227562412940E+003	3.4479696E-001	-2.7038385E+002
3	0	2.158727562400309E+003	3.4454092E-001	-2.7038031E+002
3	0	2.159227562387678E+003	3.4454435E-001	-2.7039447E+002
3	0	2.159727562375047E+003	3.4451026E-001	-2.7037677E+002
3	0	2.160227562362415E+003	3.4436682E-001	-2.7036972E+002
3	0	2.160727562349784E+003	3.4418866E-001	-2.7038385E+002
3	0	2.161227562337153E+003	3.4397656E-001	-2.7038385E+002
3	0	2.161727562324522E+003	3.4370863E-001	-2.7037326E+002
3	0	2.162227562311891E+003	3.4335488E-001	-2.7037326E+002
3	0	2.162727562299260E+003	3.4302083E-001	-2.7037677E+002
3	0	2.163227562286629E+003	3.4296063E-001	-2.7038385E+002
3	0	2.163727562273998E+003	3.4289896E-001	-2.7036618E+002
3	0	2.164227562261367E+003	3.4272516E-001	-2.7039093E+002
3	0	2.164727562248736E+003	3.4251618E-001	-2.7038742E+002
3	0	2.165227562236105E+003	3.4230074E-001	-2.7038031E+002
3	0	2.165727562223474E+003	3.4204111E-001	-2.7040860E+002
3	0	2.166227562210843E+003	3.4168512E-001	-2.7038742E+002
3	0	2.166727562198212E+003	3.4135851E-001	-2.7036267E+002
3	0	2.167227562185581E+003	3.4128350E-001	-2.7037326E+002
3	0	2.167727562172950E+003	3.4123042E-001	-2.7036618E+002
3	0	2.168227562160318E+003	3.4110251E-001	-2.7039447E+002
3	0	2.168727562147687E+003	3.4096897E-001	-2.7038385E+002
3	0	2.169227562135056E+003	3.4092286E-001	-2.7037326E+002
3	0	2.169727562122425E+003	3.4083843E-001	-2.7039093E+002
3	0	2.170227562109794E+003	3.4072262E-001	-2.7036618E+002
3	0	2.170727562097163E+003	3.4071696E-001	-2.7038385E+002
3	0	2.171227562084532E+003	3.4100524E-001	-2.7037326E+002
3	0	2.171727562071901E+003	3.4127691E-001	-2.7036618E+002
3	0	2.172227562059270E+003	3.4142408E-001	-2.7038385E+002
3	0	2.172727562046639E+003	3.4148204E-001	-2.7038385E+002
3	0	2.173227562034008E+003	3.4150141E-001	-2.7039093E+002
3	0	2.173727562021377E+003	3.4140497E-001	-2.7038742E+002
3	0	2.174227562008746E+003	3.4117404E-001	-2.7037677E+002
3	0	2.174727561996115E+003	3.4096548E-001	-2.7039447E+002
3	0	2.175227561983484E+003	3.4099674E-001	-2.7039447E+002
3	0	2.175727561970853E+003	3.4099594E-001	-2.7038742E+002
3	0	2.176227561958221E+003	3.4088320E-001	-2.7038385E+002
3	0	2.176727561945590E+003	3.4072202E-001	-2.7036618E+002
3	0	2.177227561932959E+003	3.4052554E-001	-2.7034851E+002
3	0	2.177727561920328E+003	3.4025618E-001	-2.7037326E+002
3	0	2.178227561907697E+003	3.3990142E-001	-2.7037326E+002
3	0	2.178727561895066E+003	3.3957398E-001	-2.7040155E+002
3	0	2.179227561882435E+003	3.3949044E-001	-2.7039447E+002
3	0	2.179727561869804E+003	3.3941132E-001	-2.7036267E+002
3	0	2.180227561857173E+003	3.3923724E-001	-2.7038031E+002
3	0	2.180727561844542E+003	3.3901891E-001	-2.7038031E+002
3	0	2.181227561831911E+003	3.3878043E-001	-2.7036972E+002
3	0	2.181727561819280E+003	3.3847910E-001	-2.7038742E+002
3	0	2.182227561806649E+003	3.3810461E-001	-2.7036618E+002
3	0	2.182727561794018E+003	3.3777520E-001	-2.7037326E+002
3	0	2.183227561781387E+003	3.3769035E-001	-2.7038742E+002
3	0	2.183727561768756E+003	3.3761775E-001	-2.7038031E+002
3	0	2.184227561756124E+003	3.3743429E-001	-2.7037677E+002
3	0	2.184727561743493E+003	3.3719784E-001	-2.7037677E+002
3	0	2.185227561730862E+003	3.3697823E-001	-2.7037677E+002
3	0	2.185727561718231E+003	3.3670732E-001	-2.7037326E+002
3	0	2.186227561705600E+003	3.3634984E-001	-2.7040155E+002
3	0	2.186727561692969E+003	3.3601403E-001	-2.7036267E+002
3	0	2.187227561680338E+003	3.3592522E-001	-2.7039093E+002
3	0	2.187727561667707E+003	3.3585352E-001	-2.7037326E+002
3	0	2.188227561655076E+003	3.3571935E-001	-2.7036972E+002
3	0	2.188727561642445E+003	3.3558372E-001	-2.7036267E+002
3	0	2.189227561629814E+003	3.3550856E-001	-2.7038385E+002
3	0	2.189727561617183E+003	3.3543760E-001	-2.7036618E+002
3	0	2.190227561604552E+003	3.3532280E-001	-2.7040860E+002
3	0	2.190727561591921E+003	3.3527735E-001	-2.7038385E+002
3	0	2.191227561579290E+003	3.3551285E-001	-2.7039447E+002
3	0	2.191727561566659E+003	3.3578324E-001	-2.7036267E+002
3	0	2.192227561554027E+003	3.3595204E-001	-2.7038031E+002
3	0	2.192727561541396E+003	3.3604473E-001	-2.7038031E+002
3	0	2.193227561528765E+003	3.3606490E-001	-2.7038031E+002
3	0	2.193727561516134E+003	3.3598694E-001	-2.7036972E+002
3	0	2.194227561503503E+003	3.3579749E-001	-2.7036972E+002
3	0	2.194727561490872E+003	3.3559674E-001	-2.7037677E+002
3	0	2.195227561478241E+003	3.3559188E-001	-2.7039093E+002
3	0	2.195727561465610E+003	3.3557156E-001	-2.7036972E+002
3	0	2.196227561452979E+003	3.3546230E-001	-2.7038742E+002
3	0	2.196727561440348E+003	3.3528727E-001	-2.7038031E+002
3	0	2.197227561427717E+003	3.3511102E-001	-2.7038031E+002
3	0	2.197727561415086E+003	3.3487055E-001	-2.7038031E+002
3	0	2.198227561402455E+003	3.3454484E-001	-2.7038385E+002
3	0	2.198727561389824E+003	3.3422542E-001	-2.7036618E+002
3	0	2.199227561377193E+003	3.3412030E-001	-2.7039801E+002
3	0	2.199727561364562E+003	3.3403099E-001	-2.7037326E+002
3	0	2.200227561351930E+003	3.3383924E-001	-2.7041919E+002
3	0	2.200727561339299E+003	3.3361012E-001	-2.7040155E+002
3	0	2.201227561326668E+003	3.3337870E-001	-2.7036618E+002
3	0	2.201727561314037E+003	3.3309266E-001	-2.7040506E+002
3	0	2.202227561301406E+003	3.3272025E-001	-2.7035913E+002
3	0	2.202727561288775E+003	3.3236113E-001	-2.7035205E+002
3	0	2.203227561276144E+003	3.3224723E-001	-2.7040155E+002
3	0	2.203727561263513E+003	3.3216450E-001	-2.7037326E+002
3	0	2.204227561250882E+003	3.3200166E-001	-2.7037677E+002
3	0	2.204727561238251E+003	3.3179271E-001	-2.7036972E+002
3	0	2.205227561225620E+003	3.3157736E-001	-2.7039801E+002
3	0	2.205727561212989E+003	3.3129248E-001	-2.7039447E+002
3	0	2.206227561200358E+003	3.3094451E-001	-2.7036972E+002
3	0	2.206727561187727E+003	3.3061394E-001	-2.7039801E+002
3	0	2.207227561175096E+003	3.3050463E-001	-2.7039447E+002
3	0	2.207727561162465E+003	3.3041385E-001	-2.7039801E+002
3	0	2.208227561149833E+003	3.3026940E-001	-2.7036267E+002
3	0	2.208727561137202E+003	3.3012789E-001	-2.7036618E+002
3	0	2.209227561124571E+003	3.3004242E-001	-2.7036972E+002
3	0	2.209727561111940E+003	3.2998088E-001	-2.7036267E+002
3	0	2.210227561099309E+003	3.2985848E-001	-2.7036618E+002
3	0	2.210727561086678E+003	3.2979786E-001	-2.7036618E+002
3	0	2.211227561074047E+003	3.3001110E-001	-2.7036972E+002
3	0	2.211727561061416E+003	3.3025497E-001	-2.7039093E+002
3	0	2.212227561048785E+003	3.3041748E-001	-2.7036972E+002
3	0	2.212727561036154E+003	3.3050856E-001	-2.7039801E+002
3	0	2.213227561023523E+003	3.3053851E-001	-2.7037326E+002
3	0	2.213727561010892E+003	3.3049008E-001	-2.7037677E+002
3	0	2.214227560998261E+003	3.3031565E-001	-2.7038742E+002
3	0	2.214727560985630E+003	3.3012602E-001	-2.7037326E+002
3	0	2.215227560972999E+003	3.3012235E-001	-2.7037326E+002
3	0	2.215727560960368E+003	3.3013180E-001	-2.7038742E+002
3	0	2.216227560947736E+003	3.3003443E-001	-2.7039093E+002
3	0	2.216727560935105E+003	3.2986450E-001	-2.7037326E+002
3	0	2.217227560922474E+003	3.2967260E-001	-2.7038742E+002
3	0	2.217727560909843E+003	3.2944137E-001	-2.7036972E+002
3	0	2.218227560897212E+003	3.2909784E-001	-2.7038742E+002
3	0	2.218727560884581E+003	3.2878047E-001	-2.7036618E+002
3	0	2.219227560871950E+003	3.2867476E-001	-2.7039447E+002
3	0	2.219727560859319E+003	3.2857314E-001	-2.7037677E+002
3	0	2.220227560846688E+003	3.2840598E-001	-2.7039447E+002
3	0	2.220727560834057E+003	3.2819420E-001	-2.7041568E+002
3	0	2.221227560821426E+003	3.2796523E-001	-2.7035913E+002
3	0	2.221727560808795E+003	3.2769257E-001	-2.7037326E+002
3	0	2.222227560796164E+003	3.2733175E-001	-2.7036972E+002
3	0	2.222727560783533E+003	3.2699254E-001	-2.7038031E+002
3	0	2.223227560770902E+003	3.2686827E-001	-2.7038385E+002
3	0	2.223727560758271E+003	3.2675141E-001	-2.7036972E+002
3	0	2.224227560745639E+003	3.2656187E-001	-2.7039801E+002
3	0	2.224727560733008E+003	3.2633305E-001	-2.7037326E+002
3	0	2.225227560720377E+003	3.2608509E-001	-2.7039093E+002
3	0	2.225727560707746E+003	3.2582530E-001	-2.7039093E+002
3	0	2.226227560695115E+003	3.2547915E-001	-2.7038031E+002
3	0	2.226727560682484E+003	3.2515433E-001	-2.7039801E+002
3	0	2.227227560669853E+003	3.2503417E-001	-2.7036267E+002
3	0	2.227727560657222E+003	3.2495022E-001	-2.7039447E+002
3	0	2.228227560644591E+003	3.2481468E-001	-2.7038742E+002
3	0	2.228727560631960E+003	3.2466391E-001	-2.7035913E+002
3	0	2.229227560619329E+003	3.2454953E-001	-2.7035559E+002
3	0	2.229727560606698E+003	3.2443699E-001	-2.7034851E+002
3	0	2.230227560594067E+003	3.2428473E-001	-2.7038742E+002
3	0	2.230727560581436E+003	3.2421345E-001	-2.7038742E+002
3	0	2.231227560568805E+003	3.2439020E-001	-2.7039093E+002
3	0	2.231727560556174E+003	3.2461503E-001	-2.7037326E+002
3	0	2.232227560543543E+003	3.2478717E-001	-2.7038385E+002
3	0	2.232727560530911E+003	3.2489011E-001	-2.7039801E+002
3	0	2.233227560518280E+003	3.2496178E-001	-2.7036972E+002
3	0	2.233727560505649E+003	3.2493135E-001	-2.7038385E+002
3	0	2.234227560493018E+003	3.2476389E-001	-2.7036267E+002
3	0	2.234727560480387E+003	3.2458413E-001	-2.7039801E+002
3	0	2.235227560467756E+003	3.2459822E-001	-2.7039093E+002
3	0	2.235727560455125E+003	3.2461163E-001	-2.7037326E+002
3	0	2.236227560442494E+003	3.2453644E-001	-2.7037677E+002
3	0	2.236727560429863E+003	3.2438934E-001	-2.7037326E+002
3	0	2.237227560417232E+003	3.2422364E-001	-2.7036618E+002
3	0	2.237727560404601E+003	3.2399830E-001	-2.7035559E+002
3	0	2.238227560391970E+003	3.2367289E-001	-2.7040506E+002
3	0	2.238727560379339E+003	3.2334435E-001	-2.7038385E+002
3	0	2.239227560366708E+003	3.2320774E-001	-2.7039093E+002
3	0	2.239727560354077E+003	3.2309410E-001	-2.7038031E+002
3	0	2.240227560341446E+003	3.2293215E-001	-2.7037677E+002
3	0	2.240727560328814E+003	3.2273045E-001	-2.7036972E+002
3	0	2.241227560316183E+003	3.2251608E-001	-2.7036972E+002
3	0	2.241727560303552E+003	3.2222685E-001	-2.7037326E+002
3	0	2.242227560290921E+003	3.2185870E-001	-2.7037326E+002
3	0	2.242727560278290E+003	3.2150221E-001	-2.7036267E+002
3	0	2.243227560265659E+003	3.2134384E-001	-2.7038031E+002
3	0	2.243727560253028E+003	3.2122323E-001	-2.7039801E+002
3	0	2.244227560240397E+003	3.2105273E-001	-2.7037326E+002
3	0	2.244727560227766E+003	3.2083833E-001	-2.7038742E+002
3	0	2.245227560215135E+003	3.2061818E-001	-2.7038385E+002
3	0	2.245727560202504E+003	3.2034674E-001	-2.7037326E+002
3	0	2.246227560189873E+003	3.2000864E-001	-2.7040506E+002
3	0	2.246727560177242E+003	3.1968197E-001	-2.7039447E+002
3	0	2.247227560164611E+003	3.1955299E-001	-2.7037326E+002
3	0	2.247727560151980E+003	3.1945795E-001	-2.7037326E+002
3	0	2.248227560139349E+003	3.1930247E-001	-2.7040155E+002
3	0	2.248727560126717E+003	3.1913909E-001	-2.7041214E+002
3	0	2.249227560114086E+003	3.1900868E-001	-2.7037677E+002
3	0	2.249727560101455E+003	3.1889352E-001	-2.7035913E+002
3	0	2.250227560088824E+003	3.1875497E-001	-2.7040155E+002
3	0	2.250727560076193E+003	3.1866571E-001	-2.7039093E+002
3	0	2.251227560063562E+003	3.1881693E-001	-2.7038385E+002
3	0	2.251727560050931E+003	3.1903303E-001	-2.7037326E+002
3	0	2.252227560038300E+003	3.1922108E-001	-2.7036267E+002
3	0	2.252727560025669E+003	3.1935081E-001	-2.7038031E+002
3	0	2.253227560013038E+003	3.1944203E-001	-2.7038742E+002
3	0	2.253727560000407E+003	3.1941777E-001	-2.7038742E+002
3	0	2.254227559987776E+003	3.1927884E-001	-2.7036267E+002
3	0	2.254727559975145E+003	3.1913397E-001	-2.7038031E+002
3	0	2.255227559962514E+003	3.1914425E-001	-2.7036972E+002
3	0	2.255727559949883E+003	3.1917408E-001	-2.7036972E+002
3	0	2.256227559937252E+003	3.1911522E-001	-2.7038031E+002
3	0	2.256727559924620E+003	3.1898034E-001	-2.7037326E+002
3	0	2.257227559911989E+003	3.1882304E-001	-2.7037677E+002
3	0	2.257727559899358E+003	3.1860939E-001	-2.7037677E+002
3	0	2.257752159898737E+003	3.1846994E-001	-2.7036618E+002