EC-Lab ASCII FILE
Nb header lines : 55                          

Open Circuit Voltage

Run on channel : 1 (SN 81504)
User : 
CE vs. WE compliance from -10 V to 10 V
Electrode connection : standard
Potential control : Ewe
Ewe ctrl range : min = -2.50 V, max = 2.50 V
Safety Limits :
	Do not start on E overload
Acquisition started on : 05/07/2026 14:29:10.843
Loaded Setting File :  C:\PEM-WE_measurements\2026\372_IV_IV IrOx, 5 min Pt, 30 min C, etched cathode\new station\Loopeis new\1,46 V different time gaps open cell\Loopeis 1,46V_30s_3_PEIS from 6500Hz to 1000Hz.mps
Saved on :
	File : L_03_Loopeis 1,46V_30s_3_PEIS from 6500Hz to 1000Hz_04_OCV_C01.mpr
	Directory : C:\PEM-WE_measurements\2026\372_IV_IV IrOx, 5 min Pt, 30 min C, etched cathode\new station\Loopeis new\1,46 V different time gaps open cell\
	Host : 192.168.0.2
Device : SP-150e (SN .005491)
Address : 192.168.0.91
EC-LAB for windows v11.71 (software)
Internet server v28.00 (firmware)
Command interpretor v14.01 (firmware)
Electrode material : 
Initial state : 
Electrolyte : 
Comments : 
Current amplifier : SP-150eB-20A
Electrode surface area : 0.001 cm²
Characteristic mass : 0.001 g
Equivalent Weight : 0.000 g/eq.
Density : 0.000 g/cm3
Volume (V) : 0.001 cm³
Record Analogic IN 1
Text export
   Mode : Standard
   Time format : Elapsed
Cycle Definition : Charge/Discharge alternance
External device configuration :
   device type : Temperature Probe
   device name : Other
   Analog IN 1 : 
      unit : T/Â°C
      max : 100.000 at 2.000 V
      min : 0.000 at 1.460 V
tR (h:m:s)          0:00:30.0000        
dER/dt (mV/h)       1.0                 
record              <Ewe>               
dER (mV)            10.00               
dtR (s)             0.5000              
E range min (V)     -2.500              
E range max (V)     2.500               

mode	error	time/s	<Ewe/V>	Analog IN 1/V	
3	0	1.206586002395488E+002	1.0181015E+000	-2.7038031E+002
3	0	1.211586002269178E+002	1.1943926E+000	-2.7036972E+002
3	0	1.216586002142867E+002	1.1002101E+000	-2.7038742E+002
3	0	1.221586002016556E+002	7.5670660E-001	-2.7034851E+002
3	0	1.226586001890246E+002	3.8407135E-001	-2.7039447E+002
3	0	1.231586001763935E+002	3.1581053E-001	-2.7038742E+002
3	0	1.236586001637625E+002	3.0661497E-001	-2.7039447E+002
3	0	1.241586001511314E+002	2.9998910E-001	-2.7037326E+002
3	0	1.246586001385003E+002	2.9449835E-001	-2.7037677E+002
3	0	1.251586001258693E+002	2.9024887E-001	-2.7038385E+002
3	0	1.256586001132382E+002	2.8698510E-001	-2.7037326E+002
3	0	1.261586001006071E+002	2.8440145E-001	-2.7038385E+002
3	0	1.266586000879761E+002	2.8233176E-001	-2.7039093E+002
3	0	1.271586000753450E+002	2.8066176E-001	-2.7037326E+002
3	0	1.276586000627140E+002	2.7926859E-001	-2.7039447E+002
3	0	1.281586000500829E+002	2.7806544E-001	-2.7036618E+002
3	0	1.286586000374518E+002	2.7701050E-001	-2.7040860E+002
3	0	1.291586000248208E+002	2.7605751E-001	-2.7037326E+002
3	0	1.296586000121897E+002	2.7517563E-001	-2.7038031E+002
3	0	1.301585999995586E+002	2.7436563E-001	-2.7038742E+002
3	0	1.306585999869276E+002	2.7360314E-001	-2.7035913E+002
3	0	1.311585999742965E+002	2.7291238E-001	-2.7038385E+002
3	0	1.316585999616655E+002	2.7227366E-001	-2.7038031E+002
3	0	1.321585999490344E+002	2.7165294E-001	-2.7038031E+002
3	0	1.326585999364033E+002	2.7105665E-001	-2.7037677E+002
3	0	1.331585999237723E+002	2.7047765E-001	-2.7037677E+002
3	0	1.336585999111412E+002	2.6989561E-001	-2.7038031E+002
3	0	1.341585998985101E+002	2.6931345E-001	-2.7036618E+002
3	0	1.346585998858791E+002	2.6874065E-001	-2.7040860E+002
3	0	1.351585998732480E+002	2.6821417E-001	-2.7039447E+002
3	0	1.356585998606170E+002	2.6769677E-001	-2.7039093E+002
3	0	1.361585998479859E+002	2.6718351E-001	-2.7039093E+002
3	0	1.366585998353548E+002	2.6668090E-001	-2.7037677E+002
3	0	1.371585998227238E+002	2.6618218E-001	-2.7037677E+002
3	0	1.376585998100927E+002	2.6567748E-001	-2.7036972E+002
3	0	1.381585997974616E+002	2.6515111E-001	-2.7038031E+002
3	0	1.386585997848306E+002	2.6463148E-001	-2.7039093E+002
3	0	1.391585997721995E+002	2.6415646E-001	-2.7035559E+002
3	0	1.396585997595685E+002	2.6368588E-001	-2.7038742E+002
3	0	1.401585997469374E+002	2.6321444E-001	-2.7040155E+002
3	0	1.406585997343063E+002	2.6274547E-001	-2.7038385E+002
3	0	1.411585997216753E+002	2.6226735E-001	-2.7036972E+002
3	0	1.416585997090442E+002	2.6178810E-001	-2.7038742E+002
3	0	1.421585996964131E+002	2.6128602E-001	-2.7038385E+002
3	0	1.426585996837821E+002	2.6078799E-001	-2.7039093E+002
3	0	1.431585996711510E+002	2.6033461E-001	-2.7038385E+002
3	0	1.436585996585200E+002	2.5989005E-001	-2.7037677E+002
3	0	1.441585996458889E+002	2.5945100E-001	-2.7038031E+002
3	0	1.446585996332578E+002	2.5901273E-001	-2.7038031E+002
3	0	1.451585996206268E+002	2.5857028E-001	-2.7038031E+002
3	0	1.456585996079957E+002	2.5811836E-001	-2.7037326E+002
3	0	1.461585995953646E+002	2.5765207E-001	-2.7038742E+002
3	0	1.466585995827336E+002	2.5718507E-001	-2.7036267E+002
3	0	1.471585995701025E+002	2.5676513E-001	-2.7036618E+002
3	0	1.476585995574715E+002	2.5634247E-001	-2.7038385E+002
3	0	1.481585995448404E+002	2.5592414E-001	-2.7037677E+002
3	0	1.486585995322093E+002	2.5551006E-001	-2.7040506E+002
3	0	1.491585995195783E+002	2.5509074E-001	-2.7037326E+002
3	0	1.496585995069472E+002	2.5467309E-001	-2.7038031E+002
3	0	1.501585994943162E+002	2.5423720E-001	-2.7038031E+002
3	0	1.501859994936240E+002	2.5400636E-001	-2.7039447E+002