EC-Lab ASCII FILE
Nb header lines : 55                          

Open Circuit Voltage

Run on channel : 1 (SN 81504)
User : 
CE vs. WE compliance from -10 V to 10 V
Electrode connection : standard
Potential control : Ewe
Ewe ctrl range : min = -2.50 V, max = 2.50 V
Safety Limits :
	Do not start on E overload
Acquisition started on : 05/10/2026 04:16:10.113
Loaded Setting File :  C:\PEM-WE_measurements\2026\372_IV_IV IrOx, 5 min Pt, 30 min C, etched cathode\new station\Loopeis new\1,46 V different time gaps closed cell\Loopeis 1,46V_90s_3_PEIS from 6500Hz to 1000Hz.mps
Saved on :
	File : L_18_Loopeis 1,46V_90s_3_PEIS from 6500Hz to 1000Hz_12_OCV_C01.mpr
	Directory : C:\PEM-WE_measurements\2026\372_IV_IV IrOx, 5 min Pt, 30 min C, etched cathode\new station\Loopeis new\1,46 V different time gaps closed cell\
	Host : 192.168.0.2
Device : SP-150e (SN .005491)
Address : 192.168.0.91
EC-LAB for windows v11.71 (software)
Internet server v28.00 (firmware)
Command interpretor v14.01 (firmware)
Electrode material : 
Initial state : 
Electrolyte : 
Comments : 
Current amplifier : SP-150eB-20A
Electrode surface area : 0.001 cm²
Characteristic mass : 0.001 g
Equivalent Weight : 0.000 g/eq.
Density : 0.000 g/cm3
Volume (V) : 0.001 cm³
Record Analogic IN 1
Text export
   Mode : Standard
   Time format : Elapsed
Cycle Definition : Charge/Discharge alternance
External device configuration :
   device type : Temperature Probe
   device name : Other
   Analog IN 1 : 
      unit : T/Â°C
      max : 100.000 at 2.000 V
      min : 0.000 at 1.460 V
tR (h:m:s)          0:01:30.0000        
dER/dt (mV/h)       1.0                 
record              <Ewe>               
dER (mV)            10.00               
dtR (s)             0.5000              
E range min (V)     -2.500              
E range max (V)     2.500               

mode	error	time/s	<Ewe/V>	Analog IN 1/V	
3	0	7.226249917236419E+002	1.1391190E+000	-2.7036972E+002
3	0	7.231249917110108E+002	1.2612636E+000	-2.7039093E+002
3	0	7.236249916983797E+002	1.2631007E+000	-2.7038742E+002
3	0	7.241249916857487E+002	1.2632806E+000	-2.7038385E+002
3	0	7.246249916731176E+002	1.2624984E+000	-2.7035913E+002
3	0	7.251249916604866E+002	1.2608986E+000	-2.7040506E+002
3	0	7.256249916478555E+002	1.2584039E+000	-2.7037677E+002
3	0	7.261249916352244E+002	1.2546692E+000	-2.7040860E+002
3	0	7.266249916225934E+002	1.2489663E+000	-2.7037326E+002
3	0	7.271249916099623E+002	1.2401319E+000	-2.7039093E+002
3	0	7.276249915973312E+002	1.2267666E+000	-2.7037677E+002
3	0	7.281249915847002E+002	1.2068005E+000	-2.7037326E+002
3	0	7.286249915720691E+002	1.1758916E+000	-2.7038385E+002
3	0	7.291249915594381E+002	1.1247892E+000	-2.7034851E+002
3	0	7.296249915468070E+002	1.0336542E+000	-2.7037677E+002
3	0	7.301249915341759E+002	8.7044019E-001	-2.7037677E+002
3	0	7.306249915215449E+002	6.9310510E-001	-2.7040506E+002
3	0	7.311249915089138E+002	6.2671000E-001	-2.7037677E+002
3	0	7.316249914962827E+002	6.0627288E-001	-2.7035913E+002
3	0	7.321249914836517E+002	6.0067278E-001	-2.7039447E+002
3	0	7.326249914710206E+002	6.0075134E-001	-2.7038385E+002
3	0	7.331249914583896E+002	6.0275066E-001	-2.7039801E+002
3	0	7.336249914457585E+002	6.0544699E-001	-2.7038742E+002
3	0	7.341249914331274E+002	6.0835218E-001	-2.7037326E+002
3	0	7.346249914204964E+002	6.1068666E-001	-2.7038031E+002
3	0	7.351249914078653E+002	6.1228198E-001	-2.7038385E+002
3	0	7.356249913952342E+002	6.1384249E-001	-2.7039447E+002
3	0	7.361249913826032E+002	6.1688381E-001	-2.7037677E+002
3	0	7.366249913699721E+002	6.1988169E-001	-2.7036618E+002
3	0	7.371249913573411E+002	6.2207729E-001	-2.7038385E+002
3	0	7.376249913447100E+002	6.2362039E-001	-2.7039801E+002
3	0	7.381249913320789E+002	6.2492794E-001	-2.7039093E+002
3	0	7.386249913194479E+002	6.2552595E-001	-2.7034851E+002
3	0	7.391249913068168E+002	6.2530309E-001	-2.7037677E+002
3	0	7.396249912941857E+002	6.2537444E-001	-2.7034851E+002
3	0	7.401249912815547E+002	6.2693131E-001	-2.7038031E+002
3	0	7.406249912689236E+002	6.2863499E-001	-2.7038385E+002
3	0	7.411249912562926E+002	6.2972295E-001	-2.7038742E+002
3	0	7.416249912436615E+002	6.3059157E-001	-2.7038742E+002
3	0	7.421249912310304E+002	6.3142729E-001	-2.7039447E+002
3	0	7.426249912183994E+002	6.3206071E-001	-2.7038742E+002
3	0	7.431249912057683E+002	6.3229328E-001	-2.7037677E+002
3	0	7.436249911931372E+002	6.3318169E-001	-2.7037326E+002
3	0	7.441249911805062E+002	6.3622153E-001	-2.7036972E+002
3	0	7.446249911678751E+002	6.4004755E-001	-2.7038031E+002
3	0	7.451249911552441E+002	6.4384353E-001	-2.7036267E+002
3	0	7.456249911426130E+002	6.4769685E-001	-2.7038031E+002
3	0	7.461249911299819E+002	6.5162671E-001	-2.7039093E+002
3	0	7.466249911173509E+002	6.5509987E-001	-2.7035913E+002
3	0	7.471249911047198E+002	6.5799129E-001	-2.7039801E+002
3	0	7.476249910920887E+002	6.6107357E-001	-2.7037677E+002
3	0	7.481249910794577E+002	6.6581112E-001	-2.7041568E+002
3	0	7.486249910668266E+002	6.7099679E-001	-2.7039447E+002
3	0	7.491249910541956E+002	6.7545736E-001	-2.7039801E+002
3	0	7.496249910415645E+002	6.7912185E-001	-2.7035559E+002
3	0	7.501249910289334E+002	6.8221653E-001	-2.7037677E+002
3	0	7.506249910163024E+002	6.8421370E-001	-2.7038385E+002
3	0	7.511249910036713E+002	6.8513852E-001	-2.7038742E+002
3	0	7.516249909910402E+002	6.8613189E-001	-2.7038385E+002
3	0	7.521249909784092E+002	6.8867755E-001	-2.7036972E+002
3	0	7.526249909657781E+002	6.9141084E-001	-2.7040506E+002
3	0	7.531249909531471E+002	6.9322097E-001	-2.7038742E+002
3	0	7.536249909405160E+002	6.9401771E-001	-2.7037326E+002
3	0	7.541249909278849E+002	6.9388252E-001	-2.7037326E+002
3	0	7.546249909152539E+002	6.9262785E-001	-2.7040506E+002
3	0	7.551249909026228E+002	6.9031882E-001	-2.7036618E+002
3	0	7.556249908899918E+002	6.8800592E-001	-2.7036267E+002
3	0	7.561249908773607E+002	6.8741387E-001	-2.7038385E+002
3	0	7.566249908647296E+002	6.8728751E-001	-2.7037326E+002
3	0	7.571249908520986E+002	6.8643045E-001	-2.7039093E+002
3	0	7.576249908394675E+002	6.8456751E-001	-2.7037326E+002
3	0	7.581249908268364E+002	6.8196118E-001	-2.7038742E+002
3	0	7.586249908142054E+002	6.7851365E-001	-2.7040506E+002
3	0	7.591249908015743E+002	6.7421746E-001	-2.7037326E+002
3	0	7.596249907889433E+002	6.7014486E-001	-2.7037677E+002
3	0	7.601249907763122E+002	6.6792935E-001	-2.7039447E+002
3	0	7.606249907636811E+002	6.6638255E-001	-2.7038031E+002
3	0	7.611249907510501E+002	6.6430032E-001	-2.7038031E+002
3	0	7.616249907384190E+002	6.6166723E-001	-2.7036618E+002
3	0	7.621249907257879E+002	6.5879065E-001	-2.7039093E+002
3	0	7.626249907131569E+002	6.5565169E-001	-2.7039447E+002
3	0	7.631249907005258E+002	6.5237552E-001	-2.7039801E+002
3	0	7.636249906878948E+002	6.5036029E-001	-2.7038385E+002
3	0	7.641249906752637E+002	6.5112114E-001	-2.7038385E+002
3	0	7.646249906626326E+002	6.5355957E-001	-2.7036972E+002
3	0	7.651249906500016E+002	6.5679914E-001	-2.7038385E+002
3	0	7.656249906373705E+002	6.6059035E-001	-2.7040155E+002
3	0	7.661249906247394E+002	6.6471690E-001	-2.7038031E+002
3	0	7.666249906121084E+002	6.6871989E-001	-2.7040155E+002
3	0	7.671249905994773E+002	6.7215401E-001	-2.7037326E+002
3	0	7.676249905868463E+002	6.7577672E-001	-2.7038031E+002
3	0	7.681249905742152E+002	6.8105143E-001	-2.7039093E+002
3	0	7.686249905615841E+002	6.8671542E-001	-2.7038742E+002
3	0	7.691249905489531E+002	6.9156033E-001	-2.7038742E+002
3	0	7.696249905363220E+002	6.9523996E-001	-2.7039093E+002
3	0	7.701249905236909E+002	6.9770098E-001	-2.7039447E+002
3	0	7.706249905110599E+002	6.9855314E-001	-2.7035913E+002
3	0	7.711249904984288E+002	6.9791818E-001	-2.7037677E+002
3	0	7.716249904857978E+002	6.9684267E-001	-2.7039093E+002
3	0	7.721249904731667E+002	6.9696313E-001	-2.7038031E+002
3	0	7.726249904605356E+002	6.9729465E-001	-2.7040155E+002
3	0	7.731249904479046E+002	6.9664729E-001	-2.7039093E+002
3	0	7.736249904352735E+002	6.9476026E-001	-2.7037677E+002
3	0	7.741249904226424E+002	6.9164294E-001	-2.7038742E+002
3	0	7.746249904100114E+002	6.8715918E-001	-2.7038031E+002
3	0	7.751249903973803E+002	6.8143755E-001	-2.7037326E+002
3	0	7.756249903847493E+002	6.7585933E-001	-2.7039447E+002
3	0	7.761249903721182E+002	6.7203528E-001	-2.7037326E+002
3	0	7.766249903594871E+002	6.6901088E-001	-2.7039801E+002
3	0	7.771249903468561E+002	6.6577291E-001	-2.7036972E+002
3	0	7.776249903342250E+002	6.6190374E-001	-2.7038742E+002
3	0	7.781249903215939E+002	6.5746963E-001	-2.7036618E+002
3	0	7.786249903089629E+002	6.5230864E-001	-2.7039801E+002
3	0	7.791249902963318E+002	6.4627761E-001	-2.7037677E+002
3	0	7.796249902837008E+002	6.4059973E-001	-2.7036972E+002
3	0	7.801249902710697E+002	6.3682097E-001	-2.7039093E+002
3	0	7.806249902584386E+002	6.3378912E-001	-2.7040155E+002
3	0	7.811249902458076E+002	6.3048065E-001	-2.7039093E+002
3	0	7.816249902331765E+002	6.2680864E-001	-2.7039093E+002
3	0	7.821249902205454E+002	6.2310666E-001	-2.7035913E+002
3	0	7.826249902079144E+002	6.1931205E-001	-2.7038031E+002
3	0	7.831249901952833E+002	6.1558402E-001	-2.7038031E+002
3	0	7.836249901826523E+002	6.1285943E-001	-2.7039093E+002
3	0	7.841249901700212E+002	6.1265439E-001	-2.7038031E+002
3	0	7.846249901573901E+002	6.1419892E-001	-2.7037677E+002
3	0	7.851249901447591E+002	6.1656976E-001	-2.7036972E+002
3	0	7.856249901321280E+002	6.1945951E-001	-2.7037326E+002
3	0	7.861249901194969E+002	6.2256187E-001	-2.7040155E+002
3	0	7.866249901068659E+002	6.2540472E-001	-2.7039093E+002
3	0	7.871249900942348E+002	6.2777019E-001	-2.7035559E+002
3	0	7.876249900816038E+002	6.3043851E-001	-2.7040155E+002
3	0	7.881249900689727E+002	6.3468510E-001	-2.7037326E+002
3	0	7.886249900563416E+002	6.3940203E-001	-2.7039447E+002
3	0	7.891249900437106E+002	6.4358777E-001	-2.7037326E+002
3	0	7.896249900310795E+002	6.4693046E-001	-2.7036972E+002
3	0	7.901249900184484E+002	6.4950192E-001	-2.7036972E+002
3	0	7.906249900058174E+002	6.5081424E-001	-2.7038742E+002
3	0	7.911249899931863E+002	6.5052611E-001	-2.7036618E+002
3	0	7.916249899805553E+002	6.4977008E-001	-2.7037677E+002
3	0	7.921249899679242E+002	6.5026814E-001	-2.7037677E+002
3	0	7.926249899552931E+002	6.5087312E-001	-2.7037677E+002
3	0	7.931249899426621E+002	6.5062267E-001	-2.7037326E+002
3	0	7.936249899300310E+002	6.4939821E-001	-2.7037326E+002
3	0	7.941249899173999E+002	6.4714617E-001	-2.7038742E+002
3	0	7.946249899047689E+002	6.4371359E-001	-2.7039093E+002
3	0	7.951249898921378E+002	6.3916755E-001	-2.7037677E+002
3	0	7.956249898795068E+002	6.3467938E-001	-2.7036618E+002
3	0	7.961249898668757E+002	6.3171643E-001	-2.7038742E+002
3	0	7.966249898542446E+002	6.2916094E-001	-2.7039447E+002
3	0	7.971249898416136E+002	6.2614727E-001	-2.7038742E+002
3	0	7.976249898289825E+002	6.2245405E-001	-2.7040506E+002
3	0	7.981249898163514E+002	6.1827415E-001	-2.7038385E+002
3	0	7.986249898037204E+002	6.1314213E-001	-2.7039447E+002
3	0	7.991249897910893E+002	6.0736108E-001	-2.7039801E+002
3	0	7.996249897784583E+002	6.0205978E-001	-2.7036972E+002
3	0	8.001249897658272E+002	5.9848326E-001	-2.7037677E+002
3	0	8.006249897531961E+002	5.9540743E-001	-2.7040155E+002
3	0	8.011249897405651E+002	5.9216815E-001	-2.7039447E+002
3	0	8.016249897279340E+002	5.8865494E-001	-2.7036972E+002
3	0	8.021249897153029E+002	5.8500016E-001	-2.7036618E+002
3	0	8.026249897026719E+002	5.8103627E-001	-2.7039093E+002
3	0	8.031249896900408E+002	5.7673424E-001	-2.7036972E+002
3	0	8.036249896774098E+002	5.7331872E-001	-2.7036267E+002
3	0	8.041249896647787E+002	5.7222283E-001	-2.7038031E+002
3	0	8.046249896521476E+002	5.7233870E-001	-2.7039447E+002
3	0	8.051249896395166E+002	5.7307458E-001	-2.7038031E+002
3	0	8.056249896268855E+002	5.7442874E-001	-2.7040506E+002
3	0	8.061249896142544E+002	5.7622582E-001	-2.7037677E+002
3	0	8.066249896016234E+002	5.7797831E-001	-2.7038031E+002
3	0	8.071249895889923E+002	5.7936984E-001	-2.7038385E+002
3	0	8.076249895763613E+002	5.8109194E-001	-2.7039801E+002
3	0	8.081249895637302E+002	5.8439803E-001	-2.7038031E+002
3	0	8.086249895510991E+002	5.8810437E-001	-2.7038385E+002
3	0	8.091249895384681E+002	5.9145308E-001	-2.7039447E+002
3	0	8.096249895258370E+002	5.9416872E-001	-2.7036618E+002
3	0	8.101249895132059E+002	5.9628868E-001	-2.7038742E+002
3	0	8.106249895005749E+002	5.9725636E-001	-2.7035913E+002
3	0	8.111249894879438E+002	5.9705085E-001	-2.7037677E+002
3	0	8.116249894753128E+002	5.9655726E-001	-2.7036618E+002
3	0	8.121249894626817E+002	5.9719080E-001	-2.7037677E+002
3	0	8.121505894620350E+002	5.9759718E-001	-2.7041214E+002