EC-Lab ASCII FILE
Nb header lines : 55                          

Open Circuit Voltage

Run on channel : 1 (SN 81504)
User : 
CE vs. WE compliance from -10 V to 10 V
Electrode connection : standard
Potential control : Ewe
Ewe ctrl range : min = -2.50 V, max = 2.50 V
Safety Limits :
	Do not start on E overload
Acquisition started on : 05/07/2026 19:27:13.907
Loaded Setting File :  C:\PEM-WE_measurements\2026\372_IV_IV IrOx, 5 min Pt, 30 min C, etched cathode\new station\Loopeis new\1,46 V different time gaps open cell\Loopeis 1,46V_90s_4_PEIS from 650Hz to 100Hz.mps
Saved on :
	File : L_19_Loopeis 1,46V_90s_4_PEIS from 650Hz to 100Hz_08_OCV_C01.mpr
	Directory : C:\PEM-WE_measurements\2026\372_IV_IV IrOx, 5 min Pt, 30 min C, etched cathode\new station\Loopeis new\1,46 V different time gaps open cell\
	Host : 192.168.0.2
Device : SP-150e (SN .005491)
Address : 192.168.0.91
EC-LAB for windows v11.71 (software)
Internet server v28.00 (firmware)
Command interpretor v14.01 (firmware)
Electrode material : 
Initial state : 
Electrolyte : 
Comments : 
Current amplifier : SP-150eB-20A
Electrode surface area : 0.001 cm²
Characteristic mass : 0.001 g
Equivalent Weight : 0.000 g/eq.
Density : 0.000 g/cm3
Volume (V) : 0.001 cm³
Record Analogic IN 1
Text export
   Mode : Standard
   Time format : Elapsed
Cycle Definition : Charge/Discharge alternance
External device configuration :
   device type : Temperature Probe
   device name : Other
   Analog IN 1 : 
      unit : T/Â°C
      max : 100.000 at 2.000 V
      min : 0.000 at 1.460 V
tR (h:m:s)          0:01:30.0000        
dER/dt (mV/h)       1.0                 
record              <Ewe>               
dER (mV)            10.00               
dtR (s)             0.5000              
E range min (V)     -2.500              
E range max (V)     2.500               

mode	error	time/s	<Ewe/V>	Analog IN 1/V	
3	0	4.504183951653977E+002	1.0341262E+000	-2.7035559E+002
3	0	4.509183951527666E+002	1.2014118E+000	-2.7039093E+002
3	0	4.514183951401355E+002	1.1279597E+000	-2.7039093E+002
3	0	4.519183951275045E+002	9.3261975E-001	-2.7036618E+002
3	0	4.524183951148734E+002	4.8646829E-001	-2.7037326E+002
3	0	4.529183951022424E+002	3.1528899E-001	-2.7038385E+002
3	0	4.534183950896113E+002	2.9643905E-001	-2.7039447E+002
3	0	4.539183950769802E+002	2.8959841E-001	-2.7037677E+002
3	0	4.544183950643492E+002	2.8353971E-001	-2.7038742E+002
3	0	4.549183950517181E+002	2.7862138E-001	-2.7037677E+002
3	0	4.554183950390870E+002	2.7477404E-001	-2.7038742E+002
3	0	4.559183950264560E+002	2.7178383E-001	-2.7039801E+002
3	0	4.564183950138249E+002	2.6940465E-001	-2.7036618E+002
3	0	4.569183950011939E+002	2.6745263E-001	-2.7038742E+002
3	0	4.574183949885628E+002	2.6579830E-001	-2.7038031E+002
3	0	4.579183949759317E+002	2.6441744E-001	-2.7038385E+002
3	0	4.584183949633007E+002	2.6325282E-001	-2.7037326E+002
3	0	4.589183949506696E+002	2.6221511E-001	-2.7038031E+002
3	0	4.594183949380385E+002	2.6128051E-001	-2.7038031E+002
3	0	4.599183949254075E+002	2.6043183E-001	-2.7040506E+002
3	0	4.604183949127764E+002	2.5964269E-001	-2.7040155E+002
3	0	4.609183949001454E+002	2.5889042E-001	-2.7038031E+002
3	0	4.614183948875143E+002	2.5815436E-001	-2.7037677E+002
3	0	4.619183948748832E+002	2.5746530E-001	-2.7036972E+002
3	0	4.624183948622522E+002	2.5683665E-001	-2.7039447E+002
3	0	4.629183948496211E+002	2.5623614E-001	-2.7038031E+002
3	0	4.634183948369900E+002	2.5565919E-001	-2.7038031E+002
3	0	4.639183948243590E+002	2.5508356E-001	-2.7035559E+002
3	0	4.644183948117279E+002	2.5451997E-001	-2.7040506E+002
3	0	4.649183947990969E+002	2.5394639E-001	-2.7038031E+002
3	0	4.654183947864658E+002	2.5336343E-001	-2.7039093E+002
3	0	4.659183947738347E+002	2.5280750E-001	-2.7038031E+002
3	0	4.664183947612037E+002	2.5228652E-001	-2.7036618E+002
3	0	4.669183947485726E+002	2.5177673E-001	-2.7040506E+002
3	0	4.674183947359415E+002	2.5126216E-001	-2.7037677E+002
3	0	4.679183947233105E+002	2.5075755E-001	-2.7037326E+002
3	0	4.684183947106794E+002	2.5025514E-001	-2.7038031E+002
3	0	4.689183946980484E+002	2.4974002E-001	-2.7038031E+002
3	0	4.694183946854173E+002	2.4921219E-001	-2.7039801E+002
3	0	4.699183946727862E+002	2.4869825E-001	-2.7037677E+002
3	0	4.704183946601552E+002	2.4822181E-001	-2.7036618E+002
3	0	4.709183946475241E+002	2.4774902E-001	-2.7038031E+002
3	0	4.714183946348930E+002	2.4727066E-001	-2.7037326E+002
3	0	4.719183946222620E+002	2.4679534E-001	-2.7037326E+002
3	0	4.724183946096309E+002	2.4631861E-001	-2.7038031E+002
3	0	4.729183945969999E+002	2.4582702E-001	-2.7038742E+002
3	0	4.734183945843688E+002	2.4532850E-001	-2.7036267E+002
3	0	4.739183945717377E+002	2.4483666E-001	-2.7035559E+002
3	0	4.744183945591067E+002	2.4438101E-001	-2.7037326E+002
3	0	4.749183945464756E+002	2.4393585E-001	-2.7036618E+002
3	0	4.754183945338445E+002	2.4348810E-001	-2.7036267E+002
3	0	4.759183945212135E+002	2.4305092E-001	-2.7035559E+002
3	0	4.764183945085824E+002	2.4260123E-001	-2.7039447E+002
3	0	4.769183944959514E+002	2.4213961E-001	-2.7037677E+002
3	0	4.774183944833203E+002	2.4166749E-001	-2.7035913E+002
3	0	4.779183944706892E+002	2.4121176E-001	-2.7037326E+002
3	0	4.784183944580582E+002	2.4079128E-001	-2.7036972E+002
3	0	4.789183944454271E+002	2.4036936E-001	-2.7036972E+002
3	0	4.794183944327960E+002	2.3996197E-001	-2.7036972E+002
3	0	4.799183944201650E+002	2.3954105E-001	-2.7036972E+002
3	0	4.804183944075339E+002	2.3912854E-001	-2.7035913E+002
3	0	4.809183943949029E+002	2.3869359E-001	-2.7039801E+002
3	0	4.814183943822718E+002	2.3825175E-001	-2.7036972E+002
3	0	4.819183943696407E+002	2.3782577E-001	-2.7037677E+002
3	0	4.824183943570097E+002	2.3743294E-001	-2.7038031E+002
3	0	4.829183943443786E+002	2.3704225E-001	-2.7039093E+002
3	0	4.834183943317476E+002	2.3664869E-001	-2.7038385E+002
3	0	4.839183943191165E+002	2.3625411E-001	-2.7040860E+002
3	0	4.844183943064854E+002	2.3585944E-001	-2.7038385E+002
3	0	4.849183942938544E+002	2.3546283E-001	-2.7038385E+002
3	0	4.854183942812233E+002	2.3505011E-001	-2.7035559E+002
3	0	4.859183942685922E+002	2.3465455E-001	-2.7040506E+002
3	0	4.864183942559612E+002	2.3429658E-001	-2.7036618E+002
3	0	4.869183942433301E+002	2.3393390E-001	-2.7036267E+002
3	0	4.874183942306991E+002	2.3356439E-001	-2.7039447E+002
3	0	4.879183942180680E+002	2.3320475E-001	-2.7036972E+002
3	0	4.884183942054369E+002	2.3284942E-001	-2.7038385E+002
3	0	4.889183941928059E+002	2.3246552E-001	-2.7034851E+002
3	0	4.894183941801748E+002	2.3207824E-001	-2.7037677E+002
3	0	4.899183941675437E+002	2.3171830E-001	-2.7036618E+002
3	0	4.904183941549127E+002	2.3138548E-001	-2.7038031E+002
3	0	4.909183941422816E+002	2.3105025E-001	-2.7040155E+002
3	0	4.914183941296506E+002	2.3072079E-001	-2.7037326E+002
3	0	4.919183941170195E+002	2.3039003E-001	-2.7039447E+002
3	0	4.924183941043884E+002	2.3006012E-001	-2.7036618E+002
3	0	4.929183940917574E+002	2.2970609E-001	-2.7038031E+002
3	0	4.934183940791263E+002	2.2934154E-001	-2.7039093E+002
3	0	4.939183940664952E+002	2.2899935E-001	-2.7035913E+002
3	0	4.944183940538642E+002	2.2869225E-001	-2.7036618E+002
3	0	4.949183940412331E+002	2.2838399E-001	-2.7036618E+002
3	0	4.954183940286021E+002	2.2807138E-001	-2.7038385E+002
3	0	4.959183940159710E+002	2.2776100E-001	-2.7035913E+002
3	0	4.964183940033399E+002	2.2744955E-001	-2.7037677E+002
3	0	4.969183939907089E+002	2.2712609E-001	-2.7041919E+002
3	0	4.974183939780778E+002	2.2679418E-001	-2.7041214E+002
3	0	4.979183939654467E+002	2.2648604E-001	-2.7036972E+002
3	0	4.984183939528157E+002	2.2621290E-001	-2.7037326E+002
3	0	4.989183939401846E+002	2.2593497E-001	-2.7037326E+002
3	0	4.994183939275536E+002	2.2565377E-001	-2.7036267E+002
3	0	4.999183939149225E+002	2.2538751E-001	-2.7038031E+002
3	0	5.004183939022914E+002	2.2510161E-001	-2.7036972E+002
3	0	5.009183938896604E+002	2.2480951E-001	-2.7036972E+002
3	0	5.014183938770293E+002	2.2449422E-001	-2.7036618E+002
3	0	5.019183938643982E+002	2.2421125E-001	-2.7038031E+002
3	0	5.024183938517672E+002	2.2395091E-001	-2.7038742E+002
3	0	5.029183938391361E+002	2.2369952E-001	-2.7038742E+002
3	0	5.034183938265051E+002	2.2344697E-001	-2.7039093E+002
3	0	5.039183938138740E+002	2.2318973E-001	-2.7035913E+002
3	0	5.044183938012429E+002	2.2293411E-001	-2.7037677E+002
3	0	5.049183937886119E+002	2.2266026E-001	-2.7036972E+002
3	0	5.054183937759808E+002	2.2237293E-001	-2.7037326E+002
3	0	5.059183937633497E+002	2.2210649E-001	-2.7038385E+002
3	0	5.064183937507187E+002	2.2187734E-001	-2.7040155E+002
3	0	5.069183937380876E+002	2.2164640E-001	-2.7038742E+002
3	0	5.074183937254566E+002	2.2140853E-001	-2.7038742E+002
3	0	5.079183937128255E+002	2.2117226E-001	-2.7036972E+002
3	0	5.084183937001944E+002	2.2093670E-001	-2.7038031E+002
3	0	5.089183936875634E+002	2.2068778E-001	-2.7037326E+002
3	0	5.094183936749323E+002	2.2042501E-001	-2.7034851E+002
3	0	5.099183936623012E+002	2.2018573E-001	-2.7035559E+002
3	0	5.104183936496702E+002	2.1997467E-001	-2.7038031E+002
3	0	5.109183936370391E+002	2.1977030E-001	-2.7038031E+002
3	0	5.114183936244081E+002	2.1955901E-001	-2.7036972E+002
3	0	5.119183936117770E+002	2.1934478E-001	-2.7035913E+002
3	0	5.124183935991459E+002	2.1912259E-001	-2.7036972E+002
3	0	5.129183935865149E+002	2.1888758E-001	-2.7038742E+002
3	0	5.134183935738838E+002	2.1863490E-001	-2.7037677E+002
3	0	5.139183935612527E+002	2.1840967E-001	-2.7036972E+002
3	0	5.144183935486217E+002	2.1821561E-001	-2.7038031E+002
3	0	5.149183935359906E+002	2.1802184E-001	-2.7037677E+002
3	0	5.154183935233596E+002	2.1782118E-001	-2.7039093E+002
3	0	5.159183935107285E+002	2.1762680E-001	-2.7038742E+002
3	0	5.164183934980974E+002	2.1742521E-001	-2.7035913E+002
3	0	5.169183934854664E+002	2.1721902E-001	-2.7039093E+002
3	0	5.174183934728353E+002	2.1699087E-001	-2.7038385E+002
3	0	5.179183934602042E+002	2.1678381E-001	-2.7039447E+002
3	0	5.184183934475732E+002	2.1660705E-001	-2.7039093E+002
3	0	5.189183934349421E+002	2.1643417E-001	-2.7040506E+002
3	0	5.194183934223111E+002	2.1625145E-001	-2.7039093E+002
3	0	5.199183934096800E+002	2.1607208E-001	-2.7038031E+002
3	0	5.204183933970489E+002	2.1590023E-001	-2.7037677E+002
3	0	5.209183933844179E+002	2.1571077E-001	-2.7036618E+002
3	0	5.214183933717868E+002	2.1549864E-001	-2.7040506E+002
3	0	5.219183933591557E+002	2.1530573E-001	-2.7039093E+002
3	0	5.224183933465247E+002	2.1515018E-001	-2.7035913E+002
3	0	5.229183933338936E+002	2.1499474E-001	-2.7038385E+002
3	0	5.234183933212626E+002	2.1483283E-001	-2.7038031E+002
3	0	5.239183933086315E+002	2.1467230E-001	-2.7038031E+002
3	0	5.244183932960004E+002	2.1451376E-001	-2.7036972E+002
3	0	5.249183932833694E+002	2.1433060E-001	-2.7037677E+002
3	0	5.254183932707383E+002	2.1412235E-001	-2.7036267E+002
3	0	5.259183932581072E+002	2.1395069E-001	-2.7036972E+002
3	0	5.264183932454762E+002	2.1381129E-001	-2.7039801E+002
3	0	5.269183932328451E+002	2.1366479E-001	-2.7038742E+002
3	0	5.274183932202141E+002	2.1351430E-001	-2.7038031E+002
3	0	5.279183932075830E+002	2.1336710E-001	-2.7036972E+002
3	0	5.284183931949519E+002	2.1322447E-001	-2.7036972E+002
3	0	5.289183931823209E+002	2.1304679E-001	-2.7039447E+002
3	0	5.294183931696898E+002	2.1285990E-001	-2.7039447E+002
3	0	5.299183931570587E+002	2.1269967E-001	-2.7037326E+002
3	0	5.304183931444277E+002	2.1256955E-001	-2.7039447E+002
3	0	5.309183931317966E+002	2.1243693E-001	-2.7036267E+002
3	0	5.314183931191656E+002	2.1230060E-001	-2.7039447E+002
3	0	5.319183931065345E+002	2.1216446E-001	-2.7036267E+002
3	0	5.324183930939034E+002	2.1202379E-001	-2.7036972E+002
3	0	5.329183930812724E+002	2.1186468E-001	-2.7038031E+002
3	0	5.334183930686413E+002	2.1168724E-001	-2.7040155E+002
3	0	5.339183930560102E+002	2.1152806E-001	-2.7035913E+002
3	0	5.344183930433792E+002	2.1140487E-001	-2.7036267E+002
3	0	5.349183930307481E+002	2.1128370E-001	-2.7040155E+002
3	0	5.354183930181171E+002	2.1116029E-001	-2.7038385E+002
3	0	5.359183930054860E+002	2.1103711E-001	-2.7038385E+002
3	0	5.364183929928549E+002	2.1090773E-001	-2.7037326E+002
3	0	5.369183929802239E+002	2.1075517E-001	-2.7037326E+002
3	0	5.374183929675928E+002	2.1058780E-001	-2.7038742E+002
3	0	5.379183929549617E+002	2.1043642E-001	-2.7038385E+002
3	0	5.384183929423307E+002	2.1032511E-001	-2.7038742E+002
3	0	5.389183929296996E+002	2.1021180E-001	-2.7034851E+002
3	0	5.394183929170686E+002	2.1009003E-001	-2.7037326E+002
3	0	5.399183929044375E+002	2.0996888E-001	-2.7036972E+002
3	0	5.399417929038464E+002	2.0989089E-001	-2.7039801E+002