EC-Lab ASCII FILE
Nb header lines : 48                          

Open Circuit Voltage

Run on channel : 1 (SN 81504)
User : 
CE vs. WE compliance from -10 V to 10 V
Electrode connection : standard
Potential control : Ewe
Ewe ctrl range : min = -2.50 V, max = 2.50 V
Safety Limits :
	Do not start on E overload
Acquisition started on : 05/09/2026 23:34:18.990
Loaded Setting File :  C:\PEM-WE_measurements\2026\372_IV_IV IrOx, 5 min Pt, 30 min C, etched cathode\new station\Loopeis new\1,46 V different time gaps closed cell\Loopeis 1,46V_30s_2_PEIS from 65kHz to 10kHz.mps
Saved on :
	File : L_02_Loopeis 1,46V_30s_2_PEIS from 65kHz to 10kHz_18_OCV_C01.mpr
	Directory : C:\PEM-WE_measurements\2026\372_IV_IV IrOx, 5 min Pt, 30 min C, etched cathode\new station\Loopeis new\1,46 V different time gaps closed cell\
	Host : 192.168.0.2
Device : SP-150e (SN .005491)
Address : 192.168.0.91
EC-LAB for windows v11.71 (software)
Internet server v28.00 (firmware)
Command interpretor v14.01 (firmware)
Electrode material : 
Initial state : 
Electrolyte : 
Comments : 
Current amplifier : SP-150eB-20A
Electrode surface area : 0.001 cm²
Characteristic mass : 0.001 g
Equivalent Weight : 0.000 g/eq.
Density : 0.000 g/cm3
Volume (V) : 0.001 cm³
Record Analogic IN 1
Text export
   Mode : Standard
   Time format : Elapsed
Cycle Definition : Charge/Discharge alternance
tR (h:m:s)          0:00:30.0000        
dER/dt (mV/h)       1.0                 
record              <Ewe>               
dER (mV)            10.00               
dtR (s)             0.5000              
E range min (V)     -2.500              
E range max (V)     2.500               

mode	error	time/s	<Ewe/V>	Analog IN 1/V	
3	0	6.482859969218407E+002	1.4213690E+000	-3.4306191E-005
3	0	6.487859969092096E+002	1.4137673E+000	-5.3391734E-005
3	0	6.492859968965786E+002	1.4085369E+000	-7.2477276E-005
3	0	6.497859968839475E+002	1.4047211E+000	-3.4306191E-005
3	0	6.502859968713165E+002	1.4017085E+000	-1.5220648E-005
3	0	6.507859968586854E+002	1.3992234E+000	-1.5220648E-005
3	0	6.512859968460543E+002	1.3970712E+000	-1.5220648E-005
3	0	6.517859968334233E+002	1.3951261E+000	-9.1562819E-005
3	0	6.522859968207922E+002	1.3933413E+000	-9.1562819E-005
3	0	6.527859968081611E+002	1.3917817E+000	-5.3391734E-005
3	0	6.532859967955301E+002	1.3903826E+000	-3.4306191E-005
3	0	6.537859967828990E+002	1.3891002E+000	6.1121522E-005
3	0	6.542859967702680E+002	1.3879160E+000	-1.1064836E-004
3	0	6.547859967576369E+002	1.3868141E+000	3.8648941E-006
3	0	6.552859967450058E+002	1.3857611E+000	-7.2477276E-005
3	0	6.557859967323748E+002	1.3847152E+000	-5.3391734E-005
3	0	6.562859967197437E+002	1.3836681E+000	-1.5220648E-005
3	0	6.567859967071126E+002	1.3827428E+000	9.9292607E-005
3	0	6.572859966944816E+002	1.3818611E+000	3.8648941E-006
3	0	6.577859966818505E+002	1.3810281E+000	-1.4881945E-004
3	0	6.582859966692195E+002	1.3802247E+000	-7.2477276E-005
3	0	6.587859966565884E+002	1.3794607E+000	-9.1562819E-005
3	0	6.592859966439573E+002	1.3786962E+000	8.0207064E-005
3	0	6.597859966313263E+002	1.3779051E+000	8.0207064E-005
3	0	6.602859966186952E+002	1.3770844E+000	4.2035979E-005
3	0	6.607859966060641E+002	1.3763610E+000	-1.1064836E-004
3	0	6.612859965934331E+002	1.3756577E+000	-3.4306191E-005
3	0	6.617859965808020E+002	1.3749760E+000	-1.1064836E-004
3	0	6.622859965681710E+002	1.3743019E+000	-1.8699054E-004
3	0	6.627859965555399E+002	1.3736386E+000	-1.4881945E-004
3	0	6.632859965429088E+002	1.3729564E+000	-5.3391734E-005
3	0	6.637859965302778E+002	1.3722285E+000	-3.4306191E-005
3	0	6.642859965176467E+002	1.3714654E+000	-9.1562819E-005
3	0	6.647859965050156E+002	1.3707759E+000	3.8648941E-006
3	0	6.652859964923846E+002	1.3701125E+000	-5.3391734E-005
3	0	6.657859964797535E+002	1.3694581E+000	6.1121522E-005
3	0	6.662859964671225E+002	1.3688024E+000	-7.2477276E-005
3	0	6.667859964544914E+002	1.3681738E+000	4.2035979E-005
3	0	6.672859964418603E+002	1.3675127E+000	-1.5220648E-005
3	0	6.677859964292293E+002	1.3667941E+000	3.8648941E-006
3	0	6.682859964165982E+002	1.3660436E+000	2.2950437E-005
3	0	6.687859964039671E+002	1.3653773E+000	-9.1562819E-005
3	0	6.692859963913361E+002	1.3647220E+000	-7.2477276E-005
3	0	6.697859963787050E+002	1.3640685E+000	-3.4306191E-005
3	0	6.702859963660740E+002	1.3634205E+000	8.0207064E-005
3	0	6.707859963534429E+002	1.3627849E+000	-1.5220648E-005
3	0	6.712859963408118E+002	1.3621310E+000	4.2035979E-005
3	0	6.717859963281808E+002	1.3614173E+000	6.1121522E-005
3	0	6.722859963155497E+002	1.3606658E+000	-1.8699054E-004
3	0	6.727859963029186E+002	1.3599975E+000	6.1121522E-005
3	0	6.732859962902876E+002	1.3593338E+000	-1.4881945E-004
3	0	6.737859962776565E+002	1.3586715E+000	6.1121522E-005
3	0	6.742859962650255E+002	1.3580121E+000	-9.1562819E-005
3	0	6.747859962523944E+002	1.3573605E+000	-1.2973390E-004
3	0	6.752859962397633E+002	1.3566828E+000	-7.2477276E-005
3	0	6.757859962271323E+002	1.3559455E+000	-1.5220648E-005
3	0	6.762859962145012E+002	1.3551769E+000	4.2035979E-005
3	0	6.767859962018701E+002	1.3544774E+000	3.8648941E-006
3	0	6.772859961892391E+002	1.3537881E+000	-1.1064836E-004
3	0	6.777859961766080E+002	1.3530995E+000	-7.2477276E-005
3	0	6.777863961765979E+002	1.3527727E+000	-5.3391734E-005