EC-Lab ASCII FILE
Nb header lines : 48                          

Open Circuit Voltage

Run on channel : 1 (SN 81504)
User : 
CE vs. WE compliance from -10 V to 10 V
Electrode connection : standard
Potential control : Ewe
Ewe ctrl range : min = -2.50 V, max = 2.50 V
Safety Limits :
	Do not start on E overload
Acquisition started on : 05/09/2026 23:34:18.990
Loaded Setting File :  C:\PEM-WE_measurements\2026\372_IV_IV IrOx, 5 min Pt, 30 min C, etched cathode\new station\Loopeis new\1,46 V different time gaps closed cell\Loopeis 1,46V_30s_2_PEIS from 65kHz to 10kHz.mps
Saved on :
	File : L_02_Loopeis 1,46V_30s_2_PEIS from 65kHz to 10kHz_04_OCV_C01.mpr
	Directory : C:\PEM-WE_measurements\2026\372_IV_IV IrOx, 5 min Pt, 30 min C, etched cathode\new station\Loopeis new\1,46 V different time gaps closed cell\
	Host : 192.168.0.2
Device : SP-150e (SN .005491)
Address : 192.168.0.91
EC-LAB for windows v11.71 (software)
Internet server v28.00 (firmware)
Command interpretor v14.01 (firmware)
Electrode material : 
Initial state : 
Electrolyte : 
Comments : 
Current amplifier : SP-150eB-20A
Electrode surface area : 0.001 cm²
Characteristic mass : 0.001 g
Equivalent Weight : 0.000 g/eq.
Density : 0.000 g/cm3
Volume (V) : 0.001 cm³
Record Analogic IN 1
Text export
   Mode : Standard
   Time format : Elapsed
Cycle Definition : Charge/Discharge alternance
tR (h:m:s)          0:00:30.0000        
dER/dt (mV/h)       1.0                 
record              <Ewe>               
dER (mV)            10.00               
dtR (s)             0.5000              
E range min (V)     -2.500              
E range max (V)     2.500               

mode	error	time/s	<Ewe/V>	Analog IN 1/V	
3	0	1.212314002673520E+002	1.2212923E+000	-7.2477276E-005
3	0	1.217314002547209E+002	1.2444744E+000	-3.4306191E-005
3	0	1.222314002420899E+002	1.2494267E+000	-5.3391734E-005
3	0	1.227314002294588E+002	1.2524738E+000	-1.5220648E-005
3	0	1.232314002168278E+002	1.2546487E+000	-9.1562819E-005
3	0	1.237314002041967E+002	1.2563149E+000	-1.6790499E-004
3	0	1.242314001915656E+002	1.2576102E+000	-1.5220648E-005
3	0	1.247314001789346E+002	1.2586256E+000	-3.4306191E-005
3	0	1.252314001663035E+002	1.2594702E+000	-9.1562819E-005
3	0	1.257314001536724E+002	1.2602336E+000	-1.5220648E-005
3	0	1.262314001410414E+002	1.2608967E+000	-7.2477276E-005
3	0	1.267314001284103E+002	1.2614565E+000	-1.1064836E-004
3	0	1.272314001157793E+002	1.2619301E+000	-1.5220648E-005
3	0	1.277314001031482E+002	1.2623352E+000	-7.2477276E-005
3	0	1.282314000905171E+002	1.2626266E+000	-1.5220648E-005
3	0	1.287314000778861E+002	1.2628208E+000	-1.5220648E-005
3	0	1.292314000652550E+002	1.2629842E+000	6.1121522E-005
3	0	1.297314000526239E+002	1.2631699E+000	-1.4881945E-004
3	0	1.302314000399929E+002	1.2633213E+000	2.2950437E-005
3	0	1.307314000273618E+002	1.2634407E+000	-5.3391734E-005
3	0	1.312314000147308E+002	1.2635207E+000	6.1121522E-005
3	0	1.317314000020997E+002	1.2635750E+000	3.8648941E-006
3	0	1.322313999894686E+002	1.2635628E+000	-9.1562819E-005
3	0	1.327313999768376E+002	1.2634602E+000	3.8648941E-006
3	0	1.332313999642065E+002	1.2633475E+000	-5.3391734E-005
3	0	1.337313999515754E+002	1.2632871E+000	-1.4881945E-004
3	0	1.342313999389444E+002	1.2632060E+000	-1.5220648E-005
3	0	1.347313999263133E+002	1.2631001E+000	-5.3391734E-005
3	0	1.352313999136823E+002	1.2629759E+000	2.2950437E-005
3	0	1.357313999010512E+002	1.2628297E+000	-9.1562819E-005
3	0	1.362313998884201E+002	1.2626247E+000	-1.2973390E-004
3	0	1.367313998757891E+002	1.2623478E+000	-7.2477276E-005
3	0	1.372313998631580E+002	1.2620629E+000	-9.1562819E-005
3	0	1.377313998505269E+002	1.2618332E+000	3.8648941E-006
3	0	1.382313998378959E+002	1.2616043E+000	-9.1562819E-005
3	0	1.387313998252648E+002	1.2613517E+000	4.2035979E-005
3	0	1.392313998126338E+002	1.2610818E+000	4.2035979E-005
3	0	1.397313998000027E+002	1.2607944E+000	2.2950437E-005
3	0	1.402313997873716E+002	1.2604387E+000	4.2035979E-005
3	0	1.407313997747406E+002	1.2600149E+000	-3.4306191E-005
3	0	1.412313997621095E+002	1.2595875E+000	-1.8699054E-004
3	0	1.417313997494784E+002	1.2592107E+000	-1.1064836E-004
3	0	1.422313997368474E+002	1.2588363E+000	-5.3391734E-005
3	0	1.427313997242163E+002	1.2584423E+000	-1.5220648E-005
3	0	1.432313997115853E+002	1.2580385E+000	-5.3391734E-005
3	0	1.437313996989542E+002	1.2576282E+000	-5.3391734E-005
3	0	1.442313996863231E+002	1.2571760E+000	-5.3391734E-005
3	0	1.447313996736921E+002	1.2566426E+000	-9.1562819E-005
3	0	1.452313996610610E+002	1.2561183E+000	-1.5220648E-005
3	0	1.457313996484299E+002	1.2556512E+000	-7.2477276E-005
3	0	1.462313996357989E+002	1.2551916E+000	-1.2973390E-004
3	0	1.467313996231678E+002	1.2547113E+000	-1.8699054E-004
3	0	1.472313996105368E+002	1.2542237E+000	-7.2477276E-005
3	0	1.477313995979057E+002	1.2537293E+000	-1.1064836E-004
3	0	1.482313995852746E+002	1.2531873E+000	2.2950437E-005
3	0	1.487313995726436E+002	1.2525743E+000	3.8648941E-006
3	0	1.492313995600125E+002	1.2519659E+000	-5.3391734E-005
3	0	1.497313995473814E+002	1.2514265E+000	-7.2477276E-005
3	0	1.502313995347504E+002	1.2508937E+000	6.1121522E-005
3	0	1.507313995221193E+002	1.2503427E+000	-7.2477276E-005
3	0	1.507669995212200E+002	1.2500443E+000	2.2950437E-005