EC-Lab ASCII FILE
Nb header lines : 48                          

Open Circuit Voltage

Run on channel : 1 (SN 81504)
User : 
CE vs. WE compliance from -10 V to 10 V
Electrode connection : standard
Potential control : Ewe
Ewe ctrl range : min = -2.50 V, max = 2.50 V
Safety Limits :
	Do not start on E overload
Acquisition started on : 05/09/2026 23:34:18.990
Loaded Setting File :  C:\PEM-WE_measurements\2026\372_IV_IV IrOx, 5 min Pt, 30 min C, etched cathode\new station\Loopeis new\1,46 V different time gaps closed cell\Loopeis 1,46V_30s_2_PEIS from 65kHz to 10kHz.mps
Saved on :
	File : L_02_Loopeis 1,46V_30s_2_PEIS from 65kHz to 10kHz_14_OCV_C01.mpr
	Directory : C:\PEM-WE_measurements\2026\372_IV_IV IrOx, 5 min Pt, 30 min C, etched cathode\new station\Loopeis new\1,46 V different time gaps closed cell\
	Host : 192.168.0.2
Device : SP-150e (SN .005491)
Address : 192.168.0.91
EC-LAB for windows v11.71 (software)
Internet server v28.00 (firmware)
Command interpretor v14.01 (firmware)
Electrode material : 
Initial state : 
Electrolyte : 
Comments : 
Current amplifier : SP-150eB-20A
Electrode surface area : 0.001 cm²
Characteristic mass : 0.001 g
Equivalent Weight : 0.000 g/eq.
Density : 0.000 g/cm3
Volume (V) : 0.001 cm³
Record Analogic IN 1
Text export
   Mode : Standard
   Time format : Elapsed
Cycle Definition : Charge/Discharge alternance
tR (h:m:s)          0:00:30.0000        
dER/dt (mV/h)       1.0                 
record              <Ewe>               
dER (mV)            10.00               
dtR (s)             0.5000              
E range min (V)     -2.500              
E range max (V)     2.500               

mode	error	time/s	<Ewe/V>	Analog IN 1/V	
3	0	4.962501973404142E+002	1.4214852E+000	-9.1562819E-005
3	0	4.967501973277831E+002	1.4137992E+000	-5.3391734E-005
3	0	4.972501973151520E+002	1.4085530E+000	3.8648941E-006
3	0	4.977501973025210E+002	1.4047480E+000	-1.5220648E-005
3	0	4.982501972898899E+002	1.4017557E+000	-5.3391734E-005
3	0	4.987501972772588E+002	1.3992804E+000	8.0207064E-005
3	0	4.992501972646278E+002	1.3971674E+000	2.2950437E-005
3	0	4.997501972519967E+002	1.3952761E+000	6.1121522E-005
3	0	5.002501972393657E+002	1.3935269E+000	6.1121522E-005
3	0	5.007501972267346E+002	1.3919249E+000	-5.3391734E-005
3	0	5.012501972141035E+002	1.3905172E+000	-2.2516162E-004
3	0	5.017501972014725E+002	1.3892404E+000	-1.5220648E-005
3	0	5.022501971888414E+002	1.3880508E+000	-9.1562819E-005
3	0	5.027501971762103E+002	1.3869327E+000	-7.2477276E-005
3	0	5.032501971635793E+002	1.3858901E+000	-3.4306191E-005
3	0	5.037501971509482E+002	1.3848615E+000	-1.2973390E-004
3	0	5.042501971383172E+002	1.3838208E+000	-9.1562819E-005
3	0	5.047501971256861E+002	1.3828105E+000	-3.4306191E-005
3	0	5.052501971130550E+002	1.3819065E+000	-1.5220648E-005
3	0	5.057501971004240E+002	1.3810556E+000	3.8648941E-006
3	0	5.062501970877929E+002	1.3802364E+000	-5.3391734E-005
3	0	5.067501970751619E+002	1.3794518E+000	-5.3391734E-005
3	0	5.072501970625308E+002	1.3786944E+000	-1.5220648E-005
3	0	5.077501970498997E+002	1.3779165E+000	-5.3391734E-005
3	0	5.082501970372687E+002	1.3770950E+000	1.1837815E-004
3	0	5.087501970246376E+002	1.3762859E+000	8.0207064E-005
3	0	5.092501970120065E+002	1.3755606E+000	-7.2477276E-005
3	0	5.097501969993755E+002	1.3748748E+000	-7.2477276E-005
3	0	5.102501969867444E+002	1.3742059E+000	-3.4306191E-005
3	0	5.107501969741134E+002	1.3735406E+000	8.0207064E-005
3	0	5.112501969614823E+002	1.3728864E+000	-7.2477276E-005
3	0	5.117501969488512E+002	1.3722010E+000	-1.4881945E-004
3	0	5.122501969362202E+002	1.3714573E+000	-1.6790499E-004
3	0	5.127501969235891E+002	1.3707322E+000	-5.3391734E-005
3	0	5.132501969109580E+002	1.3700773E+000	-3.0150381E-004
3	0	5.137501968983270E+002	1.3694438E+000	-1.2973390E-004
3	0	5.142501968856959E+002	1.3687990E+000	3.8648941E-006
3	0	5.147501968730649E+002	1.3681800E+000	-5.3391734E-005
3	0	5.152501968604338E+002	1.3675557E+000	9.9292607E-005
3	0	5.157501968478027E+002	1.3669008E+000	2.2950437E-005
3	0	5.162501968351717E+002	1.3661830E+000	9.9292607E-005
3	0	5.167501968225406E+002	1.3654696E+000	4.2035979E-005
3	0	5.172501968099095E+002	1.3648294E+000	2.2950437E-005
3	0	5.177501967972785E+002	1.3641955E+000	-7.2477276E-005
3	0	5.182501967846474E+002	1.3635544E+000	-3.4306191E-005
3	0	5.187501967720164E+002	1.3629249E+000	-3.4306191E-005
3	0	5.192501967593853E+002	1.3622773E+000	-1.5220648E-005
3	0	5.197501967467542E+002	1.3615996E+000	-3.4306191E-005
3	0	5.202501967341232E+002	1.3608621E+000	6.1121522E-005
3	0	5.207501967214921E+002	1.3601226E+000	-3.4306191E-005
3	0	5.212501967088610E+002	1.3594439E+000	-1.5220648E-005
3	0	5.217501966962300E+002	1.3587651E+000	3.8648941E-006
3	0	5.222501966835989E+002	1.3580881E+000	2.2950437E-005
3	0	5.227501966709679E+002	1.3574024E+000	-5.3391734E-005
3	0	5.232501966583368E+002	1.3567146E+000	-3.4306191E-005
3	0	5.237501966457057E+002	1.3559855E+000	3.8648941E-006
3	0	5.242501966330747E+002	1.3551940E+000	-1.1064836E-004
3	0	5.247501966204436E+002	1.3543978E+000	-2.0607607E-004
3	0	5.252501966078125E+002	1.3536638E+000	-1.1064836E-004
3	0	5.257501965951815E+002	1.3529407E+000	-7.2477276E-005
3	0	5.257505965951714E+002	1.3525056E+000	-5.3391734E-005