EC-Lab ASCII FILE
Nb header lines : 48                          

Open Circuit Voltage

Run on channel : 1 (SN 81504)
User : 
CE vs. WE compliance from -10 V to 10 V
Electrode connection : standard
Potential control : Ewe
Ewe ctrl range : min = -2.50 V, max = 2.50 V
Safety Limits :
	Do not start on E overload
Acquisition started on : 05/09/2026 23:34:18.990
Loaded Setting File :  C:\PEM-WE_measurements\2026\372_IV_IV IrOx, 5 min Pt, 30 min C, etched cathode\new station\Loopeis new\1,46 V different time gaps closed cell\Loopeis 1,46V_30s_2_PEIS from 65kHz to 10kHz.mps
Saved on :
	File : L_02_Loopeis 1,46V_30s_2_PEIS from 65kHz to 10kHz_20_OCV_C01.mpr
	Directory : C:\PEM-WE_measurements\2026\372_IV_IV IrOx, 5 min Pt, 30 min C, etched cathode\new station\Loopeis new\1,46 V different time gaps closed cell\
	Host : 192.168.0.2
Device : SP-150e (SN .005491)
Address : 192.168.0.91
EC-LAB for windows v11.71 (software)
Internet server v28.00 (firmware)
Command interpretor v14.01 (firmware)
Electrode material : 
Initial state : 
Electrolyte : 
Comments : 
Current amplifier : SP-150eB-20A
Electrode surface area : 0.001 cm²
Characteristic mass : 0.001 g
Equivalent Weight : 0.000 g/eq.
Density : 0.000 g/cm3
Volume (V) : 0.001 cm³
Record Analogic IN 1
Text export
   Mode : Standard
   Time format : Elapsed
Cycle Definition : Charge/Discharge alternance
tR (h:m:s)          0:00:30.0000        
dER/dt (mV/h)       1.0                 
record              <Ewe>               
dER (mV)            10.00               
dtR (s)             0.5000              
E range min (V)     -2.500              
E range max (V)     2.500               

mode	error	time/s	<Ewe/V>	Analog IN 1/V	
3	0	7.254681984073977E+002	1.2194377E+000	6.1121522E-005
3	0	7.259681983947667E+002	1.2466360E+000	-1.5220648E-005
3	0	7.264681983821356E+002	1.2514576E+000	-3.4306191E-005
3	0	7.269681983695045E+002	1.2544264E+000	2.2950437E-005
3	0	7.274681983568735E+002	1.2565079E+000	-1.5220648E-005
3	0	7.279681983442424E+002	1.2580584E+000	3.8648941E-006
3	0	7.284681983316113E+002	1.2593476E+000	-1.1064836E-004
3	0	7.289681983189803E+002	1.2604365E+000	-3.4306191E-005
3	0	7.294681983063492E+002	1.2613429E+000	-3.4306191E-005
3	0	7.299681982937182E+002	1.2621052E+000	-3.4306191E-005
3	0	7.304681982810871E+002	1.2627434E+000	-1.1064836E-004
3	0	7.309681982684560E+002	1.2632823E+000	4.2035979E-005
3	0	7.314681982558250E+002	1.2636851E+000	-7.2477276E-005
3	0	7.319681982431939E+002	1.2639796E+000	2.2950437E-005
3	0	7.324681982305628E+002	1.2642868E+000	-7.2477276E-005
3	0	7.329681982179318E+002	1.2645798E+000	-7.2477276E-005
3	0	7.334681982053007E+002	1.2648177E+000	-7.2477276E-005
3	0	7.339681981926697E+002	1.2650198E+000	-3.4306191E-005
3	0	7.344681981800386E+002	1.2651843E+000	-7.2477276E-005
3	0	7.349681981674075E+002	1.2652968E+000	1.1837815E-004
3	0	7.354681981547765E+002	1.2653176E+000	-3.4306191E-005
3	0	7.359681981421454E+002	1.2652764E+000	-9.1562819E-005
3	0	7.364681981295143E+002	1.2652742E+000	-1.6790499E-004
3	0	7.369681981168833E+002	1.2652861E+000	-7.2477276E-005
3	0	7.374681981042522E+002	1.2652711E+000	4.2035979E-005
3	0	7.379681980916212E+002	1.2652403E+000	-5.3391734E-005
3	0	7.384681980789901E+002	1.2651905E+000	6.1121522E-005
3	0	7.389681980663590E+002	1.2650927E+000	-1.2973390E-004
3	0	7.394681980537280E+002	1.2649171E+000	-5.3391734E-005
3	0	7.399681980410969E+002	1.2646885E+000	-9.1562819E-005
3	0	7.404681980284658E+002	1.2645137E+000	-1.2973390E-004
3	0	7.409681980158348E+002	1.2643651E+000	-5.3391734E-005
3	0	7.414681980032037E+002	1.2641909E+000	-1.5220648E-005
3	0	7.419681979905727E+002	1.2639970E+000	-1.5220648E-005
3	0	7.424681979779416E+002	1.2637876E+000	-1.5220648E-005
3	0	7.429681979653105E+002	1.2635485E+000	-3.4306191E-005
3	0	7.434681979526795E+002	1.2632319E+000	3.8648941E-006
3	0	7.439681979400484E+002	1.2628441E+000	-7.2477276E-005
3	0	7.444681979274174E+002	1.2625211E+000	-1.5220648E-005
3	0	7.449681979147863E+002	1.2622235E+000	-7.2477276E-005
3	0	7.454681979021552E+002	1.2619066E+000	-1.1064836E-004
3	0	7.459681978895242E+002	1.2615840E+000	-1.2973390E-004
3	0	7.464681978768931E+002	1.2612494E+000	-7.2477276E-005
3	0	7.469681978642620E+002	1.2608777E+000	3.8648941E-006
3	0	7.474681978516310E+002	1.2604513E+000	4.2035979E-005
3	0	7.479681978389999E+002	1.2599705E+000	-1.8699054E-004
3	0	7.484681978263689E+002	1.2595501E+000	-9.1562819E-005
3	0	7.489681978137378E+002	1.2591707E+000	-1.5220648E-005
3	0	7.494681978011067E+002	1.2587783E+000	-1.6790499E-004
3	0	7.499681977884757E+002	1.2583743E+000	-9.1562819E-005
3	0	7.504681977758446E+002	1.2579749E+000	4.2035979E-005
3	0	7.509681977632135E+002	1.2575487E+000	-1.5220648E-005
3	0	7.514681977505825E+002	1.2570494E+000	-1.2973390E-004
3	0	7.519681977379514E+002	1.2564969E+000	-3.4306191E-005
3	0	7.524681977253204E+002	1.2560202E+000	-1.1064836E-004
3	0	7.529681977126893E+002	1.2555689E+000	2.2950437E-005
3	0	7.534681977000582E+002	1.2551116E+000	4.2035979E-005
3	0	7.539681976874272E+002	1.2546419E+000	-9.1562819E-005
3	0	7.544681976747961E+002	1.2541784E+000	-9.1562819E-005
3	0	7.549681976621650E+002	1.2536904E+000	2.2950437E-005
3	0	7.550021976613061E+002	1.2533988E+000	-5.3391734E-005