EC-Lab ASCII FILE
Nb header lines : 48                          

Open Circuit Voltage

Run on channel : 1 (SN 81504)
User : 
CE vs. WE compliance from -10 V to 10 V
Electrode connection : standard
Potential control : Ewe
Ewe ctrl range : min = -2.50 V, max = 2.50 V
Safety Limits :
	Do not start on E overload
Acquisition started on : 05/09/2026 23:34:18.990
Loaded Setting File :  C:\PEM-WE_measurements\2026\372_IV_IV IrOx, 5 min Pt, 30 min C, etched cathode\new station\Loopeis new\1,46 V different time gaps closed cell\Loopeis 1,46V_30s_2_PEIS from 65kHz to 10kHz.mps
Saved on :
	File : L_02_Loopeis 1,46V_30s_2_PEIS from 65kHz to 10kHz_10_OCV_C01.mpr
	Directory : C:\PEM-WE_measurements\2026\372_IV_IV IrOx, 5 min Pt, 30 min C, etched cathode\new station\Loopeis new\1,46 V different time gaps closed cell\
	Host : 192.168.0.2
Device : SP-150e (SN .005491)
Address : 192.168.0.91
EC-LAB for windows v11.71 (software)
Internet server v28.00 (firmware)
Command interpretor v14.01 (firmware)
Electrode material : 
Initial state : 
Electrolyte : 
Comments : 
Current amplifier : SP-150eB-20A
Electrode surface area : 0.001 cm²
Characteristic mass : 0.001 g
Equivalent Weight : 0.000 g/eq.
Density : 0.000 g/cm3
Volume (V) : 0.001 cm³
Record Analogic IN 1
Text export
   Mode : Standard
   Time format : Elapsed
Cycle Definition : Charge/Discharge alternance
tR (h:m:s)          0:00:30.0000        
dER/dt (mV/h)       1.0                 
record              <Ewe>               
dER (mV)            10.00               
dtR (s)             0.5000              
E range min (V)     -2.500              
E range max (V)     2.500               

mode	error	time/s	<Ewe/V>	Analog IN 1/V	
3	0	3.468613978847134E+002	1.4216981E+000	-7.2477276E-005
3	0	3.473613978720823E+002	1.4141953E+000	2.2950437E-005
3	0	3.478613978594512E+002	1.4089770E+000	3.8648941E-006
3	0	3.483613978468202E+002	1.4050865E+000	-9.1562819E-005
3	0	3.488613978341891E+002	1.4019308E+000	-5.3391734E-005
3	0	3.493613978215581E+002	1.3993722E+000	-5.3391734E-005
3	0	3.498613978089270E+002	1.3972248E+000	3.8648941E-006
3	0	3.503613977962959E+002	1.3953407E+000	3.8648941E-006
3	0	3.508613977836649E+002	1.3936749E+000	-7.2477276E-005
3	0	3.513613977710338E+002	1.3921729E+000	-7.2477276E-005
3	0	3.518613977584027E+002	1.3907818E+000	-9.1562819E-005
3	0	3.523613977457717E+002	1.3894379E+000	2.2950437E-005
3	0	3.528613977331406E+002	1.3881456E+000	1.1837815E-004
3	0	3.533613977205096E+002	1.3869969E+000	3.8648941E-006
3	0	3.538613977078785E+002	1.3859583E+000	-1.6790499E-004
3	0	3.543613976952474E+002	1.3849770E+000	-5.3391734E-005
3	0	3.548613976826164E+002	1.3840501E+000	-1.2973390E-004
3	0	3.553613976699853E+002	1.3831661E+000	-5.3391734E-005
3	0	3.558613976573542E+002	1.3822958E+000	-7.2477276E-005
3	0	3.563613976447232E+002	1.3813961E+000	8.0207064E-005
3	0	3.568613976320921E+002	1.3804874E+000	-9.1562819E-005
3	0	3.573613976194611E+002	1.3796835E+000	-1.2973390E-004
3	0	3.578613976068300E+002	1.3789269E+000	-5.3391734E-005
3	0	3.583613975941989E+002	1.3781919E+000	-7.2477276E-005
3	0	3.588613975815679E+002	1.3774719E+000	-2.8241824E-004
3	0	3.593613975689368E+002	1.3767742E+000	-1.1064836E-004
3	0	3.598613975563057E+002	1.3760751E+000	-9.1562819E-005
3	0	3.603613975436747E+002	1.3753152E+000	1.3746369E-004
3	0	3.608613975310436E+002	1.3745393E+000	-5.3391734E-005
3	0	3.613613975184126E+002	1.3738312E+000	2.2950437E-005
3	0	3.618613975057815E+002	1.3731681E+000	-3.4306191E-005
3	0	3.623613974931504E+002	1.3724905E+000	4.2035979E-005
3	0	3.628613974805194E+002	1.3718219E+000	6.1121522E-005
3	0	3.633613974678883E+002	1.3711619E+000	-1.5220648E-005
3	0	3.638613974552572E+002	1.3704770E+000	-1.8699054E-004
3	0	3.643613974426262E+002	1.3697474E+000	-1.5220648E-005
3	0	3.648613974299951E+002	1.3689662E+000	-3.4306191E-005
3	0	3.653613974173641E+002	1.3682781E+000	-5.3391734E-005
3	0	3.658613974047330E+002	1.3675961E+000	-7.2477276E-005
3	0	3.663613973921019E+002	1.3669291E+000	-9.1562819E-005
3	0	3.668613973794709E+002	1.3662615E+000	2.2950437E-005
3	0	3.673613973668398E+002	1.3656131E+000	3.8648941E-006
3	0	3.678613973542087E+002	1.3649467E+000	-9.1562819E-005
3	0	3.683613973415777E+002	1.3642089E+000	9.9292607E-005
3	0	3.688613973289466E+002	1.3634466E+000	-9.1562819E-005
3	0	3.693613973163156E+002	1.3627551E+000	-1.5220648E-005
3	0	3.698613973036845E+002	1.3620927E+000	-5.3391734E-005
3	0	3.703613972910534E+002	1.3614167E+000	-3.4306191E-005
3	0	3.708613972784224E+002	1.3607507E+000	-1.2973390E-004
3	0	3.713613972657913E+002	1.3600962E+000	8.0207064E-005
3	0	3.718613972531602E+002	1.3594102E+000	-1.1064836E-004
3	0	3.723613972405292E+002	1.3586550E+000	-1.5220648E-005
3	0	3.728613972278981E+002	1.3578676E+000	4.2035979E-005
3	0	3.733613972152671E+002	1.3571520E+000	-1.4881945E-004
3	0	3.738613972026360E+002	1.3564593E+000	-7.2477276E-005
3	0	3.743613971900049E+002	1.3557602E+000	-7.2477276E-005
3	0	3.748613971773739E+002	1.3550637E+000	-1.5220648E-005
3	0	3.753613971647428E+002	1.3543624E+000	-1.2973390E-004
3	0	3.758613971521117E+002	1.3536366E+000	3.8648941E-006
3	0	3.763613971394807E+002	1.3528422E+000	3.8648941E-006
3	0	3.763617971394706E+002	1.3524005E+000	-7.2477276E-005