EC-Lab ASCII FILE
Nb header lines : 48                          

Open Circuit Voltage

Run on channel : 1 (SN 81504)
User : 
CE vs. WE compliance from -10 V to 10 V
Electrode connection : standard
Potential control : Ewe
Ewe ctrl range : min = -2.50 V, max = 2.50 V
Safety Limits :
	Do not start on E overload
Acquisition started on : 05/09/2026 23:34:18.990
Loaded Setting File :  C:\PEM-WE_measurements\2026\372_IV_IV IrOx, 5 min Pt, 30 min C, etched cathode\new station\Loopeis new\1,46 V different time gaps closed cell\Loopeis 1,46V_30s_2_PEIS from 65kHz to 10kHz.mps
Saved on :
	File : L_02_Loopeis 1,46V_30s_2_PEIS from 65kHz to 10kHz_06_OCV_C01.mpr
	Directory : C:\PEM-WE_measurements\2026\372_IV_IV IrOx, 5 min Pt, 30 min C, etched cathode\new station\Loopeis new\1,46 V different time gaps closed cell\
	Host : 192.168.0.2
Device : SP-150e (SN .005491)
Address : 192.168.0.91
EC-LAB for windows v11.71 (software)
Internet server v28.00 (firmware)
Command interpretor v14.01 (firmware)
Electrode material : 
Initial state : 
Electrolyte : 
Comments : 
Current amplifier : SP-150eB-20A
Electrode surface area : 0.001 cm²
Characteristic mass : 0.001 g
Equivalent Weight : 0.000 g/eq.
Density : 0.000 g/cm3
Volume (V) : 0.001 cm³
Record Analogic IN 1
Text export
   Mode : Standard
   Time format : Elapsed
Cycle Definition : Charge/Discharge alternance
tR (h:m:s)          0:00:30.0000        
dER/dt (mV/h)       1.0                 
record              <Ewe>               
dER (mV)            10.00               
dtR (s)             0.5000              
E range min (V)     -2.500              
E range max (V)     2.500               

mode	error	time/s	<Ewe/V>	Analog IN 1/V	
3	0	1.962675983717781E+002	1.4219857E+000	3.8648941E-006
3	0	1.967675983591471E+002	1.4143777E+000	9.9292607E-005
3	0	1.972675983465160E+002	1.4090244E+000	-1.6790499E-004
3	0	1.977675983338850E+002	1.4051797E+000	-7.2477276E-005
3	0	1.982675983212539E+002	1.4021833E+000	-1.1064836E-004
3	0	1.987675983086228E+002	1.3996990E+000	-5.3391734E-005
3	0	1.992675982959918E+002	1.3975834E+000	3.8648941E-006
3	0	1.997675982833607E+002	1.3957225E+000	-2.2516162E-004
3	0	2.002675982707297E+002	1.3940259E+000	-9.1562819E-005
3	0	2.007675982580986E+002	1.3924030E+000	4.2035979E-005
3	0	2.012675982454675E+002	1.3909191E+000	-7.2477276E-005
3	0	2.017675982328365E+002	1.3896201E+000	-1.5220648E-005
3	0	2.022675982202054E+002	1.3884248E+000	3.8648941E-006
3	0	2.027675982075743E+002	1.3872951E+000	-7.2477276E-005
3	0	2.032675981949433E+002	1.3862329E+000	-1.1064836E-004
3	0	2.037675981823122E+002	1.3852355E+000	-1.2973390E-004
3	0	2.042675981696812E+002	1.3842551E+000	-7.2477276E-005
3	0	2.047675981570501E+002	1.3832346E+000	-1.1064836E-004
3	0	2.052675981444190E+002	1.3822703E+000	-1.5220648E-005
3	0	2.057675981317880E+002	1.3814082E+000	-9.1562819E-005
3	0	2.062675981191569E+002	1.3805944E+000	4.2035979E-005
3	0	2.067675981065258E+002	1.3798022E+000	-7.2477276E-005
3	0	2.072675980938948E+002	1.3790302E+000	2.2950437E-005
3	0	2.077675980812637E+002	1.3782791E+000	4.2035979E-005
3	0	2.082675980686327E+002	1.3775029E+000	-7.2477276E-005
3	0	2.087675980560016E+002	1.3766845E+000	-1.5220648E-005
3	0	2.092675980433705E+002	1.3759007E+000	-5.3391734E-005
3	0	2.097675980307395E+002	1.3751960E+000	-3.4306191E-005
3	0	2.102675980181084E+002	1.3745302E+000	-9.1562819E-005
3	0	2.107675980054773E+002	1.3738562E+000	3.8648941E-006
3	0	2.112675979928463E+002	1.3731943E+000	4.2035979E-005
3	0	2.117675979802152E+002	1.3725365E+000	2.2950437E-005
3	0	2.122675979675842E+002	1.3718369E+000	-7.2477276E-005
3	0	2.127675979549531E+002	1.3710822E+000	-7.2477276E-005
3	0	2.132675979423220E+002	1.3703576E+000	-1.5220648E-005
3	0	2.137675979296910E+002	1.3696998E+000	-9.1562819E-005
3	0	2.142675979170599E+002	1.3690486E+000	-7.2477276E-005
3	0	2.147675979044288E+002	1.3684093E+000	2.2950437E-005
3	0	2.152675978917978E+002	1.3677688E+000	-1.4881945E-004
3	0	2.157675978791667E+002	1.3671181E+000	-1.5220648E-005
3	0	2.162675978665357E+002	1.3664315E+000	-1.1064836E-004
3	0	2.167675978539046E+002	1.3656743E+000	3.8648941E-006
3	0	2.172675978412735E+002	1.3649414E+000	-1.5220648E-005
3	0	2.177675978286425E+002	1.3642725E+000	2.2950437E-005
3	0	2.182675978160114E+002	1.3636078E+000	-1.4881945E-004
3	0	2.187675978033803E+002	1.3629382E+000	9.9292607E-005
3	0	2.192675977907493E+002	1.3622611E+000	-7.2477276E-005
3	0	2.197675977781182E+002	1.3615835E+000	-3.4306191E-005
3	0	2.202675977654872E+002	1.3608614E+000	-1.2973390E-004
3	0	2.207675977528561E+002	1.3600780E+000	-1.5220648E-005
3	0	2.212675977402250E+002	1.3592966E+000	-7.2477276E-005
3	0	2.217675977275940E+002	1.3585773E+000	6.1121522E-005
3	0	2.222675977149629E+002	1.3578606E+000	-1.2973390E-004
3	0	2.227675977023318E+002	1.3571417E+000	1.3746369E-004
3	0	2.232675976897008E+002	1.3564080E+000	8.0207064E-005
3	0	2.237675976770697E+002	1.3556803E+000	-7.2477276E-005
3	0	2.242675976644387E+002	1.3549105E+000	-1.5220648E-005
3	0	2.247675976518076E+002	1.3540674E+000	-1.2973390E-004
3	0	2.252675976391765E+002	1.3532413E+000	6.1121522E-005
3	0	2.257675976265455E+002	1.3524826E+000	6.1121522E-005
3	0	2.257679976265354E+002	1.3520762E+000	-1.1064836E-004