EC-Lab ASCII FILE
Nb header lines : 55                          

Open Circuit Voltage

Run on channel : 1 (SN 81504)
User : 
CE vs. WE compliance from -10 V to 10 V
Electrode connection : standard
Potential control : Ewe
Ewe ctrl range : min = -2.50 V, max = 2.50 V
Safety Limits :
	Do not start on E overload
Acquisition started on : 05/09/2026 23:46:58.612
Loaded Setting File :  C:\PEM-WE_measurements\2026\372_IV_IV IrOx, 5 min Pt, 30 min C, etched cathode\new station\Loopeis new\1,46 V different time gaps closed cell\Loopeis 1,46V_30s_3_PEIS from 6500Hz to 1000Hz.mps
Saved on :
	File : L_03_Loopeis 1,46V_30s_3_PEIS from 6500Hz to 1000Hz_10_OCV_C01.mpr
	Directory : C:\PEM-WE_measurements\2026\372_IV_IV IrOx, 5 min Pt, 30 min C, etched cathode\new station\Loopeis new\1,46 V different time gaps closed cell\
	Host : 192.168.0.2
Device : SP-150e (SN .005491)
Address : 192.168.0.91
EC-LAB for windows v11.71 (software)
Internet server v28.00 (firmware)
Command interpretor v14.01 (firmware)
Electrode material : 
Initial state : 
Electrolyte : 
Comments : 
Current amplifier : SP-150eB-20A
Electrode surface area : 0.001 cm²
Characteristic mass : 0.001 g
Equivalent Weight : 0.000 g/eq.
Density : 0.000 g/cm3
Volume (V) : 0.001 cm³
Record Analogic IN 1
Text export
   Mode : Standard
   Time format : Elapsed
Cycle Definition : Charge/Discharge alternance
External device configuration :
   device type : Temperature Probe
   device name : Other
   Analog IN 1 : 
      unit : T/Â°C
      max : 100.000 at 2.000 V
      min : 0.000 at 1.460 V
tR (h:m:s)          0:00:30.0000        
dER/dt (mV/h)       1.0                 
record              <Ewe>               
dER (mV)            10.00               
dtR (s)             0.5000              
E range min (V)     -2.500              
E range max (V)     2.500               

mode	error	time/s	<Ewe/V>	Analog IN 1/V	
3	0	3.462303978547425E+002	1.4212461E+000	-2.7040860E+002
3	0	3.467303978421114E+002	1.4136815E+000	-2.7038742E+002
3	0	3.472303978294804E+002	1.4084617E+000	-2.7038031E+002
3	0	3.477303978168493E+002	1.4046469E+000	-2.7038742E+002
3	0	3.482303978042182E+002	1.4015611E+000	-2.7039447E+002
3	0	3.487303977915872E+002	1.3989218E+000	-2.7036972E+002
3	0	3.492303977789561E+002	1.3966449E+000	-2.7036972E+002
3	0	3.497303977663250E+002	1.3947128E+000	-2.7036618E+002
3	0	3.502303977536940E+002	1.3929894E+000	-2.7036972E+002
3	0	3.507303977410629E+002	1.3914435E+000	-2.7036972E+002
3	0	3.512303977284319E+002	1.3900391E+000	-2.7040860E+002
3	0	3.517303977158008E+002	1.3887575E+000	-2.7038742E+002
3	0	3.522303977031697E+002	1.3875157E+000	-2.7040155E+002
3	0	3.527303976905387E+002	1.3862818E+000	-2.7036972E+002
3	0	3.532303976779076E+002	1.3851413E+000	-2.7038385E+002
3	0	3.537303976652765E+002	1.3841273E+000	-2.7039447E+002
3	0	3.542303976526455E+002	1.3831549E+000	-2.7039801E+002
3	0	3.547303976400144E+002	1.3822343E+000	-2.7039447E+002
3	0	3.552303976273834E+002	1.3813610E+000	-2.7038031E+002
3	0	3.557303976147523E+002	1.3805282E+000	-2.7040506E+002
3	0	3.562303976021212E+002	1.3796918E+000	-2.7038385E+002
3	0	3.567303975894902E+002	1.3788081E+000	-2.7039447E+002
3	0	3.572303975768591E+002	1.3779794E+000	-2.7037677E+002
3	0	3.577303975642280E+002	1.3772310E+000	-2.7038742E+002
3	0	3.582303975515970E+002	1.3764949E+000	-2.7037326E+002
3	0	3.587303975389659E+002	1.3757999E+000	-2.7038742E+002
3	0	3.592303975263349E+002	1.3751134E+000	-2.7035913E+002
3	0	3.597303975137038E+002	1.3744581E+000	-2.7040155E+002
3	0	3.602303975010727E+002	1.3737634E+000	-2.7038742E+002
3	0	3.607303974884417E+002	1.3730137E+000	-2.7036972E+002
3	0	3.612303974758106E+002	1.3722974E+000	-2.7039801E+002
3	0	3.617303974631795E+002	1.3716542E+000	-2.7041214E+002
3	0	3.622303974505485E+002	1.3710155E+000	-2.7039447E+002
3	0	3.627303974379174E+002	1.3703989E+000	-2.7040506E+002
3	0	3.632303974252864E+002	1.3697934E+000	-2.7037326E+002
3	0	3.637303974126553E+002	1.3691844E+000	-2.7038742E+002
3	0	3.642303974000242E+002	1.3685331E+000	-2.7040155E+002
3	0	3.647303973873932E+002	1.3678331E+000	-2.7035913E+002
3	0	3.652303973747621E+002	1.3671505E+000	-2.7037326E+002
3	0	3.657303973621310E+002	1.3665309E+000	-2.7037326E+002
3	0	3.662303973495000E+002	1.3658974E+000	-2.7036972E+002
3	0	3.667303973368689E+002	1.3652796E+000	-2.7037326E+002
3	0	3.672303973242379E+002	1.3646622E+000	-2.7039801E+002
3	0	3.677303973116068E+002	1.3640374E+000	-2.7037326E+002
3	0	3.682303972989757E+002	1.3633744E+000	-2.7036972E+002
3	0	3.687303972863447E+002	1.3626465E+000	-2.7039801E+002
3	0	3.692303972737136E+002	1.3619395E+000	-2.7037326E+002
3	0	3.697303972610825E+002	1.3612919E+000	-2.7038031E+002
3	0	3.702303972484515E+002	1.3606542E+000	-2.7037677E+002
3	0	3.707303972358204E+002	1.3600209E+000	-2.7036972E+002
3	0	3.712303972231894E+002	1.3593901E+000	-2.7037677E+002
3	0	3.717303972105583E+002	1.3587519E+000	-2.7039093E+002
3	0	3.722303971979272E+002	1.3580835E+000	-2.7039447E+002
3	0	3.727303971852962E+002	1.3573520E+000	-2.7039093E+002
3	0	3.732303971726651E+002	1.3566370E+000	-2.7037326E+002
3	0	3.737303971600340E+002	1.3559905E+000	-2.7036972E+002
3	0	3.742303971474030E+002	1.3553377E+000	-2.7035913E+002
3	0	3.747303971347719E+002	1.3547014E+000	-2.7038742E+002
3	0	3.752303971221409E+002	1.3540591E+000	-2.7039093E+002
3	0	3.757303971095098E+002	1.3534236E+000	-2.7035559E+002
3	0	3.757307971094997E+002	1.3531353E+000	-2.7035913E+002