EC-Lab ASCII FILE
Nb header lines : 55                          

Open Circuit Voltage

Run on channel : 1 (SN 81504)
User : 
CE vs. WE compliance from -10 V to 10 V
Electrode connection : standard
Potential control : Ewe
Ewe ctrl range : min = -2.50 V, max = 2.50 V
Safety Limits :
	Do not start on E overload
Acquisition started on : 05/09/2026 23:46:58.612
Loaded Setting File :  C:\PEM-WE_measurements\2026\372_IV_IV IrOx, 5 min Pt, 30 min C, etched cathode\new station\Loopeis new\1,46 V different time gaps closed cell\Loopeis 1,46V_30s_3_PEIS from 6500Hz to 1000Hz.mps
Saved on :
	File : L_03_Loopeis 1,46V_30s_3_PEIS from 6500Hz to 1000Hz_06_OCV_C01.mpr
	Directory : C:\PEM-WE_measurements\2026\372_IV_IV IrOx, 5 min Pt, 30 min C, etched cathode\new station\Loopeis new\1,46 V different time gaps closed cell\
	Host : 192.168.0.2
Device : SP-150e (SN .005491)
Address : 192.168.0.91
EC-LAB for windows v11.71 (software)
Internet server v28.00 (firmware)
Command interpretor v14.01 (firmware)
Electrode material : 
Initial state : 
Electrolyte : 
Comments : 
Current amplifier : SP-150eB-20A
Electrode surface area : 0.001 cm²
Characteristic mass : 0.001 g
Equivalent Weight : 0.000 g/eq.
Density : 0.000 g/cm3
Volume (V) : 0.001 cm³
Record Analogic IN 1
Text export
   Mode : Standard
   Time format : Elapsed
Cycle Definition : Charge/Discharge alternance
External device configuration :
   device type : Temperature Probe
   device name : Other
   Analog IN 1 : 
      unit : T/Â°C
      max : 100.000 at 2.000 V
      min : 0.000 at 1.460 V
tR (h:m:s)          0:00:30.0000        
dER/dt (mV/h)       1.0                 
record              <Ewe>               
dER (mV)            10.00               
dtR (s)             0.5000              
E range min (V)     -2.500              
E range max (V)     2.500               

mode	error	time/s	<Ewe/V>	Analog IN 1/V	
3	0	1.957215983458445E+002	1.4212511E+000	-2.7036618E+002
3	0	1.962215983332135E+002	1.4136617E+000	-2.7039093E+002
3	0	1.967215983205824E+002	1.4083672E+000	-2.7037677E+002
3	0	1.972215983079514E+002	1.4043874E+000	-2.7037677E+002
3	0	1.977215982953203E+002	1.4012618E+000	-2.7038031E+002
3	0	1.982215982826892E+002	1.3987213E+000	-2.7039447E+002
3	0	1.987215982700582E+002	1.3965602E+000	-2.7037677E+002
3	0	1.992215982574271E+002	1.3946711E+000	-2.7033789E+002
3	0	1.997215982447960E+002	1.3929960E+000	-2.7036267E+002
3	0	2.002215982321650E+002	1.3914893E+000	-2.7036267E+002
3	0	2.007215982195339E+002	1.3900471E+000	-2.7036972E+002
3	0	2.012215982069029E+002	1.3886597E+000	-2.7038385E+002
3	0	2.017215981942718E+002	1.3874097E+000	-2.7038031E+002
3	0	2.022215981816407E+002	1.3862894E+000	-2.7036618E+002
3	0	2.027215981690097E+002	1.3852384E+000	-2.7039093E+002
3	0	2.032215981563786E+002	1.3842522E+000	-2.7039093E+002
3	0	2.037215981437475E+002	1.3833207E+000	-2.7038385E+002
3	0	2.042215981311165E+002	1.3824183E+000	-2.7038031E+002
3	0	2.047215981184854E+002	1.3815035E+000	-2.7040155E+002
3	0	2.052215981058544E+002	1.3805610E+000	-2.7036972E+002
3	0	2.057215980932233E+002	1.3796908E+000	-2.7041568E+002
3	0	2.062215980805922E+002	1.3788961E+000	-2.7033789E+002
3	0	2.067215980679612E+002	1.3781308E+000	-2.7036618E+002
3	0	2.072215980553301E+002	1.3773779E+000	-2.7039093E+002
3	0	2.077215980426990E+002	1.3766428E+000	-2.7037677E+002
3	0	2.082215980300680E+002	1.3759216E+000	-2.7040860E+002
3	0	2.087215980174369E+002	1.3751562E+000	-2.7036618E+002
3	0	2.092215980048059E+002	1.3743634E+000	-2.7038385E+002
3	0	2.097215979921748E+002	1.3736229E+000	-2.7037326E+002
3	0	2.102215979795437E+002	1.3729469E+000	-2.7038031E+002
3	0	2.107215979669127E+002	1.3722832E+000	-2.7038742E+002
3	0	2.112215979542816E+002	1.3716238E+000	-2.7037677E+002
3	0	2.117215979416505E+002	1.3709892E+000	-2.7040860E+002
3	0	2.122215979290195E+002	1.3703487E+000	-2.7036972E+002
3	0	2.127215979163884E+002	1.3696775E+000	-2.7038742E+002
3	0	2.132215979037574E+002	1.3689368E+000	-2.7039447E+002
3	0	2.137215978911263E+002	1.3682693E+000	-2.7038742E+002
3	0	2.142215978784952E+002	1.3676414E+000	-2.7036972E+002
3	0	2.147215978658642E+002	1.3669978E+000	-2.7037326E+002
3	0	2.152215978532331E+002	1.3663669E+000	-2.7037677E+002
3	0	2.157215978406020E+002	1.3657554E+000	-2.7037326E+002
3	0	2.162215978279710E+002	1.3651450E+000	-2.7038031E+002
3	0	2.167215978153399E+002	1.3644779E+000	-2.7038742E+002
3	0	2.172215978027089E+002	1.3637645E+000	-2.7036267E+002
3	0	2.177215977900778E+002	1.3631079E+000	-2.7036618E+002
3	0	2.182215977774467E+002	1.3624913E+000	-2.7035205E+002
3	0	2.187215977648157E+002	1.3618778E+000	-2.7034851E+002
3	0	2.192215977521846E+002	1.3612603E+000	-2.7039447E+002
3	0	2.197215977395535E+002	1.3606565E+000	-2.7038385E+002
3	0	2.202215977269225E+002	1.3600396E+000	-2.7038031E+002
3	0	2.207215977142914E+002	1.3593692E+000	-2.7038385E+002
3	0	2.212215977016604E+002	1.3586382E+000	-2.7038742E+002
3	0	2.217215976890293E+002	1.3579631E+000	-2.7038031E+002
3	0	2.222215976763982E+002	1.3573334E+000	-2.7035913E+002
3	0	2.227215976637672E+002	1.3567038E+000	-2.7035913E+002
3	0	2.232215976511361E+002	1.3560686E+000	-2.7039447E+002
3	0	2.237215976385050E+002	1.3554357E+000	-2.7039093E+002
3	0	2.242215976258740E+002	1.3548063E+000	-2.7037677E+002
3	0	2.247215976132429E+002	1.3541036E+000	-2.7037677E+002
3	0	2.252215976006119E+002	1.3533406E+000	-2.7038385E+002
3	0	2.252219976006018E+002	1.3529445E+000	-2.7039093E+002