EC-Lab ASCII FILE
Nb header lines : 55                          

Open Circuit Voltage

Run on channel : 1 (SN 81504)
User : 
CE vs. WE compliance from -10 V to 10 V
Electrode connection : standard
Potential control : Ewe
Ewe ctrl range : min = -2.50 V, max = 2.50 V
Safety Limits :
	Do not start on E overload
Acquisition started on : 05/09/2026 23:59:42.806
Loaded Setting File :  C:\PEM-WE_measurements\2026\372_IV_IV IrOx, 5 min Pt, 30 min C, etched cathode\new station\Loopeis new\1,46 V different time gaps closed cell\Loopeis 1,46V_30s_4_PEIS from 650Hz to 100Hz.mps
Saved on :
	File : L_04_Loopeis 1,46V_30s_4_PEIS from 650Hz to 100Hz_04_OCV_C01.mpr
	Directory : C:\PEM-WE_measurements\2026\372_IV_IV IrOx, 5 min Pt, 30 min C, etched cathode\new station\Loopeis new\1,46 V different time gaps closed cell\
	Host : 192.168.0.2
Device : SP-150e (SN .005491)
Address : 192.168.0.91
EC-LAB for windows v11.71 (software)
Internet server v28.00 (firmware)
Command interpretor v14.01 (firmware)
Electrode material : 
Initial state : 
Electrolyte : 
Comments : 
Current amplifier : SP-150eB-20A
Electrode surface area : 0.001 cm²
Characteristic mass : 0.001 g
Equivalent Weight : 0.000 g/eq.
Density : 0.000 g/cm3
Volume (V) : 0.001 cm³
Record Analogic IN 1
Text export
   Mode : Standard
   Time format : Elapsed
Cycle Definition : Charge/Discharge alternance
External device configuration :
   device type : Temperature Probe
   device name : Other
   Analog IN 1 : 
      unit : T/Â°C
      max : 100.000 at 2.000 V
      min : 0.000 at 1.460 V
tR (h:m:s)          0:00:30.0000        
dER/dt (mV/h)       1.0                 
record              <Ewe>               
dER (mV)            10.00               
dtR (s)             0.5000              
E range min (V)     -2.500              
E range max (V)     2.500               

mode	error	time/s	<Ewe/V>	Analog IN 1/V	
3	0	1.209806002545520E+002	1.2156742E+000	-2.7038385E+002
3	0	1.214806002419209E+002	1.2507997E+000	-2.7039093E+002
3	0	1.219806002292898E+002	1.2553724E+000	-2.7038031E+002
3	0	1.224806002166588E+002	1.2582257E+000	-2.7038385E+002
3	0	1.229806002040277E+002	1.2602631E+000	-2.7039093E+002
3	0	1.234806001913967E+002	1.2618403E+000	-2.7038742E+002
3	0	1.239806001787656E+002	1.2630687E+000	-2.7039093E+002
3	0	1.244806001661345E+002	1.2640233E+000	-2.7038742E+002
3	0	1.249806001535035E+002	1.2647892E+000	-2.7036972E+002
3	0	1.254806001408724E+002	1.2654794E+000	-2.7035559E+002
3	0	1.259806001282413E+002	1.2660733E+000	-2.7038385E+002
3	0	1.264806001156103E+002	1.2665855E+000	-2.7039801E+002
3	0	1.269806001029792E+002	1.2670203E+000	-2.7036267E+002
3	0	1.274806000903482E+002	1.2673893E+000	-2.7038031E+002
3	0	1.279806000777171E+002	1.2676746E+000	-2.7037677E+002
3	0	1.284806000650860E+002	1.2678540E+000	-2.7038742E+002
3	0	1.289806000524550E+002	1.2679782E+000	-2.7038031E+002
3	0	1.294806000398239E+002	1.2681336E+000	-2.7039447E+002
3	0	1.299806000271929E+002	1.2682765E+000	-2.7037677E+002
3	0	1.304806000145618E+002	1.2683880E+000	-2.7035205E+002
3	0	1.309806000019307E+002	1.2684845E+000	-2.7037677E+002
3	0	1.314805999892997E+002	1.2685609E+000	-2.7036972E+002
3	0	1.319805999766686E+002	1.2685899E+000	-2.7037677E+002
3	0	1.324805999640375E+002	1.2685354E+000	-2.7036972E+002
3	0	1.329805999514065E+002	1.2684399E+000	-2.7040155E+002
3	0	1.334805999387754E+002	1.2683938E+000	-2.7037326E+002
3	0	1.339805999261444E+002	1.2683566E+000	-2.7036972E+002
3	0	1.344805999135133E+002	1.2683004E+000	-2.7035913E+002
3	0	1.349805999008822E+002	1.2682371E+000	-2.7038385E+002
3	0	1.354805998882512E+002	1.2681630E+000	-2.7039093E+002
3	0	1.359805998756201E+002	1.2680441E+000	-2.7038742E+002
3	0	1.364805998629890E+002	1.2678541E+000	-2.7037326E+002
3	0	1.369805998503580E+002	1.2676334E+000	-2.7038385E+002
3	0	1.374805998377269E+002	1.2674682E+000	-2.7038031E+002
3	0	1.379805998250959E+002	1.2673186E+000	-2.7039093E+002
3	0	1.384805998124648E+002	1.2671605E+000	-2.7037677E+002
3	0	1.389805997998337E+002	1.2669971E+000	-2.7039447E+002
3	0	1.394805997872027E+002	1.2668245E+000	-2.7039447E+002
3	0	1.399805997745716E+002	1.2666075E+000	-2.7038031E+002
3	0	1.404805997619405E+002	1.2663218E+000	-2.7037326E+002
3	0	1.409805997493095E+002	1.2660102E+000	-2.7039447E+002
3	0	1.414805997366784E+002	1.2657580E+000	-2.7036972E+002
3	0	1.419805997240474E+002	1.2655149E+000	-2.7038385E+002
3	0	1.424805997114163E+002	1.2652693E+000	-2.7039093E+002
3	0	1.429805996987852E+002	1.2650130E+000	-2.7038031E+002
3	0	1.434805996861542E+002	1.2647541E+000	-2.7039447E+002
3	0	1.439805996735231E+002	1.2644712E+000	-2.7037677E+002
3	0	1.444805996608920E+002	1.2641081E+000	-2.7037326E+002
3	0	1.449805996482610E+002	1.2637087E+000	-2.7036267E+002
3	0	1.454805996356299E+002	1.2633705E+000	-2.7034497E+002
3	0	1.459805996229989E+002	1.2630373E+000	-2.7039447E+002
3	0	1.464805996103678E+002	1.2627014E+000	-2.7038742E+002
3	0	1.469805995977367E+002	1.2623705E+000	-2.7040155E+002
3	0	1.474805995851057E+002	1.2620198E+000	-2.7038031E+002
3	0	1.479805995724746E+002	1.2616359E+000	-2.7036267E+002
3	0	1.484805995598435E+002	1.2611897E+000	-2.7036267E+002
3	0	1.489805995472125E+002	1.2607088E+000	-2.7037677E+002
3	0	1.494805995345814E+002	1.2602990E+000	-2.7040155E+002
3	0	1.499805995219504E+002	1.2599080E+000	-2.7037677E+002
3	0	1.504805995093193E+002	1.2595214E+000	-2.7037677E+002
3	0	1.505039995087282E+002	1.2593240E+000	-2.7040506E+002