EC-Lab ASCII FILE
Nb header lines : 55                          

Open Circuit Voltage

Run on channel : 1 (SN 81504)
User : 
CE vs. WE compliance from -10 V to 10 V
Electrode connection : standard
Potential control : Ewe
Ewe ctrl range : min = -2.50 V, max = 2.50 V
Safety Limits :
	Do not start on E overload
Acquisition started on : 05/09/2026 23:59:42.806
Loaded Setting File :  C:\PEM-WE_measurements\2026\372_IV_IV IrOx, 5 min Pt, 30 min C, etched cathode\new station\Loopeis new\1,46 V different time gaps closed cell\Loopeis 1,46V_30s_4_PEIS from 650Hz to 100Hz.mps
Saved on :
	File : L_04_Loopeis 1,46V_30s_4_PEIS from 650Hz to 100Hz_02_OCV_C01.mpr
	Directory : C:\PEM-WE_measurements\2026\372_IV_IV IrOx, 5 min Pt, 30 min C, etched cathode\new station\Loopeis new\1,46 V different time gaps closed cell\
	Host : 192.168.0.2
Device : SP-150e (SN .005491)
Address : 192.168.0.91
EC-LAB for windows v11.71 (software)
Internet server v28.00 (firmware)
Command interpretor v14.01 (firmware)
Electrode material : 
Initial state : 
Electrolyte : 
Comments : 
Current amplifier : SP-150eB-20A
Electrode surface area : 0.001 cm²
Characteristic mass : 0.001 g
Equivalent Weight : 0.000 g/eq.
Density : 0.000 g/cm3
Volume (V) : 0.001 cm³
Record Analogic IN 1
Text export
   Mode : Standard
   Time format : Elapsed
Cycle Definition : Charge/Discharge alternance
External device configuration :
   device type : Temperature Probe
   device name : Other
   Analog IN 1 : 
      unit : T/Â°C
      max : 100.000 at 2.000 V
      min : 0.000 at 1.460 V
tR (h:m:s)          0:00:30.0000        
dER/dt (mV/h)       1.0                 
record              <Ewe>               
dER (mV)            10.00               
dtR (s)             0.5000              
E range min (V)     -2.500              
E range max (V)     2.500               

mode	error	time/s	<Ewe/V>	Analog IN 1/V	
3	0	4.549979885057837E+001	1.4204268E+000	-2.7038385E+002
3	0	4.599979883794731E+001	1.4126250E+000	-2.7039447E+002
3	0	4.649979882531625E+001	1.4073037E+000	-2.7036618E+002
3	0	4.699979881268519E+001	1.4034076E+000	-2.7036267E+002
3	0	4.749979880005412E+001	1.4003319E+000	-2.7038742E+002
3	0	4.799979878742306E+001	1.3977902E+000	-2.7039447E+002
3	0	4.849979877479200E+001	1.3955597E+000	-2.7036618E+002
3	0	4.899979876216094E+001	1.3935302E+000	-2.7038385E+002
3	0	4.949979874952987E+001	1.3916985E+000	-2.7036618E+002
3	0	4.999979873689881E+001	1.3901206E+000	-2.7039801E+002
3	0	5.049979872426775E+001	1.3886975E+000	-2.7036618E+002
3	0	5.099979871163669E+001	1.3873769E+000	-2.7038742E+002
3	0	5.149979869900562E+001	1.3861613E+000	-2.7036972E+002
3	0	5.199979868637456E+001	1.3850311E+000	-2.7037677E+002
3	0	5.249979867374350E+001	1.3839295E+000	-2.7039801E+002
3	0	5.299979866111244E+001	1.3828228E+000	-2.7037677E+002
3	0	5.349979864848137E+001	1.3817731E+000	-2.7036267E+002
3	0	5.399979863585031E+001	1.3808515E+000	-2.7038742E+002
3	0	5.449979862321925E+001	1.3799868E+000	-2.7037677E+002
3	0	5.499979861058819E+001	1.3791552E+000	-2.7038742E+002
3	0	5.549979859795712E+001	1.3783667E+000	-2.7038385E+002
3	0	5.599979858532606E+001	1.3776075E+000	-2.7037326E+002
3	0	5.649979857269500E+001	1.3768336E+000	-2.7039447E+002
3	0	5.699979856006394E+001	1.3760147E+000	-2.7038385E+002
3	0	5.749979854743287E+001	1.3752331E+000	-2.7035913E+002
3	0	5.799979853480181E+001	1.3745476E+000	-2.7035913E+002
3	0	5.849979852217075E+001	1.3738817E+000	-2.7035913E+002
3	0	5.899979850953969E+001	1.3732336E+000	-2.7039801E+002
3	0	5.949979849690862E+001	1.3726097E+000	-2.7037677E+002
3	0	5.999979848427756E+001	1.3719940E+000	-2.7040155E+002
3	0	6.049979847164650E+001	1.3713480E+000	-2.7039093E+002
3	0	6.099979845901544E+001	1.3706580E+000	-2.7039801E+002
3	0	6.149979844638438E+001	1.3699887E+000	-2.7039801E+002
3	0	6.199979843375331E+001	1.3693961E+000	-2.7036618E+002
3	0	6.249979842112225E+001	1.3688115E+000	-2.7038031E+002
3	0	6.299979840849119E+001	1.3682514E+000	-2.7036972E+002
3	0	6.349979839586013E+001	1.3676922E+000	-2.7035205E+002
3	0	6.399979838322906E+001	1.3671300E+000	-2.7037677E+002
3	0	6.449979837059800E+001	1.3665315E+000	-2.7036972E+002
3	0	6.499979835796694E+001	1.3658693E+000	-2.7036618E+002
3	0	6.549979834533588E+001	1.3652256E+000	-2.7036618E+002
3	0	6.599979833270481E+001	1.3646494E+000	-2.7036618E+002
3	0	6.649979832007375E+001	1.3640783E+000	-2.7035559E+002
3	0	6.699979830744269E+001	1.3635051E+000	-2.7039093E+002
3	0	6.749979829481163E+001	1.3629509E+000	-2.7039801E+002
3	0	6.799979828218056E+001	1.3623828E+000	-2.7036618E+002
3	0	6.849979826954950E+001	1.3617721E+000	-2.7038742E+002
3	0	6.899979825691844E+001	1.3611026E+000	-2.7037326E+002
3	0	6.949979824428738E+001	1.3604544E+000	-2.7037326E+002
3	0	6.999979823165631E+001	1.3598734E+000	-2.7036267E+002
3	0	7.049979821902525E+001	1.3593030E+000	-2.7039801E+002
3	0	7.099979820639419E+001	1.3587227E+000	-2.7038031E+002
3	0	7.149979819376313E+001	1.3581696E+000	-2.7036267E+002
3	0	7.199979818113206E+001	1.3576043E+000	-2.7036618E+002
3	0	7.249979816850100E+001	1.3570100E+000	-2.7037326E+002
3	0	7.299979815586994E+001	1.3563423E+000	-2.7039447E+002
3	0	7.349979814323888E+001	1.3557006E+000	-2.7035913E+002
3	0	7.399979813060781E+001	1.3551285E+000	-2.7038742E+002
3	0	7.449979811797675E+001	1.3545555E+000	-2.7038742E+002
3	0	7.499979810534569E+001	1.3539900E+000	-2.7040155E+002
3	0	7.500019810533558E+001	1.3536887E+000	-2.7039801E+002