EC-Lab ASCII FILE
Nb header lines : 55                          

Open Circuit Voltage

Run on channel : 1 (SN 81504)
User : 
CE vs. WE compliance from -10 V to 10 V
Electrode connection : standard
Potential control : Ewe
Ewe ctrl range : min = -2.50 V, max = 2.50 V
Safety Limits :
	Do not start on E overload
Acquisition started on : 05/09/2026 23:59:42.806
Loaded Setting File :  C:\PEM-WE_measurements\2026\372_IV_IV IrOx, 5 min Pt, 30 min C, etched cathode\new station\Loopeis new\1,46 V different time gaps closed cell\Loopeis 1,46V_30s_4_PEIS from 650Hz to 100Hz.mps
Saved on :
	File : L_04_Loopeis 1,46V_30s_4_PEIS from 650Hz to 100Hz_10_OCV_C01.mpr
	Directory : C:\PEM-WE_measurements\2026\372_IV_IV IrOx, 5 min Pt, 30 min C, etched cathode\new station\Loopeis new\1,46 V different time gaps closed cell\
	Host : 192.168.0.2
Device : SP-150e (SN .005491)
Address : 192.168.0.91
EC-LAB for windows v11.71 (software)
Internet server v28.00 (firmware)
Command interpretor v14.01 (firmware)
Electrode material : 
Initial state : 
Electrolyte : 
Comments : 
Current amplifier : SP-150eB-20A
Electrode surface area : 0.001 cm²
Characteristic mass : 0.001 g
Equivalent Weight : 0.000 g/eq.
Density : 0.000 g/cm3
Volume (V) : 0.001 cm³
Record Analogic IN 1
Text export
   Mode : Standard
   Time format : Elapsed
Cycle Definition : Charge/Discharge alternance
External device configuration :
   device type : Temperature Probe
   device name : Other
   Analog IN 1 : 
      unit : T/Â°C
      max : 100.000 at 2.000 V
      min : 0.000 at 1.460 V
tR (h:m:s)          0:00:30.0000        
dER/dt (mV/h)       1.0                 
record              <Ewe>               
dER (mV)            10.00               
dtR (s)             0.5000              
E range min (V)     -2.500              
E range max (V)     2.500               

mode	error	time/s	<Ewe/V>	Analog IN 1/V	
3	0	3.462603978561674E+002	1.4204801E+000	-2.7038031E+002
3	0	3.467603978435363E+002	1.4126930E+000	-2.7035559E+002
3	0	3.472603978309053E+002	1.4073770E+000	-2.7035913E+002
3	0	3.477603978182742E+002	1.4034402E+000	-2.7040155E+002
3	0	3.482603978056432E+002	1.4002177E+000	-2.7038742E+002
3	0	3.487603977930121E+002	1.3974899E+000	-2.7038385E+002
3	0	3.492603977803810E+002	1.3952298E+000	-2.7037326E+002
3	0	3.497603977677500E+002	1.3932815E+000	-2.7039447E+002
3	0	3.502603977551189E+002	1.3915328E+000	-2.7039093E+002
3	0	3.507603977424878E+002	1.3899683E+000	-2.7038742E+002
3	0	3.512603977298568E+002	1.3885550E+000	-2.7038742E+002
3	0	3.517603977172257E+002	1.3872027E+000	-2.7038385E+002
3	0	3.522603977045947E+002	1.3858764E+000	-2.7038742E+002
3	0	3.527603976919636E+002	1.3846204E+000	-2.7039447E+002
3	0	3.532603976793325E+002	1.3835182E+000	-2.7038742E+002
3	0	3.537603976667015E+002	1.3825049E+000	-2.7039447E+002
3	0	3.542603976540704E+002	1.3815424E+000	-2.7035913E+002
3	0	3.547603976414393E+002	1.3806417E+000	-2.7038742E+002
3	0	3.552603976288083E+002	1.3797876E+000	-2.7036618E+002
3	0	3.557603976161772E+002	1.3789221E+000	-2.7037326E+002
3	0	3.562603976035462E+002	1.3780198E+000	-2.7038031E+002
3	0	3.567603975909151E+002	1.3771505E+000	-2.7037326E+002
3	0	3.572603975782840E+002	1.3763852E+000	-2.7038385E+002
3	0	3.577603975656530E+002	1.3756634E+000	-2.7033789E+002
3	0	3.582603975530219E+002	1.3749669E+000	-2.7036267E+002
3	0	3.587603975403908E+002	1.3743016E+000	-2.7035913E+002
3	0	3.592603975277598E+002	1.3736533E+000	-2.7037677E+002
3	0	3.597603975151287E+002	1.3729835E+000	-2.7035913E+002
3	0	3.602603975024977E+002	1.3722535E+000	-2.7039801E+002
3	0	3.607603974898666E+002	1.3715348E+000	-2.7038742E+002
3	0	3.612603974772355E+002	1.3709121E+000	-2.7036267E+002
3	0	3.617603974646045E+002	1.3703244E+000	-2.7038385E+002
3	0	3.622603974519734E+002	1.3697394E+000	-2.7036972E+002
3	0	3.627603974393423E+002	1.3691566E+000	-2.7037326E+002
3	0	3.632603974267113E+002	1.3685868E+000	-2.7038385E+002
3	0	3.637603974140802E+002	1.3679944E+000	-2.7036972E+002
3	0	3.642603974014492E+002	1.3673291E+000	-2.7038742E+002
3	0	3.647603973888181E+002	1.3666699E+000	-2.7036267E+002
3	0	3.652603973761870E+002	1.3660957E+000	-2.7037677E+002
3	0	3.657603973635560E+002	1.3655468E+000	-2.7039801E+002
3	0	3.662603973509249E+002	1.3650007E+000	-2.7036618E+002
3	0	3.667603973382938E+002	1.3644522E+000	-2.7037326E+002
3	0	3.672603973256628E+002	1.3638982E+000	-2.7038742E+002
3	0	3.677603973130317E+002	1.3633100E+000	-2.7037677E+002
3	0	3.682603973004007E+002	1.3626382E+000	-2.7039447E+002
3	0	3.687603972877696E+002	1.3619771E+000	-2.7034497E+002
3	0	3.692603972751385E+002	1.3613906E+000	-2.7035205E+002
3	0	3.697603972625075E+002	1.3608272E+000	-2.7039447E+002
3	0	3.702603972498764E+002	1.3602626E+000	-2.7039801E+002
3	0	3.707603972372453E+002	1.3597060E+000	-2.7035559E+002
3	0	3.712603972246143E+002	1.3591492E+000	-2.7038031E+002
3	0	3.717603972119832E+002	1.3585548E+000	-2.7039093E+002
3	0	3.722603971993522E+002	1.3579001E+000	-2.7038385E+002
3	0	3.727603971867211E+002	1.3572454E+000	-2.7038385E+002
3	0	3.732603971740900E+002	1.3566742E+000	-2.7038742E+002
3	0	3.737603971614590E+002	1.3561209E+000	-2.7037326E+002
3	0	3.742603971488279E+002	1.3555681E+000	-2.7038742E+002
3	0	3.747603971361968E+002	1.3550153E+000	-2.7038742E+002
3	0	3.752603971235658E+002	1.3544612E+000	-2.7040860E+002
3	0	3.757603971109347E+002	1.3538718E+000	-2.7037326E+002
3	0	3.757607971109246E+002	1.3536029E+000	-2.7039447E+002