EC-Lab ASCII FILE
Nb header lines : 55                          

Open Circuit Voltage

Run on channel : 1 (SN 81504)
User : 
CE vs. WE compliance from -10 V to 10 V
Electrode connection : standard
Potential control : Ewe
Ewe ctrl range : min = -2.50 V, max = 2.50 V
Safety Limits :
	Do not start on E overload
Acquisition started on : 05/09/2026 23:59:42.806
Loaded Setting File :  C:\PEM-WE_measurements\2026\372_IV_IV IrOx, 5 min Pt, 30 min C, etched cathode\new station\Loopeis new\1,46 V different time gaps closed cell\Loopeis 1,46V_30s_4_PEIS from 650Hz to 100Hz.mps
Saved on :
	File : L_04_Loopeis 1,46V_30s_4_PEIS from 650Hz to 100Hz_20_OCV_C01.mpr
	Directory : C:\PEM-WE_measurements\2026\372_IV_IV IrOx, 5 min Pt, 30 min C, etched cathode\new station\Loopeis new\1,46 V different time gaps closed cell\
	Host : 192.168.0.2
Device : SP-150e (SN .005491)
Address : 192.168.0.91
EC-LAB for windows v11.71 (software)
Internet server v28.00 (firmware)
Command interpretor v14.01 (firmware)
Electrode material : 
Initial state : 
Electrolyte : 
Comments : 
Current amplifier : SP-150eB-20A
Electrode surface area : 0.001 cm²
Characteristic mass : 0.001 g
Equivalent Weight : 0.000 g/eq.
Density : 0.000 g/cm3
Volume (V) : 0.001 cm³
Record Analogic IN 1
Text export
   Mode : Standard
   Time format : Elapsed
Cycle Definition : Charge/Discharge alternance
External device configuration :
   device type : Temperature Probe
   device name : Other
   Analog IN 1 : 
      unit : T/Â°C
      max : 100.000 at 2.000 V
      min : 0.000 at 1.460 V
tR (h:m:s)          0:00:30.0000        
dER/dt (mV/h)       1.0                 
record              <Ewe>               
dER (mV)            10.00               
dtR (s)             0.5000              
E range min (V)     -2.500              
E range max (V)     2.500               

mode	error	time/s	<Ewe/V>	Analog IN 1/V	
3	0	7.284435985480377E+002	1.2143152E+000	-2.7037677E+002
3	0	7.289435985354066E+002	1.2505157E+000	-2.7038742E+002
3	0	7.294435985227756E+002	1.2550538E+000	-2.7038385E+002
3	0	7.299435985101445E+002	1.2578797E+000	-2.7039093E+002
3	0	7.304435984975134E+002	1.2598988E+000	-2.7037326E+002
3	0	7.309435984848824E+002	1.2614413E+000	-2.7037326E+002
3	0	7.314435984722513E+002	1.2626313E+000	-2.7039447E+002
3	0	7.319435984596203E+002	1.2635583E+000	-2.7037677E+002
3	0	7.324435984469892E+002	1.2643118E+000	-2.7036267E+002
3	0	7.329435984343581E+002	1.2650067E+000	-2.7040860E+002
3	0	7.334435984217271E+002	1.2655785E+000	-2.7036972E+002
3	0	7.339435984090960E+002	1.2660757E+000	-2.7037326E+002
3	0	7.344435983964650E+002	1.2664925E+000	-2.7036618E+002
3	0	7.349435983838339E+002	1.2668655E+000	-2.7039447E+002
3	0	7.354435983712028E+002	1.2671503E+000	-2.7036972E+002
3	0	7.359435983585718E+002	1.2673302E+000	-2.7037677E+002
3	0	7.364435983459407E+002	1.2674699E+000	-2.7036618E+002
3	0	7.369435983333096E+002	1.2676487E+000	-2.7037677E+002
3	0	7.374435983206786E+002	1.2677895E+000	-2.7038031E+002
3	0	7.379435983080475E+002	1.2679147E+000	-2.7036267E+002
3	0	7.384435982954165E+002	1.2680176E+000	-2.7036267E+002
3	0	7.389435982827854E+002	1.2680943E+000	-2.7037326E+002
3	0	7.394435982701543E+002	1.2681210E+000	-2.7038031E+002
3	0	7.399435982575233E+002	1.2680601E+000	-2.7036972E+002
3	0	7.404435982448922E+002	1.2679877E+000	-2.7039093E+002
3	0	7.409435982322611E+002	1.2679739E+000	-2.7036618E+002
3	0	7.414435982196301E+002	1.2679324E+000	-2.7039447E+002
3	0	7.419435982069990E+002	1.2678814E+000	-2.7035913E+002
3	0	7.424435981943680E+002	1.2678187E+000	-2.7039093E+002
3	0	7.429435981817369E+002	1.2677509E+000	-2.7037326E+002
3	0	7.434435981691058E+002	1.2676357E+000	-2.7039093E+002
3	0	7.439435981564748E+002	1.2674512E+000	-2.7036972E+002
3	0	7.444435981438437E+002	1.2672447E+000	-2.7036618E+002
3	0	7.449435981312126E+002	1.2671089E+000	-2.7036618E+002
3	0	7.454435981185816E+002	1.2669539E+000	-2.7037677E+002
3	0	7.459435981059505E+002	1.2667958E+000	-2.7038742E+002
3	0	7.464435980933195E+002	1.2666302E+000	-2.7036972E+002
3	0	7.469435980806884E+002	1.2664534E+000	-2.7035559E+002
3	0	7.474435980680573E+002	1.2662460E+000	-2.7037677E+002
3	0	7.479435980554263E+002	1.2659526E+000	-2.7036618E+002
3	0	7.484435980427952E+002	1.2656496E+000	-2.7038385E+002
3	0	7.489435980301641E+002	1.2654046E+000	-2.7035913E+002
3	0	7.494435980175331E+002	1.2651453E+000	-2.7038031E+002
3	0	7.499435980049020E+002	1.2648792E+000	-2.7037677E+002
3	0	7.504435979922710E+002	1.2645943E+000	-2.7037326E+002
3	0	7.509435979796399E+002	1.2642357E+000	-2.7038742E+002
3	0	7.514435979670088E+002	1.2638990E+000	-2.7036972E+002
3	0	7.519435979543778E+002	1.2635385E+000	-2.7036618E+002
3	0	7.524435979417467E+002	1.2631656E+000	-2.7037326E+002
3	0	7.529435979291156E+002	1.2628595E+000	-2.7038031E+002
3	0	7.534435979164846E+002	1.2625455E+000	-2.7037677E+002
3	0	7.539435979038535E+002	1.2622236E+000	-2.7038385E+002
3	0	7.544435978912225E+002	1.2619050E+000	-2.7036972E+002
3	0	7.549435978785914E+002	1.2615917E+000	-2.7036618E+002
3	0	7.554435978659603E+002	1.2612330E+000	-2.7034851E+002
3	0	7.559435978533293E+002	1.2607954E+000	-2.7039093E+002
3	0	7.564435978406982E+002	1.2603432E+000	-2.7037326E+002
3	0	7.569435978280671E+002	1.2599803E+000	-2.7037677E+002
3	0	7.574435978154361E+002	1.2596320E+000	-2.7036618E+002
3	0	7.579435978028050E+002	1.2592697E+000	-2.7039801E+002
3	0	7.579681978021836E+002	1.2590729E+000	-2.7036972E+002