EC-Lab ASCII FILE
Nb header lines : 55                          

Open Circuit Voltage

Run on channel : 1 (SN 81504)
User : 
CE vs. WE compliance from -10 V to 10 V
Electrode connection : standard
Potential control : Ewe
Ewe ctrl range : min = -2.50 V, max = 2.50 V
Safety Limits :
	Do not start on E overload
Acquisition started on : 05/10/2026 00:12:25.049
Loaded Setting File :  C:\PEM-WE_measurements\2026\372_IV_IV IrOx, 5 min Pt, 30 min C, etched cathode\new station\Loopeis new\1,46 V different time gaps closed cell\Loopeis 1,46V_30s_5_PEIS from 65Hz to 10Hz.mps
Saved on :
	File : L_05_Loopeis 1,46V_30s_5_PEIS from 65Hz to 10Hz_18_OCV_C01.mpr
	Directory : C:\PEM-WE_measurements\2026\372_IV_IV IrOx, 5 min Pt, 30 min C, etched cathode\new station\Loopeis new\1,46 V different time gaps closed cell\
	Host : 192.168.0.2
Device : SP-150e (SN .005491)
Address : 192.168.0.91
EC-LAB for windows v11.71 (software)
Internet server v28.00 (firmware)
Command interpretor v14.01 (firmware)
Electrode material : 
Initial state : 
Electrolyte : 
Comments : 
Current amplifier : SP-150eB-20A
Electrode surface area : 0.001 cm²
Characteristic mass : 0.001 g
Equivalent Weight : 0.000 g/eq.
Density : 0.000 g/cm3
Volume (V) : 0.001 cm³
Record Analogic IN 1
Text export
   Mode : Standard
   Time format : Elapsed
Cycle Definition : Charge/Discharge alternance
External device configuration :
   device type : Temperature Probe
   device name : Other
   Analog IN 1 : 
      unit : T/Â°C
      max : 100.000 at 2.000 V
      min : 0.000 at 1.460 V
tR (h:m:s)          0:00:30.0000        
dER/dt (mV/h)       1.0                 
record              <Ewe>               
dER (mV)            10.00               
dtR (s)             0.5000              
E range min (V)     -2.500              
E range max (V)     2.500               

mode	error	time/s	<Ewe/V>	Analog IN 1/V	
3	0	6.501309970094735E+002	1.4199334E+000	-2.7035559E+002
3	0	6.506309969968424E+002	1.4119701E+000	-2.7035559E+002
3	0	6.511309969842114E+002	1.4065641E+000	-2.7038385E+002
3	0	6.516309969715803E+002	1.4026066E+000	-2.7037326E+002
3	0	6.521309969589493E+002	1.3994777E+000	-2.7038031E+002
3	0	6.526309969463182E+002	1.3968954E+000	-2.7039093E+002
3	0	6.531309969336871E+002	1.3946731E+000	-2.7038031E+002
3	0	6.536309969210561E+002	1.3926550E+000	-2.7037326E+002
3	0	6.541309969084250E+002	1.3907950E+000	-2.7038031E+002
3	0	6.546309968957939E+002	1.3892000E+000	-2.7037677E+002
3	0	6.551309968831629E+002	1.3877741E+000	-2.7038031E+002
3	0	6.556309968705318E+002	1.3864641E+000	-2.7039801E+002
3	0	6.561309968579008E+002	1.3852597E+000	-2.7037677E+002
3	0	6.566309968452697E+002	1.3841550E+000	-2.7038031E+002
3	0	6.571309968326386E+002	1.3830861E+000	-2.7036972E+002
3	0	6.576309968200076E+002	1.3820257E+000	-2.7037326E+002
3	0	6.581309968073765E+002	1.3809731E+000	-2.7038031E+002
3	0	6.586309967947454E+002	1.3800483E+000	-2.7036972E+002
3	0	6.591309967821144E+002	1.3792036E+000	-2.7036618E+002
3	0	6.596309967694833E+002	1.3783972E+000	-2.7036972E+002
3	0	6.601309967568523E+002	1.3776327E+000	-2.7039447E+002
3	0	6.606309967442212E+002	1.3768971E+000	-2.7037326E+002
3	0	6.611309967315901E+002	1.3761735E+000	-2.7036267E+002
3	0	6.616309967189591E+002	1.3753989E+000	-2.7037326E+002
3	0	6.621309967063280E+002	1.3746198E+000	-2.7038031E+002
3	0	6.626309966936969E+002	1.3739344E+000	-2.7037326E+002
3	0	6.631309966810659E+002	1.3732964E+000	-2.7036972E+002
3	0	6.636309966684348E+002	1.3726654E+000	-2.7036618E+002
3	0	6.641309966558038E+002	1.3720556E+000	-2.7038031E+002
3	0	6.646309966431727E+002	1.3714650E+000	-2.7036618E+002
3	0	6.651309966305416E+002	1.3708631E+000	-2.7038385E+002
3	0	6.656309966179106E+002	1.3702161E+000	-2.7036618E+002
3	0	6.661309966052795E+002	1.3695333E+000	-2.7039093E+002
3	0	6.666309965926484E+002	1.3689265E+000	-2.7038742E+002
3	0	6.671309965800174E+002	1.3683743E+000	-2.7037677E+002
3	0	6.676309965673863E+002	1.3678210E+000	-2.7036267E+002
3	0	6.681309965547553E+002	1.3672626E+000	-2.7036972E+002
3	0	6.686309965421242E+002	1.3667151E+000	-2.7037326E+002
3	0	6.691309965294931E+002	1.3661546E+000	-2.7036972E+002
3	0	6.696309965168621E+002	1.3655343E+000	-2.7039093E+002
3	0	6.701309965042310E+002	1.3648775E+000	-2.7040860E+002
3	0	6.706309964915999E+002	1.3642851E+000	-2.7036972E+002
3	0	6.711309964789689E+002	1.3637223E+000	-2.7035913E+002
3	0	6.716309964663378E+002	1.3631653E+000	-2.7037326E+002
3	0	6.721309964537068E+002	1.3625988E+000	-2.7036267E+002
3	0	6.726309964410757E+002	1.3620319E+000	-2.7038742E+002
3	0	6.731309964284446E+002	1.3614423E+000	-2.7039447E+002
3	0	6.736309964158136E+002	1.3607887E+000	-2.7037326E+002
3	0	6.741309964031825E+002	1.3601000E+000	-2.7037326E+002
3	0	6.746309963905514E+002	1.3594877E+000	-2.7037677E+002
3	0	6.751309963779204E+002	1.3589038E+000	-2.7036618E+002
3	0	6.756309963652893E+002	1.3583229E+000	-2.7039801E+002
3	0	6.761309963526583E+002	1.3577375E+000	-2.7036267E+002
3	0	6.766309963400272E+002	1.3571690E+000	-2.7038385E+002
3	0	6.771309963273961E+002	1.3565742E+000	-2.7036972E+002
3	0	6.776309963147651E+002	1.3559245E+000	-2.7036972E+002
3	0	6.781309963021340E+002	1.3552326E+000	-2.7036972E+002
3	0	6.786309962895029E+002	1.3546213E+000	-2.7039093E+002
3	0	6.791309962768719E+002	1.3540457E+000	-2.7036972E+002
3	0	6.796309962642408E+002	1.3534536E+000	-2.7039447E+002
3	0	6.796313962642307E+002	1.3531735E+000	-2.7037677E+002