EC-Lab ASCII FILE
Nb header lines : 55                          

Open Circuit Voltage

Run on channel : 1 (SN 81504)
User : 
CE vs. WE compliance from -10 V to 10 V
Electrode connection : standard
Potential control : Ewe
Ewe ctrl range : min = -2.50 V, max = 2.50 V
Safety Limits :
	Do not start on E overload
Acquisition started on : 05/10/2026 00:12:25.049
Loaded Setting File :  C:\PEM-WE_measurements\2026\372_IV_IV IrOx, 5 min Pt, 30 min C, etched cathode\new station\Loopeis new\1,46 V different time gaps closed cell\Loopeis 1,46V_30s_5_PEIS from 65Hz to 10Hz.mps
Saved on :
	File : L_05_Loopeis 1,46V_30s_5_PEIS from 65Hz to 10Hz_16_OCV_C01.mpr
	Directory : C:\PEM-WE_measurements\2026\372_IV_IV IrOx, 5 min Pt, 30 min C, etched cathode\new station\Loopeis new\1,46 V different time gaps closed cell\
	Host : 192.168.0.2
Device : SP-150e (SN .005491)
Address : 192.168.0.91
EC-LAB for windows v11.71 (software)
Internet server v28.00 (firmware)
Command interpretor v14.01 (firmware)
Electrode material : 
Initial state : 
Electrolyte : 
Comments : 
Current amplifier : SP-150eB-20A
Electrode surface area : 0.001 cm²
Characteristic mass : 0.001 g
Equivalent Weight : 0.000 g/eq.
Density : 0.000 g/cm3
Volume (V) : 0.001 cm³
Record Analogic IN 1
Text export
   Mode : Standard
   Time format : Elapsed
Cycle Definition : Charge/Discharge alternance
External device configuration :
   device type : Temperature Probe
   device name : Other
   Analog IN 1 : 
      unit : T/Â°C
      max : 100.000 at 2.000 V
      min : 0.000 at 1.460 V
tR (h:m:s)          0:00:30.0000        
dER/dt (mV/h)       1.0                 
record              <Ewe>               
dER (mV)            10.00               
dtR (s)             0.5000              
E range min (V)     -2.500              
E range max (V)     2.500               

mode	error	time/s	<Ewe/V>	Analog IN 1/V	
3	0	5.751057989047695E+002	1.2220654E+000	-2.7038031E+002
3	0	5.756057988921384E+002	1.2333602E+000	-2.7038385E+002
3	0	5.761057988795073E+002	1.2384387E+000	-2.7038742E+002
3	0	5.766057988668763E+002	1.2416201E+000	-2.7038742E+002
3	0	5.771057988542452E+002	1.2438606E+000	-2.7036972E+002
3	0	5.776057988416142E+002	1.2455270E+000	-2.7037677E+002
3	0	5.781057988289831E+002	1.2468271E+000	-2.7039447E+002
3	0	5.786057988163520E+002	1.2479380E+000	-2.7039801E+002
3	0	5.791057988037210E+002	1.2488846E+000	-2.7037677E+002
3	0	5.796057987910899E+002	1.2496800E+000	-2.7039447E+002
3	0	5.801057987784588E+002	1.2503655E+000	-2.7040155E+002
3	0	5.806057987658278E+002	1.2509515E+000	-2.7038385E+002
3	0	5.811057987531967E+002	1.2514278E+000	-2.7039447E+002
3	0	5.816057987405657E+002	1.2518016E+000	-2.7038385E+002
3	0	5.821057987279346E+002	1.2520815E+000	-2.7039093E+002
3	0	5.826057987153035E+002	1.2523799E+000	-2.7038742E+002
3	0	5.831057987026725E+002	1.2526584E+000	-2.7037326E+002
3	0	5.836057986900414E+002	1.2529082E+000	-2.7038742E+002
3	0	5.841057986774103E+002	1.2531104E+000	-2.7038385E+002
3	0	5.846057986647793E+002	1.2532833E+000	-2.7037677E+002
3	0	5.851057986521482E+002	1.2534124E+000	-2.7036972E+002
3	0	5.856057986395172E+002	1.2534564E+000	-2.7035559E+002
3	0	5.861057986268861E+002	1.2534435E+000	-2.7037326E+002
3	0	5.866057986142550E+002	1.2534845E+000	-2.7038385E+002
3	0	5.871057986016240E+002	1.2535406E+000	-2.7039093E+002
3	0	5.876057985889929E+002	1.2535777E+000	-2.7038385E+002
3	0	5.881057985763618E+002	1.2535871E+000	-2.7039093E+002
3	0	5.886057985637308E+002	1.2535836E+000	-2.7038742E+002
3	0	5.891057985510997E+002	1.2535387E+000	-2.7038031E+002
3	0	5.896057985384687E+002	1.2534199E+000	-2.7039801E+002
3	0	5.901057985258376E+002	1.2532449E+000	-2.7037677E+002
3	0	5.906057985132065E+002	1.2531327E+000	-2.7036972E+002
3	0	5.911057985005755E+002	1.2530335E+000	-2.7037677E+002
3	0	5.916057984879444E+002	1.2529166E+000	-2.7036618E+002
3	0	5.921057984753134E+002	1.2527759E+000	-2.7038385E+002
3	0	5.926057984626823E+002	1.2526309E+000	-2.7037326E+002
3	0	5.931057984500512E+002	1.2524540E+000	-2.7038031E+002
3	0	5.936057984374202E+002	1.2522143E+000	-2.7036972E+002
3	0	5.941057984247891E+002	1.2519040E+000	-2.7038031E+002
3	0	5.946057984121580E+002	1.2516752E+000	-2.7038031E+002
3	0	5.951057983995270E+002	1.2514727E+000	-2.7038031E+002
3	0	5.956057983868959E+002	1.2512643E+000	-2.7038031E+002
3	0	5.961057983742649E+002	1.2510462E+000	-2.7037326E+002
3	0	5.966057983616338E+002	1.2508113E+000	-2.7038385E+002
3	0	5.971057983490027E+002	1.2505568E+000	-2.7037326E+002
3	0	5.976057983363717E+002	1.2502294E+000	-2.7038385E+002
3	0	5.981057983237406E+002	1.2498511E+000	-2.7038031E+002
3	0	5.986057983111095E+002	1.2495464E+000	-2.7037677E+002
3	0	5.991057982984785E+002	1.2492787E+000	-2.7038031E+002
3	0	5.996057982858474E+002	1.2489980E+000	-2.7039801E+002
3	0	6.001057982732164E+002	1.2487024E+000	-2.7038385E+002
3	0	6.006057982605853E+002	1.2484059E+000	-2.7037677E+002
3	0	6.011057982479542E+002	1.2480794E+000	-2.7038742E+002
3	0	6.016057982353232E+002	1.2476902E+000	-2.7037326E+002
3	0	6.021057982226921E+002	1.2472637E+000	-2.7038385E+002
3	0	6.026057982100610E+002	1.2468972E+000	-2.7036618E+002
3	0	6.031057981974300E+002	1.2465619E+000	-2.7038031E+002
3	0	6.036057981847989E+002	1.2462158E+000	-2.7039801E+002
3	0	6.041057981721679E+002	1.2458566E+000	-2.7037326E+002
3	0	6.046057981595368E+002	1.2455069E+000	-2.7039447E+002
3	0	6.046303981589153E+002	1.2453059E+000	-2.7040155E+002