EC-Lab ASCII FILE
Nb header lines : 55                          

Open Circuit Voltage

Run on channel : 1 (SN 81504)
User : 
CE vs. WE compliance from -10 V to 10 V
Electrode connection : standard
Potential control : Ewe
Ewe ctrl range : min = -2.50 V, max = 2.50 V
Safety Limits :
	Do not start on E overload
Acquisition started on : 05/10/2026 00:12:25.049
Loaded Setting File :  C:\PEM-WE_measurements\2026\372_IV_IV IrOx, 5 min Pt, 30 min C, etched cathode\new station\Loopeis new\1,46 V different time gaps closed cell\Loopeis 1,46V_30s_5_PEIS from 65Hz to 10Hz.mps
Saved on :
	File : L_05_Loopeis 1,46V_30s_5_PEIS from 65Hz to 10Hz_08_OCV_C01.mpr
	Directory : C:\PEM-WE_measurements\2026\372_IV_IV IrOx, 5 min Pt, 30 min C, etched cathode\new station\Loopeis new\1,46 V different time gaps closed cell\
	Host : 192.168.0.2
Device : SP-150e (SN .005491)
Address : 192.168.0.91
EC-LAB for windows v11.71 (software)
Internet server v28.00 (firmware)
Command interpretor v14.01 (firmware)
Electrode material : 
Initial state : 
Electrolyte : 
Comments : 
Current amplifier : SP-150eB-20A
Electrode surface area : 0.001 cm²
Characteristic mass : 0.001 g
Equivalent Weight : 0.000 g/eq.
Density : 0.000 g/cm3
Volume (V) : 0.001 cm³
Record Analogic IN 1
Text export
   Mode : Standard
   Time format : Elapsed
Cycle Definition : Charge/Discharge alternance
External device configuration :
   device type : Temperature Probe
   device name : Other
   Analog IN 1 : 
      unit : T/Â°C
      max : 100.000 at 2.000 V
      min : 0.000 at 1.460 V
tR (h:m:s)          0:00:30.0000        
dER/dt (mV/h)       1.0                 
record              <Ewe>               
dER (mV)            10.00               
dtR (s)             0.5000              
E range min (V)     -2.500              
E range max (V)     2.500               

mode	error	time/s	<Ewe/V>	Analog IN 1/V	
3	0	2.709943997399387E+002	1.2152363E+000	-2.7035913E+002
3	0	2.714943997273076E+002	1.2523232E+000	-2.7039801E+002
3	0	2.719943997146765E+002	1.2568091E+000	-2.7036972E+002
3	0	2.724943997020455E+002	1.2595971E+000	-2.7038742E+002
3	0	2.729943996894144E+002	1.2615783E+000	-2.7038031E+002
3	0	2.734943996767834E+002	1.2630653E+000	-2.7037677E+002
3	0	2.739943996641523E+002	1.2642021E+000	-2.7037677E+002
3	0	2.744943996515212E+002	1.2651155E+000	-2.7038385E+002
3	0	2.749943996388902E+002	1.2659292E+000	-2.7038742E+002
3	0	2.754943996262591E+002	1.2666208E+000	-2.7037326E+002
3	0	2.759943996136280E+002	1.2672008E+000	-2.7036972E+002
3	0	2.764943996009970E+002	1.2676975E+000	-2.7037326E+002
3	0	2.769943995883659E+002	1.2681208E+000	-2.7038031E+002
3	0	2.774943995757349E+002	1.2684523E+000	-2.7036618E+002
3	0	2.779943995631038E+002	1.2686816E+000	-2.7038742E+002
3	0	2.784943995504727E+002	1.2688540E+000	-2.7038031E+002
3	0	2.789943995378417E+002	1.2690660E+000	-2.7036618E+002
3	0	2.794943995252106E+002	1.2692562E+000	-2.7037326E+002
3	0	2.799943995125795E+002	1.2694163E+000	-2.7036618E+002
3	0	2.804943994999485E+002	1.2695459E+000	-2.7036972E+002
3	0	2.809943994873174E+002	1.2696422E+000	-2.7040506E+002
3	0	2.814943994746864E+002	1.2696946E+000	-2.7035559E+002
3	0	2.819943994620553E+002	1.2696570E+000	-2.7037326E+002
3	0	2.824943994494242E+002	1.2696002E+000	-2.7038031E+002
3	0	2.829943994367932E+002	1.2695986E+000	-2.7039447E+002
3	0	2.834943994241621E+002	1.2695934E+000	-2.7038742E+002
3	0	2.839943994115310E+002	1.2695656E+000	-2.7037677E+002
3	0	2.844943993989000E+002	1.2695313E+000	-2.7039801E+002
3	0	2.849943993862689E+002	1.2694781E+000	-2.7038742E+002
3	0	2.854943993736379E+002	1.2693702E+000	-2.7036618E+002
3	0	2.859943993610068E+002	1.2691934E+000	-2.7038385E+002
3	0	2.864943993483757E+002	1.2689888E+000	-2.7038031E+002
3	0	2.869943993357447E+002	1.2688638E+000	-2.7036267E+002
3	0	2.874943993231136E+002	1.2687435E+000	-2.7036972E+002
3	0	2.879943993104825E+002	1.2685970E+000	-2.7039447E+002
3	0	2.884943992978515E+002	1.2684380E+000	-2.7037677E+002
3	0	2.889943992852204E+002	1.2682713E+000	-2.7036618E+002
3	0	2.894943992725894E+002	1.2680491E+000	-2.7037326E+002
3	0	2.899943992599583E+002	1.2677402E+000	-2.7038031E+002
3	0	2.904943992473272E+002	1.2674251E+000	-2.7038742E+002
3	0	2.909943992346962E+002	1.2671756E+000	-2.7035913E+002
3	0	2.914943992220651E+002	1.2669299E+000	-2.7039093E+002
3	0	2.919943992094341E+002	1.2666708E+000	-2.7038031E+002
3	0	2.924943991968030E+002	1.2664075E+000	-2.7036618E+002
3	0	2.929943991841719E+002	1.2661459E+000	-2.7038031E+002
3	0	2.934943991715409E+002	1.2658465E+000	-2.7038742E+002
3	0	2.939943991589098E+002	1.2654712E+000	-2.7036972E+002
3	0	2.944943991462787E+002	1.2650846E+000	-2.7036267E+002
3	0	2.949943991336477E+002	1.2647766E+000	-2.7037677E+002
3	0	2.954943991210166E+002	1.2644745E+000	-2.7038385E+002
3	0	2.959943991083856E+002	1.2641640E+000	-2.7038385E+002
3	0	2.964943990957545E+002	1.2638530E+000	-2.7038742E+002
3	0	2.969943990831234E+002	1.2635330E+000	-2.7038385E+002
3	0	2.974943990704924E+002	1.2631762E+000	-2.7037677E+002
3	0	2.979943990578613E+002	1.2627474E+000	-2.7037677E+002
3	0	2.984943990452302E+002	1.2623181E+000	-2.7039801E+002
3	0	2.989943990325992E+002	1.2619573E+000	-2.7039447E+002
3	0	2.994943990199681E+002	1.2616205E+000	-2.7037677E+002
3	0	2.999943990073371E+002	1.2612684E+000	-2.7037326E+002
3	0	3.004943989947060E+002	1.2609218E+000	-2.7038031E+002
3	0	3.005177989941149E+002	1.2607229E+000	-2.7037326E+002