EC-Lab ASCII FILE
Nb header lines : 55                          

Open Circuit Voltage

Run on channel : 1 (SN 81504)
User : 
CE vs. WE compliance from -10 V to 10 V
Electrode connection : standard
Potential control : Ewe
Ewe ctrl range : min = -2.50 V, max = 2.50 V
Safety Limits :
	Do not start on E overload
Acquisition started on : 05/10/2026 00:12:25.049
Loaded Setting File :  C:\PEM-WE_measurements\2026\372_IV_IV IrOx, 5 min Pt, 30 min C, etched cathode\new station\Loopeis new\1,46 V different time gaps closed cell\Loopeis 1,46V_30s_5_PEIS from 65Hz to 10Hz.mps
Saved on :
	File : L_05_Loopeis 1,46V_30s_5_PEIS from 65Hz to 10Hz_04_OCV_C01.mpr
	Directory : C:\PEM-WE_measurements\2026\372_IV_IV IrOx, 5 min Pt, 30 min C, etched cathode\new station\Loopeis new\1,46 V different time gaps closed cell\
	Host : 192.168.0.2
Device : SP-150e (SN .005491)
Address : 192.168.0.91
EC-LAB for windows v11.71 (software)
Internet server v28.00 (firmware)
Command interpretor v14.01 (firmware)
Electrode material : 
Initial state : 
Electrolyte : 
Comments : 
Current amplifier : SP-150eB-20A
Electrode surface area : 0.001 cm²
Characteristic mass : 0.001 g
Equivalent Weight : 0.000 g/eq.
Density : 0.000 g/cm3
Volume (V) : 0.001 cm³
Record Analogic IN 1
Text export
   Mode : Standard
   Time format : Elapsed
Cycle Definition : Charge/Discharge alternance
External device configuration :
   device type : Temperature Probe
   device name : Other
   Analog IN 1 : 
      unit : T/Â°C
      max : 100.000 at 2.000 V
      min : 0.000 at 1.460 V
tR (h:m:s)          0:00:30.0000        
dER/dt (mV/h)       1.0                 
record              <Ewe>               
dER (mV)            10.00               
dtR (s)             0.5000              
E range min (V)     -2.500              
E range max (V)     2.500               

mode	error	time/s	<Ewe/V>	Analog IN 1/V	
3	0	1.207366002429626E+002	1.2143718E+000	-2.7040155E+002
3	0	1.212366002303315E+002	1.2509733E+000	-2.7038031E+002
3	0	1.217366002177005E+002	1.2554929E+000	-2.7037677E+002
3	0	1.222366002050694E+002	1.2582611E+000	-2.7038385E+002
3	0	1.227366001924383E+002	1.2602050E+000	-2.7040155E+002
3	0	1.232366001798073E+002	1.2617457E+000	-2.7037326E+002
3	0	1.237366001671762E+002	1.2629927E+000	-2.7037677E+002
3	0	1.242366001545452E+002	1.2640084E+000	-2.7037677E+002
3	0	1.247366001419141E+002	1.2648532E+000	-2.7039093E+002
3	0	1.252366001292830E+002	1.2655661E+000	-2.7036972E+002
3	0	1.257366001166520E+002	1.2661452E+000	-2.7037677E+002
3	0	1.262366001040209E+002	1.2665834E+000	-2.7036618E+002
3	0	1.267366000913898E+002	1.2669270E+000	-2.7037677E+002
3	0	1.272366000787588E+002	1.2672935E+000	-2.7038385E+002
3	0	1.277366000661277E+002	1.2676145E+000	-2.7038031E+002
3	0	1.282366000534967E+002	1.2678822E+000	-2.7036972E+002
3	0	1.287366000408656E+002	1.2681088E+000	-2.7036618E+002
3	0	1.292366000282345E+002	1.2682825E+000	-2.7038742E+002
3	0	1.297366000156035E+002	1.2684045E+000	-2.7037326E+002
3	0	1.302366000029724E+002	1.2684330E+000	-2.7038031E+002
3	0	1.307365999903413E+002	1.2684157E+000	-2.7039447E+002
3	0	1.312365999777103E+002	1.2684467E+000	-2.7039093E+002
3	0	1.317365999650792E+002	1.2684896E+000	-2.7036972E+002
3	0	1.322365999524482E+002	1.2685076E+000	-2.7038742E+002
3	0	1.327365999398171E+002	1.2685049E+000	-2.7039447E+002
3	0	1.332365999271860E+002	1.2684896E+000	-2.7038031E+002
3	0	1.337365999145550E+002	1.2684394E+000	-2.7035559E+002
3	0	1.342365999019239E+002	1.2683026E+000	-2.7038385E+002
3	0	1.347365998892928E+002	1.2681197E+000	-2.7033789E+002
3	0	1.352365998766618E+002	1.2680136E+000	-2.7036618E+002
3	0	1.357365998640307E+002	1.2679199E+000	-2.7036972E+002
3	0	1.362365998513997E+002	1.2678123E+000	-2.7036618E+002
3	0	1.367365998387686E+002	1.2676840E+000	-2.7040506E+002
3	0	1.372365998261375E+002	1.2675579E+000	-2.7036972E+002
3	0	1.377365998135065E+002	1.2673969E+000	-2.7039093E+002
3	0	1.382365998008754E+002	1.2671562E+000	-2.7039447E+002
3	0	1.387365997882443E+002	1.2668800E+000	-2.7035913E+002
3	0	1.392365997756133E+002	1.2666742E+000	-2.7039093E+002
3	0	1.397365997629822E+002	1.2664906E+000	-2.7038031E+002
3	0	1.402365997503512E+002	1.2662936E+000	-2.7039801E+002
3	0	1.407365997377201E+002	1.2660930E+000	-2.7036618E+002
3	0	1.412365997250890E+002	1.2658806E+000	-2.7037677E+002
3	0	1.417365997124580E+002	1.2656275E+000	-2.7038742E+002
3	0	1.422365996998269E+002	1.2653031E+000	-2.7037326E+002
3	0	1.427365996871958E+002	1.2649454E+000	-2.7038385E+002
3	0	1.432365996745648E+002	1.2646655E+000	-2.7037326E+002
3	0	1.437365996619337E+002	1.2644122E+000	-2.7036972E+002
3	0	1.442365996493027E+002	1.2641386E+000	-2.7038742E+002
3	0	1.447365996366716E+002	1.2638644E+000	-2.7039447E+002
3	0	1.452365996240405E+002	1.2635884E+000	-2.7037326E+002
3	0	1.457365996114095E+002	1.2632663E+000	-2.7036267E+002
3	0	1.462365995987784E+002	1.2628793E+000	-2.7036618E+002
3	0	1.467365995861473E+002	1.2624570E+000	-2.7037677E+002
3	0	1.472365995735163E+002	1.2621135E+000	-2.7037326E+002
3	0	1.477365995608852E+002	1.2617869E+000	-2.7038031E+002
3	0	1.482365995482542E+002	1.2614456E+000	-2.7037326E+002
3	0	1.487365995356231E+002	1.2610962E+000	-2.7039801E+002
3	0	1.492365995229920E+002	1.2607305E+000	-2.7038031E+002
3	0	1.497365995103610E+002	1.2603397E+000	-2.7036618E+002
3	0	1.502365994977299E+002	1.2598826E+000	-2.7037326E+002
3	0	1.502599994971388E+002	1.2595997E+000	-2.7038742E+002