EC-Lab ASCII FILE
Nb header lines : 48                          

Open Circuit Voltage

Run on channel : 1 (SN 81504)
User : 
CE vs. WE compliance from -10 V to 10 V
Electrode connection : standard
Potential control : Ewe
Ewe ctrl range : min = -2.50 V, max = 2.50 V
Safety Limits :
	Do not start on E overload
Acquisition started on : 05/10/2026 00:41:40.044
Loaded Setting File :  C:\PEM-WE_measurements\2026\372_IV_IV IrOx, 5 min Pt, 30 min C, etched cathode\new station\Loopeis new\1,46 V different time gaps closed cell\Loopeis 1,46V_45s_2_PEIS from 65kHz to 10kHz.mps
Saved on :
	File : L_07_Loopeis 1,46V_45s_2_PEIS from 65kHz to 10kHz_12_OCV_C01.mpr
	Directory : C:\PEM-WE_measurements\2026\372_IV_IV IrOx, 5 min Pt, 30 min C, etched cathode\new station\Loopeis new\1,46 V different time gaps closed cell\
	Host : 192.168.0.2
Device : SP-150e (SN .005491)
Address : 192.168.0.91
EC-LAB for windows v11.71 (software)
Internet server v28.00 (firmware)
Command interpretor v14.01 (firmware)
Electrode material : 
Initial state : 
Electrolyte : 
Comments : 
Current amplifier : SP-150eB-20A
Electrode surface area : 0.001 cm²
Characteristic mass : 0.001 g
Equivalent Weight : 0.000 g/eq.
Density : 0.000 g/cm3
Volume (V) : 0.001 cm³
Record Analogic IN 1
Text export
   Mode : Standard
   Time format : Elapsed
Cycle Definition : Charge/Discharge alternance
tR (h:m:s)          0:00:45.0000        
dER/dt (mV/h)       1.0                 
record              <Ewe>               
dER (mV)            10.00               
dtR (s)             0.5000              
E range min (V)     -2.500              
E range max (V)     2.500               

mode	error	time/s	<Ewe/V>	Analog IN 1/V	
3	0	4.961695973391761E+002	1.2122613E+000	-9.1562819E-005
3	0	4.966695973265450E+002	1.2530032E+000	-1.2973390E-004
3	0	4.971695973139140E+002	1.2575372E+000	-3.4306191E-005
3	0	4.976695973012829E+002	1.2603208E+000	-9.1562819E-005
3	0	4.981695972886519E+002	1.2622671E+000	4.2035979E-005
3	0	4.986695972760208E+002	1.2636611E+000	-9.1562819E-005
3	0	4.991695972633897E+002	1.2647138E+000	-1.4881945E-004
3	0	4.996695972507587E+002	1.2655977E+000	-7.2477276E-005
3	0	5.001695972381276E+002	1.2663170E+000	-3.4306191E-005
3	0	5.006695972254965E+002	1.2669034E+000	-9.1562819E-005
3	0	5.011695972128655E+002	1.2673880E+000	-3.4306191E-005
3	0	5.016695972002344E+002	1.2677318E+000	-1.1064836E-004
3	0	5.021695971876034E+002	1.2679919E+000	-5.3391734E-005
3	0	5.026695971749723E+002	1.2681779E+000	-9.1562819E-005
3	0	5.031695971623412E+002	1.2682954E+000	-1.5220648E-005
3	0	5.036695971497102E+002	1.2684451E+000	-9.1562819E-005
3	0	5.041695971370791E+002	1.2685453E+000	-7.2477276E-005
3	0	5.046695971244480E+002	1.2686156E+000	-1.5220648E-005
3	0	5.051695971118170E+002	1.2686526E+000	-3.4306191E-005
3	0	5.056695970991859E+002	1.2686697E+000	-1.6790499E-004
3	0	5.061695970865549E+002	1.2686312E+000	-1.5220648E-005
3	0	5.066695970739238E+002	1.2685168E+000	-9.1562819E-005
3	0	5.071695970612927E+002	1.2683508E+000	-7.2477276E-005
3	0	5.076695970486617E+002	1.2682539E+000	-7.2477276E-005
3	0	5.081695970360306E+002	1.2681553E+000	2.2950437E-005
3	0	5.086695970233995E+002	1.2680495E+000	9.9292607E-005
3	0	5.091695970107685E+002	1.2679439E+000	-7.2477276E-005
3	0	5.096695969981374E+002	1.2678481E+000	-1.2973390E-004
3	0	5.101695969855064E+002	1.2677215E+000	-1.8699054E-004
3	0	5.106695969728753E+002	1.2675327E+000	-5.3391734E-005
3	0	5.111695969602442E+002	1.2673149E+000	4.2035979E-005
3	0	5.116695969476132E+002	1.2671801E+000	-1.6790499E-004
3	0	5.121695969349821E+002	1.2670550E+000	-3.4306191E-005
3	0	5.126695969223510E+002	1.2669296E+000	3.8648941E-006
3	0	5.131695969097200E+002	1.2668111E+000	-1.5220648E-005
3	0	5.136695968970889E+002	1.2666845E+000	-7.2477276E-005
3	0	5.141695968844579E+002	1.2665216E+000	-1.4881945E-004
3	0	5.146695968718268E+002	1.2662921E+000	-1.1064836E-004
3	0	5.151695968591957E+002	1.2660332E+000	-7.2477276E-005
3	0	5.156695968465647E+002	1.2658569E+000	-1.6790499E-004
3	0	5.161695968339336E+002	1.2656777E+000	-9.1562819E-005
3	0	5.166695968213025E+002	1.2654918E+000	-1.2973390E-004
3	0	5.171695968086715E+002	1.2653124E+000	-1.5220648E-005
3	0	5.176695967960404E+002	1.2651275E+000	-1.2973390E-004
3	0	5.181695967834094E+002	1.2649151E+000	-1.8699054E-004
3	0	5.186695967707783E+002	1.2646246E+000	-9.1562819E-005
3	0	5.191695967581472E+002	1.2643040E+000	-1.5220648E-005
3	0	5.196695967455162E+002	1.2640659E+000	-3.4306191E-005
3	0	5.201695967328851E+002	1.2638264E+000	-3.4306191E-005
3	0	5.206695967202540E+002	1.2635891E+000	3.8648941E-006
3	0	5.211695967076230E+002	1.2633432E+000	3.8648941E-006
3	0	5.216695966949919E+002	1.2631001E+000	3.8648941E-006
3	0	5.221695966823609E+002	1.2628227E+000	-1.4881945E-004
3	0	5.226695966697298E+002	1.2624722E+000	-5.3391734E-005
3	0	5.231695966570987E+002	1.2620910E+000	-3.4306191E-005
3	0	5.236695966444677E+002	1.2617912E+000	-9.1562819E-005
3	0	5.241695966318366E+002	1.2615085E+000	-7.2477276E-005
3	0	5.246695966192055E+002	1.2612135E+000	-1.1064836E-004
3	0	5.251695966065745E+002	1.2609212E+000	2.2950437E-005
3	0	5.256695965939434E+002	1.2606266E+000	3.8648941E-006
3	0	5.261695965813124E+002	1.2603011E+000	-1.4881945E-004
3	0	5.266695965686813E+002	1.2598972E+000	6.1121522E-005
3	0	5.271695965560502E+002	1.2594627E+000	-3.4306191E-005
3	0	5.276695965434192E+002	1.2591245E+000	3.8648941E-006
3	0	5.281695965307881E+002	1.2587924E+000	-1.1064836E-004
3	0	5.286695965181571E+002	1.2584755E+000	-1.8699054E-004
3	0	5.291695965055260E+002	1.2581631E+000	-1.4881945E-004
3	0	5.296695964928949E+002	1.2578709E+000	4.2035979E-005
3	0	5.301695964802639E+002	1.2575502E+000	-9.1562819E-005
3	0	5.306695964676328E+002	1.2571701E+000	-1.8699054E-004
3	0	5.311695964550017E+002	1.2567612E+000	-2.2516162E-004
3	0	5.316695964423707E+002	1.2564508E+000	-9.1562819E-005
3	0	5.321695964297396E+002	1.2561514E+000	-7.2477276E-005
3	0	5.326695964171086E+002	1.2558562E+000	-5.3391734E-005
3	0	5.331695964044775E+002	1.2555661E+000	-3.4306191E-005
3	0	5.336695963918464E+002	1.2552758E+000	-1.2973390E-004
3	0	5.341695963792154E+002	1.2549561E+000	-9.1562819E-005
3	0	5.346695963665843E+002	1.2545720E+000	2.2950437E-005
3	0	5.351695963539532E+002	1.2541566E+000	-1.1064836E-004
3	0	5.356695963413222E+002	1.2538218E+000	-3.4306191E-005
3	0	5.361695963286911E+002	1.2534950E+000	-1.5220648E-005
3	0	5.366695963160601E+002	1.2531719E+000	-9.1562819E-005
3	0	5.371695963034290E+002	1.2528523E+000	-7.2477276E-005
3	0	5.376695962907979E+002	1.2525309E+000	-3.4306191E-005
3	0	5.381695962781669E+002	1.2521727E+000	-9.1562819E-005
3	0	5.386695962655358E+002	1.2517431E+000	3.8648941E-006
3	0	5.391695962529047E+002	1.2512858E+000	-1.1064836E-004
3	0	5.396695962402737E+002	1.2509133E+000	-5.3391734E-005
3	0	5.401695962276426E+002	1.2505366E+000	-9.1562819E-005
3	0	5.406695962150116E+002	1.2501665E+000	-3.4306191E-005
3	0	5.407045962141274E+002	1.2499577E+000	2.2950437E-005