EC-Lab ASCII FILE
Nb header lines : 48                          

Open Circuit Voltage

Run on channel : 1 (SN 81504)
User : 
CE vs. WE compliance from -10 V to 10 V
Electrode connection : standard
Potential control : Ewe
Ewe ctrl range : min = -2.50 V, max = 2.50 V
Safety Limits :
	Do not start on E overload
Acquisition started on : 05/10/2026 00:41:40.044
Loaded Setting File :  C:\PEM-WE_measurements\2026\372_IV_IV IrOx, 5 min Pt, 30 min C, etched cathode\new station\Loopeis new\1,46 V different time gaps closed cell\Loopeis 1,46V_45s_2_PEIS from 65kHz to 10kHz.mps
Saved on :
	File : L_07_Loopeis 1,46V_45s_2_PEIS from 65kHz to 10kHz_14_OCV_C01.mpr
	Directory : C:\PEM-WE_measurements\2026\372_IV_IV IrOx, 5 min Pt, 30 min C, etched cathode\new station\Loopeis new\1,46 V different time gaps closed cell\
	Host : 192.168.0.2
Device : SP-150e (SN .005491)
Address : 192.168.0.91
EC-LAB for windows v11.71 (software)
Internet server v28.00 (firmware)
Command interpretor v14.01 (firmware)
Electrode material : 
Initial state : 
Electrolyte : 
Comments : 
Current amplifier : SP-150eB-20A
Electrode surface area : 0.001 cm²
Characteristic mass : 0.001 g
Equivalent Weight : 0.000 g/eq.
Density : 0.000 g/cm3
Volume (V) : 0.001 cm³
Record Analogic IN 1
Text export
   Mode : Standard
   Time format : Elapsed
Cycle Definition : Charge/Discharge alternance
tR (h:m:s)          0:00:45.0000        
dER/dt (mV/h)       1.0                 
record              <Ewe>               
dER (mV)            10.00               
dtR (s)             0.5000              
E range min (V)     -2.500              
E range max (V)     2.500               

mode	error	time/s	<Ewe/V>	Analog IN 1/V	
3	0	5.862051950646855E+002	1.4200522E+000	4.2035979E-005
3	0	5.867051950520545E+002	1.4120197E+000	-3.4306191E-005
3	0	5.872051950394234E+002	1.4064069E+000	-1.2973390E-004
3	0	5.877051950267924E+002	1.4023405E+000	-7.2477276E-005
3	0	5.882051950141613E+002	1.3991086E+000	-7.2477276E-005
3	0	5.887051950015302E+002	1.3964127E+000	-7.2477276E-005
3	0	5.892051949888992E+002	1.3941033E+000	-1.5220648E-005
3	0	5.897051949762681E+002	1.3920702E+000	-5.3391734E-005
3	0	5.902051949636370E+002	1.3902241E+000	-1.4881945E-004
3	0	5.907051949510060E+002	1.3884739E+000	-7.2477276E-005
3	0	5.912051949383749E+002	1.3868092E+000	3.8648941E-006
3	0	5.917051949257439E+002	1.3853542E+000	-5.3391734E-005
3	0	5.922051949131128E+002	1.3840121E+000	-1.5220648E-005
3	0	5.927051949004817E+002	1.3827591E+000	-2.2516162E-004
3	0	5.932051948878507E+002	1.3815894E+000	-1.4881945E-004
3	0	5.937051948752196E+002	1.3804853E+000	1.3746369E-004
3	0	5.942051948625885E+002	1.3794116E+000	-5.3391734E-005
3	0	5.947051948499575E+002	1.3783239E+000	1.3746369E-004
3	0	5.952051948373264E+002	1.3772441E+000	-7.2477276E-005
3	0	5.957051948246954E+002	1.3762978E+000	-1.2973390E-004
3	0	5.962051948120643E+002	1.3753996E+000	-9.1562819E-005
3	0	5.967051947994332E+002	1.3745573E+000	-3.4306191E-005
3	0	5.972051947868022E+002	1.3737397E+000	8.0207064E-005
3	0	5.977051947741711E+002	1.3729191E+000	-3.4306191E-005
3	0	5.982051947615400E+002	1.3720498E+000	-9.1562819E-005
3	0	5.987051947489090E+002	1.3712294E+000	-1.2973390E-004
3	0	5.992051947362779E+002	1.3704212E+000	-7.2477276E-005
3	0	5.997051947236469E+002	1.3697299E+000	3.8648941E-006
3	0	6.002051947110158E+002	1.3690492E+000	-9.1562819E-005
3	0	6.007051946983847E+002	1.3683977E+000	4.2035979E-005
3	0	6.012051946857537E+002	1.3677644E+000	9.9292607E-005
3	0	6.017051946731226E+002	1.3671461E+000	-1.5220648E-005
3	0	6.022051946604915E+002	1.3664976E+000	-1.4881945E-004
3	0	6.027051946478605E+002	1.3657839E+000	1.3746369E-004
3	0	6.032051946352294E+002	1.3650634E+000	-1.2973390E-004
3	0	6.037051946225984E+002	1.3644552E+000	6.1121522E-005
3	0	6.042051946099673E+002	1.3638728E+000	-3.4306191E-005
3	0	6.047051945973362E+002	1.3633010E+000	9.9292607E-005
3	0	6.052051945847052E+002	1.3627410E+000	2.2950437E-005
3	0	6.057051945720741E+002	1.3621877E+000	9.9292607E-005
3	0	6.062051945594430E+002	1.3616017E+000	-1.5220648E-005
3	0	6.067051945468120E+002	1.3609487E+000	-9.1562819E-005
3	0	6.072051945341809E+002	1.3602781E+000	3.8648941E-006
3	0	6.077051945215499E+002	1.3597084E+000	2.2950437E-005
3	0	6.082051945089188E+002	1.3591797E+000	2.2950437E-005
3	0	6.087051944962877E+002	1.3586581E+000	-9.1562819E-005
3	0	6.092051944836567E+002	1.3581476E+000	3.8648941E-006
3	0	6.097051944710256E+002	1.3576398E+000	-7.2477276E-005
3	0	6.102051944583945E+002	1.3571250E+000	-1.1064836E-004
3	0	6.107051944457635E+002	1.3565508E+000	-1.1064836E-004
3	0	6.112051944331324E+002	1.3559592E+000	8.0207064E-005
3	0	6.117051944205014E+002	1.3554814E+000	3.8648941E-006
3	0	6.122051944078703E+002	1.3550451E+000	-1.4881945E-004
3	0	6.127051943952392E+002	1.3546016E+000	3.8648941E-006
3	0	6.132051943826082E+002	1.3541733E+000	9.9292607E-005
3	0	6.137051943699771E+002	1.3537514E+000	2.2950437E-005
3	0	6.142051943573460E+002	1.3533021E+000	-3.4306191E-005
3	0	6.147051943447150E+002	1.3527740E+000	-1.6790499E-004
3	0	6.152051943320839E+002	1.3522333E+000	-1.5220648E-005
3	0	6.157051943194529E+002	1.3517894E+000	4.2035979E-005
3	0	6.162051943068218E+002	1.3513743E+000	-3.4306191E-005
3	0	6.167051942941907E+002	1.3509524E+000	4.2035979E-005
3	0	6.172051942815597E+002	1.3505300E+000	-3.4306191E-005
3	0	6.177051942689286E+002	1.3501117E+000	3.8648941E-006
3	0	6.182051942562975E+002	1.3496594E+000	3.8648941E-006
3	0	6.187051942436665E+002	1.3491282E+000	-9.1562819E-005
3	0	6.192051942310354E+002	1.3485709E+000	-3.4306191E-005
3	0	6.197051942184044E+002	1.3481113E+000	-3.4306191E-005
3	0	6.202051942057733E+002	1.3476785E+000	-3.4306191E-005
3	0	6.207051941931422E+002	1.3472466E+000	-9.1562819E-005
3	0	6.212051941805112E+002	1.3468044E+000	-7.2477276E-005
3	0	6.217051941678801E+002	1.3463619E+000	3.8648941E-006
3	0	6.222051941552490E+002	1.3458858E+000	-1.1064836E-004
3	0	6.227051941426180E+002	1.3453329E+000	3.8648941E-006
3	0	6.232051941299869E+002	1.3447489E+000	-1.6790499E-004
3	0	6.237051941173559E+002	1.3442662E+000	-1.1064836E-004
3	0	6.242051941047248E+002	1.3438102E+000	-9.1562819E-005
3	0	6.247051940920937E+002	1.3433427E+000	-5.3391734E-005
3	0	6.252051940794627E+002	1.3428837E+000	-1.5220648E-005
3	0	6.257051940668316E+002	1.3424221E+000	-5.3391734E-005
3	0	6.262051940542005E+002	1.3419290E+000	9.9292607E-005
3	0	6.267051940415695E+002	1.3413515E+000	-1.1064836E-004
3	0	6.272051940289384E+002	1.3407428E+000	-1.5220648E-005
3	0	6.277051940163074E+002	1.3402236E+000	-1.1064836E-004
3	0	6.282051940036763E+002	1.3397387E+000	-5.3391734E-005
3	0	6.287051939910452E+002	1.3392631E+000	3.8648941E-006
3	0	6.292051939784142E+002	1.3387886E+000	-1.6790499E-004
3	0	6.297051939657831E+002	1.3383157E+000	-1.1064836E-004
3	0	6.302051939531520E+002	1.3378235E+000	-9.1562819E-005
3	0	6.307051939405210E+002	1.3372681E+000	2.2950437E-005
3	0	6.307055939405109E+002	1.3369141E+000	-1.4881945E-004