EC-Lab ASCII FILE
Nb header lines : 48                          

Open Circuit Voltage

Run on channel : 1 (SN 81504)
User : 
CE vs. WE compliance from -10 V to 10 V
Electrode connection : standard
Potential control : Ewe
Ewe ctrl range : min = -2.50 V, max = 2.50 V
Safety Limits :
	Do not start on E overload
Acquisition started on : 05/10/2026 00:41:40.044
Loaded Setting File :  C:\PEM-WE_measurements\2026\372_IV_IV IrOx, 5 min Pt, 30 min C, etched cathode\new station\Loopeis new\1,46 V different time gaps closed cell\Loopeis 1,46V_45s_2_PEIS from 65kHz to 10kHz.mps
Saved on :
	File : L_07_Loopeis 1,46V_45s_2_PEIS from 65kHz to 10kHz_02_OCV_C01.mpr
	Directory : C:\PEM-WE_measurements\2026\372_IV_IV IrOx, 5 min Pt, 30 min C, etched cathode\new station\Loopeis new\1,46 V different time gaps closed cell\
	Host : 192.168.0.2
Device : SP-150e (SN .005491)
Address : 192.168.0.91
EC-LAB for windows v11.71 (software)
Internet server v28.00 (firmware)
Command interpretor v14.01 (firmware)
Electrode material : 
Initial state : 
Electrolyte : 
Comments : 
Current amplifier : SP-150eB-20A
Electrode surface area : 0.001 cm²
Characteristic mass : 0.001 g
Equivalent Weight : 0.000 g/eq.
Density : 0.000 g/cm3
Volume (V) : 0.001 cm³
Record Analogic IN 1
Text export
   Mode : Standard
   Time format : Elapsed
Cycle Definition : Charge/Discharge alternance
tR (h:m:s)          0:00:45.0000        
dER/dt (mV/h)       1.0                 
record              <Ewe>               
dER (mV)            10.00               
dtR (s)             0.5000              
E range min (V)     -2.500              
E range max (V)     2.500               

mode	error	time/s	<Ewe/V>	Analog IN 1/V	
3	0	4.549979885057837E+001	1.4207531E+000	-9.1562819E-005
3	0	4.599979883794731E+001	1.4131221E+000	-5.3391734E-005
3	0	4.649979882531625E+001	1.4078258E+000	-1.4881945E-004
3	0	4.699979881268519E+001	1.4038751E+000	-1.4881945E-004
3	0	4.749979880005412E+001	1.4006109E+000	2.2950437E-005
3	0	4.799979878742306E+001	1.3978422E+000	3.8648941E-006
3	0	4.849979877479200E+001	1.3955194E+000	2.2950437E-005
3	0	4.899979876216094E+001	1.3935113E+000	-3.4306191E-005
3	0	4.949979874952987E+001	1.3916979E+000	-5.3391734E-005
3	0	4.999979873689881E+001	1.3900579E+000	-1.1064836E-004
3	0	5.049979872426775E+001	1.3885672E+000	3.8648941E-006
3	0	5.099979871163669E+001	1.3871385E+000	-1.4881945E-004
3	0	5.149979869900562E+001	1.3857256E+000	9.9292607E-005
3	0	5.199979868637456E+001	1.3843830E+000	-1.5220648E-005
3	0	5.249979867374350E+001	1.3831927E+000	-1.1064836E-004
3	0	5.299979866111244E+001	1.3820902E+000	-5.3391734E-005
3	0	5.349979864848137E+001	1.3810351E+000	6.1121522E-005
3	0	5.399979863585031E+001	1.3800329E+000	-7.2477276E-005
3	0	5.449979862321925E+001	1.3790731E+000	-9.1562819E-005
3	0	5.499979861058819E+001	1.3781189E+000	-3.4306191E-005
3	0	5.549979859795712E+001	1.3771131E+000	6.1121522E-005
3	0	5.599979858532606E+001	1.3761373E+000	2.2950437E-005
3	0	5.649979857269500E+001	1.3752806E+000	3.8648941E-006
3	0	5.699979856006394E+001	1.3744767E+000	-5.3391734E-005
3	0	5.749979854743287E+001	1.3736829E+000	-5.3391734E-005
3	0	5.799979853480181E+001	1.3729253E+000	4.2035979E-005
3	0	5.849979852217075E+001	1.3721721E+000	3.8648941E-006
3	0	5.899979850953969E+001	1.3714044E+000	-5.3391734E-005
3	0	5.949979849690862E+001	1.3705789E+000	-3.4306191E-005
3	0	5.999979848427756E+001	1.3697714E+000	-3.4306191E-005
3	0	6.049979847164650E+001	1.3690522E+000	-3.4306191E-005
3	0	6.099979845901544E+001	1.3683804E+000	-9.1562819E-005
3	0	6.149979844638438E+001	1.3677044E+000	4.2035979E-005
3	0	6.199979843375331E+001	1.3670425E+000	2.2950437E-005
3	0	6.249979842112225E+001	1.3663976E+000	-7.2477276E-005
3	0	6.299979840849119E+001	1.3657235E+000	2.2950437E-005
3	0	6.349979839586013E+001	1.3649915E+000	-3.4306191E-005
3	0	6.399979838322906E+001	1.3642516E+000	-1.5220648E-005
3	0	6.449979837059800E+001	1.3636037E+000	-3.4306191E-005
3	0	6.499979835796694E+001	1.3629940E+000	-7.2477276E-005
3	0	6.549979834533588E+001	1.3623775E+000	2.2950437E-005
3	0	6.599979833270481E+001	1.3617743E+000	-5.3391734E-005
3	0	6.649979832007375E+001	1.3611779E+000	4.2035979E-005
3	0	6.699979830744269E+001	1.3605711E+000	6.1121522E-005
3	0	6.749979829481163E+001	1.3599013E+000	2.2950437E-005
3	0	6.799979828218056E+001	1.3592298E+000	-1.6790499E-004
3	0	6.849979826954950E+001	1.3586590E+000	-1.5220648E-005
3	0	6.899979825691844E+001	1.3581351E+000	6.1121522E-005
3	0	6.949979824428738E+001	1.3576099E+000	-7.2477276E-005
3	0	6.999979823165631E+001	1.3570851E+000	-1.5220648E-005
3	0	7.049979821902525E+001	1.3565711E+000	-7.2477276E-005
3	0	7.099979820639419E+001	1.3560160E+000	2.2950437E-005
3	0	7.149979819376313E+001	1.3554043E+000	-3.4306191E-005
3	0	7.199979818113206E+001	1.3547939E+000	4.2035979E-005
3	0	7.249979816850100E+001	1.3542717E+000	2.2950437E-005
3	0	7.299979815586994E+001	1.3537706E+000	-1.5220648E-005
3	0	7.349979814323888E+001	1.3532692E+000	-1.4881945E-004
3	0	7.399979813060781E+001	1.3527597E+000	-9.1562819E-005
3	0	7.449979811797675E+001	1.3522638E+000	-1.2973390E-004
3	0	7.499979810534569E+001	1.3517375E+000	-3.4306191E-005
3	0	7.549979809271463E+001	1.3511286E+000	6.1121522E-005
3	0	7.599979808008356E+001	1.3505176E+000	2.2950437E-005
3	0	7.649979806745250E+001	1.3499993E+000	-5.3391734E-005
3	0	7.699979805482144E+001	1.3495004E+000	-1.1064836E-004
3	0	7.749979804219038E+001	1.3489884E+000	-1.1064836E-004
3	0	7.799979802955932E+001	1.3484718E+000	-7.2477276E-005
3	0	7.849979801692825E+001	1.3479567E+000	-1.2973390E-004
3	0	7.899979800429719E+001	1.3474005E+000	2.2950437E-005
3	0	7.949979799166613E+001	1.3467798E+000	-1.5220648E-005
3	0	7.999979797903507E+001	1.3461453E+000	3.8648941E-006
3	0	8.049979796640400E+001	1.3456089E+000	-1.5220648E-005
3	0	8.099979795377294E+001	1.3450896E+000	8.0207064E-005
3	0	8.149979794114188E+001	1.3445632E+000	-1.5220648E-005
3	0	8.199979792851082E+001	1.3440400E+000	-1.4881945E-004
3	0	8.249979791587975E+001	1.3435062E+000	-1.2973390E-004
3	0	8.299979790324869E+001	1.3429339E+000	3.8648941E-006
3	0	8.349979789061763E+001	1.3422801E+000	-1.8699054E-004
3	0	8.399979787798657E+001	1.3416237E+000	-7.2477276E-005
3	0	8.449979786535550E+001	1.3410561E+000	-7.2477276E-005
3	0	8.499979785272444E+001	1.3405128E+000	-5.3391734E-005
3	0	8.549979784009338E+001	1.3399597E+000	-1.1064836E-004
3	0	8.599979782746232E+001	1.3394115E+000	-3.4306191E-005
3	0	8.649979781483125E+001	1.3388637E+000	-1.6790499E-004
3	0	8.699979780220019E+001	1.3382868E+000	-3.4306191E-005
3	0	8.749979778956913E+001	1.3376414E+000	-5.3391734E-005
3	0	8.799979777693807E+001	1.3369994E+000	-1.2973390E-004
3	0	8.849979776430700E+001	1.3364576E+000	-1.5220648E-005
3	0	8.899979775167594E+001	1.3359463E+000	-9.1562819E-005
3	0	8.949979773904488E+001	1.3354398E+000	4.2035979E-005
3	0	8.999979772641382E+001	1.3349252E+000	-7.2477276E-005
3	0	9.000019772640371E+001	1.3346622E+000	-1.6790499E-004