EC-Lab ASCII FILE
Nb header lines : 48                          

Open Circuit Voltage

Run on channel : 1 (SN 81504)
User : 
CE vs. WE compliance from -10 V to 10 V
Electrode connection : standard
Potential control : Ewe
Ewe ctrl range : min = -2.50 V, max = 2.50 V
Safety Limits :
	Do not start on E overload
Acquisition started on : 05/10/2026 00:41:40.044
Loaded Setting File :  C:\PEM-WE_measurements\2026\372_IV_IV IrOx, 5 min Pt, 30 min C, etched cathode\new station\Loopeis new\1,46 V different time gaps closed cell\Loopeis 1,46V_45s_2_PEIS from 65kHz to 10kHz.mps
Saved on :
	File : L_07_Loopeis 1,46V_45s_2_PEIS from 65kHz to 10kHz_06_OCV_C01.mpr
	Directory : C:\PEM-WE_measurements\2026\372_IV_IV IrOx, 5 min Pt, 30 min C, etched cathode\new station\Loopeis new\1,46 V different time gaps closed cell\
	Host : 192.168.0.2
Device : SP-150e (SN .005491)
Address : 192.168.0.91
EC-LAB for windows v11.71 (software)
Internet server v28.00 (firmware)
Command interpretor v14.01 (firmware)
Electrode material : 
Initial state : 
Electrolyte : 
Comments : 
Current amplifier : SP-150eB-20A
Electrode surface area : 0.001 cm²
Characteristic mass : 0.001 g
Equivalent Weight : 0.000 g/eq.
Density : 0.000 g/cm3
Volume (V) : 0.001 cm³
Record Analogic IN 1
Text export
   Mode : Standard
   Time format : Elapsed
Cycle Definition : Charge/Discharge alternance
tR (h:m:s)          0:00:45.0000        
dER/dt (mV/h)       1.0                 
record              <Ewe>               
dER (mV)            10.00               
dtR (s)             0.5000              
E range min (V)     -2.500              
E range max (V)     2.500               

mode	error	time/s	<Ewe/V>	Analog IN 1/V	
3	0	2.262615976136294E+002	1.4205334E+000	-7.2477276E-005
3	0	2.267615976009984E+002	1.4127419E+000	-3.4306191E-005
3	0	2.272615975883673E+002	1.4072456E+000	-5.3391734E-005
3	0	2.277615975757362E+002	1.4031209E+000	-7.2477276E-005
3	0	2.282615975631052E+002	1.3999012E+000	-9.1562819E-005
3	0	2.287615975504741E+002	1.3972446E+000	-7.2477276E-005
3	0	2.292615975378430E+002	1.3949512E+000	-7.2477276E-005
3	0	2.297615975252120E+002	1.3929484E+000	-7.2477276E-005
3	0	2.302615975125809E+002	1.3911496E+000	-3.4306191E-005
3	0	2.307615974999499E+002	1.3894941E+000	-5.3391734E-005
3	0	2.312615974873188E+002	1.3878952E+000	-5.3391734E-005
3	0	2.317615974746877E+002	1.3863784E+000	3.8648941E-006
3	0	2.322615974620567E+002	1.3850409E+000	3.8648941E-006
3	0	2.327615974494256E+002	1.3838165E+000	-3.4306191E-005
3	0	2.332615974367945E+002	1.3826491E+000	-7.2477276E-005
3	0	2.337615974241635E+002	1.3815572E+000	-3.4306191E-005
3	0	2.342615974115324E+002	1.3805177E+000	-5.3391734E-005
3	0	2.347615973989014E+002	1.3794974E+000	-7.2477276E-005
3	0	2.352615973862703E+002	1.3784462E+000	-1.5220648E-005
3	0	2.357615973736392E+002	1.3774185E+000	-5.3391734E-005
3	0	2.362615973610082E+002	1.3765125E+000	3.8648941E-006
3	0	2.367615973483771E+002	1.3756621E+000	3.8648941E-006
3	0	2.372615973357460E+002	1.3748338E+000	-7.2477276E-005
3	0	2.377615973231150E+002	1.3740436E+000	-1.1064836E-004
3	0	2.382615973104839E+002	1.3732876E+000	3.8648941E-006
3	0	2.387615972978529E+002	1.3725015E+000	-5.3391734E-005
3	0	2.392615972852218E+002	1.3716714E+000	-7.2477276E-005
3	0	2.397615972725907E+002	1.3708504E+000	3.8648941E-006
3	0	2.402615972599597E+002	1.3701340E+000	3.8648941E-006
3	0	2.407615972473286E+002	1.3694583E+000	3.8648941E-006
3	0	2.412615972346975E+002	1.3687811E+000	-3.4306191E-005
3	0	2.417615972220665E+002	1.3681431E+000	9.9292607E-005
3	0	2.422615972094354E+002	1.3675108E+000	-1.5220648E-005
3	0	2.427615971968044E+002	1.3668544E+000	-1.5220648E-005
3	0	2.432615971841733E+002	1.3661449E+000	-1.5220648E-005
3	0	2.437615971715422E+002	1.3654264E+000	-7.2477276E-005
3	0	2.442615971589112E+002	1.3648074E+000	-3.4306191E-005
3	0	2.447615971462801E+002	1.3642074E+000	-1.5220648E-005
3	0	2.452615971336490E+002	1.3636062E+000	-9.1562819E-005
3	0	2.457615971210180E+002	1.3630228E+000	8.0207064E-005
3	0	2.462615971083869E+002	1.3624386E+000	-1.4881945E-004
3	0	2.467615970957559E+002	1.3618398E+000	-5.3391734E-005
3	0	2.472615970831248E+002	1.3611740E+000	-1.5220648E-005
3	0	2.477615970704937E+002	1.3605189E+000	-5.3391734E-005
3	0	2.482615970578627E+002	1.3599581E+000	6.1121522E-005
3	0	2.487615970452316E+002	1.3594358E+000	2.2950437E-005
3	0	2.492615970326005E+002	1.3589193E+000	-3.4306191E-005
3	0	2.497615970199695E+002	1.3584155E+000	-1.4881945E-004
3	0	2.502615970073384E+002	1.3579242E+000	6.1121522E-005
3	0	2.507615969947074E+002	1.3574030E+000	-7.2477276E-005
3	0	2.512615969820763E+002	1.3568196E+000	-9.1562819E-005
3	0	2.517615969694452E+002	1.3562334E+000	2.2950437E-005
3	0	2.522615969568142E+002	1.3557370E+000	-2.0607607E-004
3	0	2.527615969441831E+002	1.3552744E+000	-1.1064836E-004
3	0	2.532615969315520E+002	1.3548044E+000	8.0207064E-005
3	0	2.537615969189210E+002	1.3543375E+000	-1.5220648E-005
3	0	2.542615969062899E+002	1.3538764E+000	2.2950437E-005
3	0	2.547615968936589E+002	1.3533890E+000	-7.2477276E-005
3	0	2.552615968810278E+002	1.3528186E+000	-5.3391734E-005
3	0	2.557615968683967E+002	1.3522490E+000	-1.5220648E-005
3	0	2.562615968557657E+002	1.3517648E+000	-7.2477276E-005
3	0	2.567615968431346E+002	1.3512918E+000	-7.2477276E-005
3	0	2.572615968305035E+002	1.3508147E+000	-1.5220648E-005
3	0	2.577615968178725E+002	1.3503401E+000	-3.4306191E-005
3	0	2.582615968052414E+002	1.3498713E+000	-3.4306191E-005
3	0	2.587615967926104E+002	1.3493518E+000	-9.1562819E-005
3	0	2.592615967799793E+002	1.3487682E+000	1.1837815E-004
3	0	2.597615967673482E+002	1.3481771E+000	-5.3391734E-005
3	0	2.602615967547172E+002	1.3476578E+000	-1.5220648E-005
3	0	2.607615967420861E+002	1.3471673E+000	-5.3391734E-005
3	0	2.612615967294551E+002	1.3466731E+000	-5.3391734E-005
3	0	2.617615967168240E+002	1.3461723E+000	-7.2477276E-005
3	0	2.622615967041929E+002	1.3456843E+000	-7.2477276E-005
3	0	2.627615966915619E+002	1.3451625E+000	2.2950437E-005
3	0	2.632615966789308E+002	1.3445535E+000	3.8648941E-006
3	0	2.637615966662997E+002	1.3439437E+000	-1.4881945E-004
3	0	2.642615966536687E+002	1.3434068E+000	-7.2477276E-005
3	0	2.647615966410376E+002	1.3428925E+000	8.0207064E-005
3	0	2.652615966284066E+002	1.3423698E+000	6.1121522E-005
3	0	2.657615966157755E+002	1.3418560E+000	-1.5220648E-005
3	0	2.662615966031444E+002	1.3413408E+000	-7.2477276E-005
3	0	2.667615965905134E+002	1.3407851E+000	-9.1562819E-005
3	0	2.672615965778823E+002	1.3401662E+000	3.8648941E-006
3	0	2.677615965652512E+002	1.3395594E+000	-7.2477276E-005
3	0	2.682615965526202E+002	1.3390434E+000	-5.3391734E-005
3	0	2.687615965399891E+002	1.3385531E+000	-1.5220648E-005
3	0	2.692615965273581E+002	1.3380597E+000	-1.6790499E-004
3	0	2.697615965147270E+002	1.3375803E+000	1.1837815E-004
3	0	2.702615965020959E+002	1.3371007E+000	-7.2477276E-005
3	0	2.707615964894649E+002	1.3366016E+000	9.9292607E-005
3	0	2.707619964894548E+002	1.3363893E+000	-5.3391734E-005