EC-Lab ASCII FILE
Nb header lines : 48                          

Open Circuit Voltage

Run on channel : 1 (SN 81504)
User : 
CE vs. WE compliance from -10 V to 10 V
Electrode connection : standard
Potential control : Ewe
Ewe ctrl range : min = -2.50 V, max = 2.50 V
Safety Limits :
	Do not start on E overload
Acquisition started on : 05/10/2026 00:41:40.044
Loaded Setting File :  C:\PEM-WE_measurements\2026\372_IV_IV IrOx, 5 min Pt, 30 min C, etched cathode\new station\Loopeis new\1,46 V different time gaps closed cell\Loopeis 1,46V_45s_2_PEIS from 65kHz to 10kHz.mps
Saved on :
	File : L_07_Loopeis 1,46V_45s_2_PEIS from 65kHz to 10kHz_10_OCV_C01.mpr
	Directory : C:\PEM-WE_measurements\2026\372_IV_IV IrOx, 5 min Pt, 30 min C, etched cathode\new station\Loopeis new\1,46 V different time gaps closed cell\
	Host : 192.168.0.2
Device : SP-150e (SN .005491)
Address : 192.168.0.91
EC-LAB for windows v11.71 (software)
Internet server v28.00 (firmware)
Command interpretor v14.01 (firmware)
Electrode material : 
Initial state : 
Electrolyte : 
Comments : 
Current amplifier : SP-150eB-20A
Electrode surface area : 0.001 cm²
Characteristic mass : 0.001 g
Equivalent Weight : 0.000 g/eq.
Density : 0.000 g/cm3
Volume (V) : 0.001 cm³
Record Analogic IN 1
Text export
   Mode : Standard
   Time format : Elapsed
Cycle Definition : Charge/Discharge alternance
tR (h:m:s)          0:00:45.0000        
dER/dt (mV/h)       1.0                 
record              <Ewe>               
dER (mV)            10.00               
dtR (s)             0.5000              
E range min (V)     -2.500              
E range max (V)     2.500               

mode	error	time/s	<Ewe/V>	Analog IN 1/V	
3	0	4.068513963685109E+002	1.4202375E+000	-7.2477276E-005
3	0	4.073513963558798E+002	1.4122062E+000	-3.4306191E-005
3	0	4.078513963432488E+002	1.4067024E+000	-1.4881945E-004
3	0	4.083513963306177E+002	1.4026875E+000	-7.2477276E-005
3	0	4.088513963179867E+002	1.3995038E+000	3.8648941E-006
3	0	4.093513963053556E+002	1.3968495E+000	-9.1562819E-005
3	0	4.098513962927245E+002	1.3945744E+000	-1.5220648E-005
3	0	4.103513962800935E+002	1.3925636E+000	3.8648941E-006
3	0	4.108513962674624E+002	1.3906862E+000	-1.1064836E-004
3	0	4.113513962548313E+002	1.3889122E+000	6.1121522E-005
3	0	4.118513962422003E+002	1.3873320E+000	-1.5220648E-005
3	0	4.123513962295692E+002	1.3859048E+000	-1.5220648E-005
3	0	4.128513962169382E+002	1.3845910E+000	2.2950437E-005
3	0	4.133513962043071E+002	1.3833637E+000	-5.3391734E-005
3	0	4.138513961916760E+002	1.3822105E+000	6.1121522E-005
3	0	4.143513961790450E+002	1.3811003E+000	9.9292607E-005
3	0	4.148513961664139E+002	1.3799921E+000	-1.1064836E-004
3	0	4.153513961537828E+002	1.3788704E+000	-7.2477276E-005
3	0	4.158513961411518E+002	1.3778493E+000	6.1121522E-005
3	0	4.163513961285207E+002	1.3769151E+000	-7.2477276E-005
3	0	4.168513961158897E+002	1.3760343E+000	-7.2477276E-005
3	0	4.173513961032586E+002	1.3751861E+000	-1.4881945E-004
3	0	4.178513960906275E+002	1.3743845E+000	-1.6790499E-004
3	0	4.183513960779965E+002	1.3735781E+000	-9.1562819E-005
3	0	4.188513960653654E+002	1.3727410E+000	-1.1064836E-004
3	0	4.193513960527343E+002	1.3718675E+000	-1.1064836E-004
3	0	4.198513960401033E+002	1.3710823E+000	2.2950437E-005
3	0	4.203513960274722E+002	1.3703582E+000	3.8648941E-006
3	0	4.208513960148412E+002	1.3696661E+000	-5.3391734E-005
3	0	4.213513960022101E+002	1.3689829E+000	-1.5220648E-005
3	0	4.218513959895790E+002	1.3683397E+000	-5.3391734E-005
3	0	4.223513959769480E+002	1.3676856E+000	-1.5220648E-005
3	0	4.228513959643169E+002	1.3669754E+000	-7.2477276E-005
3	0	4.233513959516858E+002	1.3662277E+000	-1.2973390E-004
3	0	4.238513959390548E+002	1.3655651E+000	-7.2477276E-005
3	0	4.243513959264237E+002	1.3649557E+000	-5.3391734E-005
3	0	4.248513959137927E+002	1.3643596E+000	-1.4881945E-004
3	0	4.253513959011616E+002	1.3637691E+000	-9.1562819E-005
3	0	4.258513958885305E+002	1.3631961E+000	-7.2477276E-005
3	0	4.263513958758995E+002	1.3626053E+000	-7.2477276E-005
3	0	4.268513958632684E+002	1.3619682E+000	-1.5220648E-005
3	0	4.273513958506373E+002	1.3612822E+000	-7.2477276E-005
3	0	4.278513958380063E+002	1.3606859E+000	9.9292607E-005
3	0	4.283513958253752E+002	1.3601480E+000	6.1121522E-005
3	0	4.288513958127442E+002	1.3596255E+000	-3.4306191E-005
3	0	4.293513958001131E+002	1.3591222E+000	-1.5220648E-005
3	0	4.298513957874820E+002	1.3586321E+000	-5.3391734E-005
3	0	4.303513957748510E+002	1.3581322E+000	-9.1562819E-005
3	0	4.308513957622199E+002	1.3575761E+000	-1.5220648E-005
3	0	4.313513957495888E+002	1.3569840E+000	3.8648941E-006
3	0	4.318513957369578E+002	1.3564696E+000	-1.4881945E-004
3	0	4.323513957243267E+002	1.3559978E+000	3.8648941E-006
3	0	4.328513957116957E+002	1.3555421E+000	-1.5220648E-005
3	0	4.333513956990646E+002	1.3551006E+000	6.1121522E-005
3	0	4.338513956864335E+002	1.3546599E+000	4.2035979E-005
3	0	4.343513956738025E+002	1.3542100E+000	-1.2973390E-004
3	0	4.348513956611714E+002	1.3536915E+000	2.2950437E-005
3	0	4.353513956485403E+002	1.3531224E+000	2.2950437E-005
3	0	4.358513956359093E+002	1.3526247E+000	-3.4306191E-005
3	0	4.363513956232782E+002	1.3521664E+000	4.2035979E-005
3	0	4.368513956106472E+002	1.3517163E+000	4.2035979E-005
3	0	4.373513955980161E+002	1.3512677E+000	-1.5220648E-005
3	0	4.378513955853850E+002	1.3508266E+000	4.2035979E-005
3	0	4.383513955727540E+002	1.3503634E+000	2.2950437E-005
3	0	4.388513955601229E+002	1.3498422E+000	-3.4306191E-005
3	0	4.393513955474918E+002	1.3492663E+000	-5.3391734E-005
3	0	4.398513955348608E+002	1.3487560E+000	3.8648941E-006
3	0	4.403513955222297E+002	1.3482895E+000	-1.1064836E-004
3	0	4.408513955095987E+002	1.3478310E+000	6.1121522E-005
3	0	4.413513954969676E+002	1.3473746E+000	-1.2973390E-004
3	0	4.418513954843365E+002	1.3469170E+000	3.8648941E-006
3	0	4.423513954717055E+002	1.3464292E+000	4.2035979E-005
3	0	4.428513954590744E+002	1.3458869E+000	-1.1064836E-004
3	0	4.433513954464433E+002	1.3452908E+000	6.1121522E-005
3	0	4.438513954338123E+002	1.3447620E+000	-1.8699054E-004
3	0	4.443513954211812E+002	1.3442721E+000	-1.5220648E-005
3	0	4.448513954085502E+002	1.3437847E+000	-1.4881945E-004
3	0	4.453513953959191E+002	1.3432919E+000	-1.2973390E-004
3	0	4.458513953832880E+002	1.3428085E+000	2.2950437E-005
3	0	4.463513953706570E+002	1.3423001E+000	-5.3391734E-005
3	0	4.468513953580259E+002	1.3417338E+000	-7.2477276E-005
3	0	4.473513953453948E+002	1.3411114E+000	3.8648941E-006
3	0	4.478513953327638E+002	1.3405690E+000	-1.5220648E-005
3	0	4.483513953201327E+002	1.3400633E+000	-3.4306191E-005
3	0	4.488513953075017E+002	1.3395814E+000	-5.3391734E-005
3	0	4.493513952948706E+002	1.3391097E+000	-7.2477276E-005
3	0	4.498513952822395E+002	1.3386413E+000	-1.5220648E-005
3	0	4.503513952696085E+002	1.3381615E+000	-5.3391734E-005
3	0	4.508513952569774E+002	1.3376223E+000	-3.4306191E-005
3	0	4.513513952443464E+002	1.3370414E+000	3.8648941E-006
3	0	4.513517952443362E+002	1.3367804E+000	2.2950437E-005