EC-Lab ASCII FILE
Nb header lines : 48                          

Open Circuit Voltage

Run on channel : 1 (SN 81504)
User : 
CE vs. WE compliance from -10 V to 10 V
Electrode connection : standard
Potential control : Ewe
Ewe ctrl range : min = -2.50 V, max = 2.50 V
Safety Limits :
	Do not start on E overload
Acquisition started on : 05/10/2026 00:41:40.044
Loaded Setting File :  C:\PEM-WE_measurements\2026\372_IV_IV IrOx, 5 min Pt, 30 min C, etched cathode\new station\Loopeis new\1,46 V different time gaps closed cell\Loopeis 1,46V_45s_2_PEIS from 65kHz to 10kHz.mps
Saved on :
	File : L_07_Loopeis 1,46V_45s_2_PEIS from 65kHz to 10kHz_04_OCV_C01.mpr
	Directory : C:\PEM-WE_measurements\2026\372_IV_IV IrOx, 5 min Pt, 30 min C, etched cathode\new station\Loopeis new\1,46 V different time gaps closed cell\
	Host : 192.168.0.2
Device : SP-150e (SN .005491)
Address : 192.168.0.91
EC-LAB for windows v11.71 (software)
Internet server v28.00 (firmware)
Command interpretor v14.01 (firmware)
Electrode material : 
Initial state : 
Electrolyte : 
Comments : 
Current amplifier : SP-150eB-20A
Electrode surface area : 0.001 cm²
Characteristic mass : 0.001 g
Equivalent Weight : 0.000 g/eq.
Density : 0.000 g/cm3
Volume (V) : 0.001 cm³
Record Analogic IN 1
Text export
   Mode : Standard
   Time format : Elapsed
Cycle Definition : Charge/Discharge alternance
tR (h:m:s)          0:00:45.0000        
dER/dt (mV/h)       1.0                 
record              <Ewe>               
dER (mV)            10.00               
dtR (s)             0.5000              
E range min (V)     -2.500              
E range max (V)     2.500               

mode	error	time/s	<Ewe/V>	Analog IN 1/V	
3	0	1.362253998881351E+002	1.2156110E+000	-1.6790499E-004
3	0	1.367253998755041E+002	1.2520474E+000	-7.2477276E-005
3	0	1.372253998628730E+002	1.2566553E+000	-7.2477276E-005
3	0	1.377253998502420E+002	1.2594690E+000	-1.4881945E-004
3	0	1.382253998376109E+002	1.2614506E+000	-9.1562819E-005
3	0	1.387253998249798E+002	1.2629077E+000	-1.5220648E-005
3	0	1.392253998123488E+002	1.2639860E+000	-5.3391734E-005
3	0	1.397253997997177E+002	1.2648212E+000	-1.1064836E-004
3	0	1.402253997870866E+002	1.2655511E+000	-1.5220648E-005
3	0	1.407253997744556E+002	1.2661616E+000	-1.1064836E-004
3	0	1.412253997618245E+002	1.2666483E+000	-7.2477276E-005
3	0	1.417253997491935E+002	1.2670428E+000	4.2035979E-005
3	0	1.422253997365624E+002	1.2673610E+000	-9.1562819E-005
3	0	1.427253997239313E+002	1.2675823E+000	-1.5220648E-005
3	0	1.432253997113003E+002	1.2676846E+000	-1.6790499E-004
3	0	1.437253996986692E+002	1.2677238E+000	-1.1064836E-004
3	0	1.442253996860381E+002	1.2678044E+000	-1.6790499E-004
3	0	1.447253996734071E+002	1.2678704E+000	-7.2477276E-005
3	0	1.452253996607760E+002	1.2678934E+000	-7.2477276E-005
3	0	1.457253996481450E+002	1.2678941E+000	-1.5220648E-005
3	0	1.462253996355139E+002	1.2678825E+000	-1.5220648E-005
3	0	1.467253996228828E+002	1.2678150E+000	-3.4306191E-005
3	0	1.472253996102518E+002	1.2676742E+000	-7.2477276E-005
3	0	1.477253995976207E+002	1.2675017E+000	-1.4881945E-004
3	0	1.482253995849896E+002	1.2674075E+000	9.9292607E-005
3	0	1.487253995723586E+002	1.2673306E+000	-1.2973390E-004
3	0	1.492253995597275E+002	1.2672379E+000	-5.3391734E-005
3	0	1.497253995470965E+002	1.2671416E+000	-1.5220648E-005
3	0	1.502253995344654E+002	1.2670327E+000	-1.5220648E-005
3	0	1.507253995218343E+002	1.2668949E+000	3.8648941E-006
3	0	1.512253995092033E+002	1.2666813E+000	-9.1562819E-005
3	0	1.517253994965722E+002	1.2664437E+000	2.2950437E-005
3	0	1.522253994839411E+002	1.2662927E+000	6.1121522E-005
3	0	1.527253994713101E+002	1.2661631E+000	-1.8699054E-004
3	0	1.532253994586790E+002	1.2660191E+000	-7.2477276E-005
3	0	1.537253994460480E+002	1.2658707E+000	3.8648941E-006
3	0	1.542253994334169E+002	1.2657088E+000	-1.4881945E-004
3	0	1.547253994207858E+002	1.2655101E+000	-9.1562819E-005
3	0	1.552253994081548E+002	1.2652291E+000	-7.2477276E-005
3	0	1.557253993955237E+002	1.2649294E+000	9.9292607E-005
3	0	1.562253993828926E+002	1.2647052E+000	-7.2477276E-005
3	0	1.567253993702616E+002	1.2645036E+000	8.0207064E-005
3	0	1.572253993576305E+002	1.2642872E+000	-2.0607607E-004
3	0	1.577253993449995E+002	1.2640662E+000	-9.1562819E-005
3	0	1.582253993323684E+002	1.2638341E+000	-1.5220648E-005
3	0	1.587253993197373E+002	1.2635747E+000	8.0207064E-005
3	0	1.592253993071063E+002	1.2632310E+000	3.8648941E-006
3	0	1.597253992944752E+002	1.2628587E+000	-1.6790499E-004
3	0	1.602253992818441E+002	1.2625669E+000	-9.1562819E-005
3	0	1.607253992692131E+002	1.2623004E+000	-9.1562819E-005
3	0	1.612253992565820E+002	1.2620139E+000	-5.3391734E-005
3	0	1.617253992439510E+002	1.2617286E+000	-9.1562819E-005
3	0	1.622253992313199E+002	1.2614323E+000	6.1121522E-005
3	0	1.627253992186888E+002	1.2611120E+000	2.2950437E-005
3	0	1.632253992060578E+002	1.2607074E+000	2.2950437E-005
3	0	1.637253991934267E+002	1.2602659E+000	-5.3391734E-005
3	0	1.642253991807956E+002	1.2599123E+000	6.1121522E-005
3	0	1.647253991681646E+002	1.2595875E+000	-7.2477276E-005
3	0	1.652253991555335E+002	1.2592555E+000	-7.2477276E-005
3	0	1.657253991429025E+002	1.2589136E+000	-9.1562819E-005
3	0	1.662253991302714E+002	1.2585787E+000	2.2950437E-005
3	0	1.667253991176403E+002	1.2582079E+000	-1.1064836E-004
3	0	1.672253991050093E+002	1.2577679E+000	-1.2973390E-004
3	0	1.677253990923782E+002	1.2573142E+000	-1.2973390E-004
3	0	1.682253990797471E+002	1.2569529E+000	-7.2477276E-005
3	0	1.687253990671161E+002	1.2566284E+000	-1.6790499E-004
3	0	1.692253990544850E+002	1.2562990E+000	4.2035979E-005
3	0	1.697253990418540E+002	1.2559750E+000	-1.2973390E-004
3	0	1.702253990292229E+002	1.2556630E+000	4.2035979E-005
3	0	1.707253990165918E+002	1.2553103E+000	-1.6790499E-004
3	0	1.712253990039608E+002	1.2548869E+000	-5.3391734E-005
3	0	1.717253989913297E+002	1.2544435E+000	8.0207064E-005
3	0	1.722253989786986E+002	1.2540948E+000	-3.4306191E-005
3	0	1.727253989660676E+002	1.2537622E+000	-1.2973390E-004
3	0	1.732253989534365E+002	1.2534254E+000	6.1121522E-005
3	0	1.737253989408055E+002	1.2530857E+000	2.2950437E-005
3	0	1.742253989281744E+002	1.2527324E+000	8.0207064E-005
3	0	1.747253989155433E+002	1.2523477E+000	-1.5220648E-005
3	0	1.752253989029123E+002	1.2519033E+000	-2.2516162E-004
3	0	1.757253988902812E+002	1.2514281E+000	-1.2973390E-004
3	0	1.762253988776502E+002	1.2510300E+000	-3.4306191E-005
3	0	1.767253988650191E+002	1.2506627E+000	-1.5220648E-005
3	0	1.772253988523880E+002	1.2502853E+000	-1.1064836E-004
3	0	1.777253988397570E+002	1.2498988E+000	-3.4306191E-005
3	0	1.782253988271259E+002	1.2495131E+000	-1.2973390E-004
3	0	1.787253988144948E+002	1.2490903E+000	3.8648941E-006
3	0	1.792253988018638E+002	1.2485884E+000	2.2950437E-005
3	0	1.797253987892327E+002	1.2480572E+000	-1.2973390E-004
3	0	1.802253987766017E+002	1.2476200E+000	3.8648941E-006
3	0	1.807253987639706E+002	1.2471966E+000	6.1121522E-005
3	0	1.807609987630713E+002	1.2469666E+000	2.2950437E-005