EC-Lab ASCII FILE
Nb header lines : 55                          

Open Circuit Voltage

Run on channel : 1 (SN 81504)
User : 
CE vs. WE compliance from -10 V to 10 V
Electrode connection : standard
Potential control : Ewe
Ewe ctrl range : min = -2.50 V, max = 2.50 V
Safety Limits :
	Do not start on E overload
Acquisition started on : 05/10/2026 00:56:49.563
Loaded Setting File :  C:\PEM-WE_measurements\2026\372_IV_IV IrOx, 5 min Pt, 30 min C, etched cathode\new station\Loopeis new\1,46 V different time gaps closed cell\Loopeis 1,46V_45s_3_PEIS from 6500Hz to 1000Hz.mps
Saved on :
	File : L_08_Loopeis 1,46V_45s_3_PEIS from 6500Hz to 1000Hz_06_OCV_C01.mpr
	Directory : C:\PEM-WE_measurements\2026\372_IV_IV IrOx, 5 min Pt, 30 min C, etched cathode\new station\Loopeis new\1,46 V different time gaps closed cell\
	Host : 192.168.0.2
Device : SP-150e (SN .005491)
Address : 192.168.0.91
EC-LAB for windows v11.71 (software)
Internet server v28.00 (firmware)
Command interpretor v14.01 (firmware)
Electrode material : 
Initial state : 
Electrolyte : 
Comments : 
Current amplifier : SP-150eB-20A
Electrode surface area : 0.001 cm²
Characteristic mass : 0.001 g
Equivalent Weight : 0.000 g/eq.
Density : 0.000 g/cm3
Volume (V) : 0.001 cm³
Record Analogic IN 1
Text export
   Mode : Standard
   Time format : Elapsed
Cycle Definition : Charge/Discharge alternance
External device configuration :
   device type : Temperature Probe
   device name : Other
   Analog IN 1 : 
      unit : T/Â°C
      max : 100.000 at 2.000 V
      min : 0.000 at 1.460 V
tR (h:m:s)          0:00:45.0000        
dER/dt (mV/h)       1.0                 
record              <Ewe>               
dER (mV)            10.00               
dtR (s)             0.5000              
E range min (V)     -2.500              
E range max (V)     2.500               

mode	error	time/s	<Ewe/V>	Analog IN 1/V	
3	0	2.257175975877908E+002	1.4192239E+000	-2.7035913E+002
3	0	2.262175975751597E+002	1.4109499E+000	-2.7035913E+002
3	0	2.267175975625287E+002	1.4054168E+000	-2.7037677E+002
3	0	2.272175975498976E+002	1.4013648E+000	-2.7035205E+002
3	0	2.277175975372666E+002	1.3981673E+000	-2.7038385E+002
3	0	2.282175975246355E+002	1.3955102E+000	-2.7036972E+002
3	0	2.287175975120044E+002	1.3932244E+000	-2.7038031E+002
3	0	2.292175974993734E+002	1.3911499E+000	-2.7038031E+002
3	0	2.297175974867423E+002	1.3892120E+000	-2.7036618E+002
3	0	2.302175974741112E+002	1.3874437E+000	-2.7035913E+002
3	0	2.307175974614802E+002	1.3858812E+000	-2.7037326E+002
3	0	2.312175974488491E+002	1.3844361E+000	-2.7038031E+002
3	0	2.317175974362181E+002	1.3830929E+000	-2.7038385E+002
3	0	2.322175974235870E+002	1.3818440E+000	-2.7039447E+002
3	0	2.327175974109559E+002	1.3806702E+000	-2.7036972E+002
3	0	2.332175973983249E+002	1.3795147E+000	-2.7038385E+002
3	0	2.337175973856938E+002	1.3783457E+000	-2.7036267E+002
3	0	2.342175973730627E+002	1.3772359E+000	-2.7037326E+002
3	0	2.347175973604317E+002	1.3762580E+000	-2.7038031E+002
3	0	2.352175973478006E+002	1.3753097E+000	-2.7038742E+002
3	0	2.357175973351696E+002	1.3744255E+000	-2.7038385E+002
3	0	2.362175973225385E+002	1.3735712E+000	-2.7035913E+002
3	0	2.367175973099074E+002	1.3727458E+000	-2.7039801E+002
3	0	2.372175972972764E+002	1.3719034E+000	-2.7039801E+002
3	0	2.377175972846453E+002	1.3710237E+000	-2.7038031E+002
3	0	2.382175972720142E+002	1.3701872E+000	-2.7037326E+002
3	0	2.387175972593832E+002	1.3694530E+000	-2.7037677E+002
3	0	2.392175972467521E+002	1.3687241E+000	-2.7037326E+002
3	0	2.397175972341211E+002	1.3680449E+000	-2.7038031E+002
3	0	2.402175972214900E+002	1.3673755E+000	-2.7034851E+002
3	0	2.407175972088589E+002	1.3667196E+000	-2.7040860E+002
3	0	2.412175971962279E+002	1.3660326E+000	-2.7037677E+002
3	0	2.417175971835968E+002	1.3652943E+000	-2.7038385E+002
3	0	2.422175971709657E+002	1.3645924E+000	-2.7036972E+002
3	0	2.427175971583347E+002	1.3639756E+000	-2.7037677E+002
3	0	2.432175971457036E+002	1.3633654E+000	-2.7038385E+002
3	0	2.437175971330726E+002	1.3627803E+000	-2.7036618E+002
3	0	2.442175971204415E+002	1.3622165E+000	-2.7035913E+002
3	0	2.447175971078104E+002	1.3616880E+000	-2.7037326E+002
3	0	2.452175970951794E+002	1.3611248E+000	-2.7039093E+002
3	0	2.457175970825483E+002	1.3605107E+000	-2.7036618E+002
3	0	2.462175970699172E+002	1.3599306E+000	-2.7037677E+002
3	0	2.467175970572862E+002	1.3594428E+000	-2.7041214E+002
3	0	2.472175970446551E+002	1.3589571E+000	-2.7038031E+002
3	0	2.477175970320241E+002	1.3584948E+000	-2.7038742E+002
3	0	2.482175970193930E+002	1.3580506E+000	-2.7037677E+002
3	0	2.487175970067619E+002	1.3576061E+000	-2.7037677E+002
3	0	2.492175969941309E+002	1.3571224E+000	-2.7038742E+002
3	0	2.497175969814998E+002	1.3565838E+000	-2.7036267E+002
3	0	2.502175969688687E+002	1.3560694E+000	-2.7038385E+002
3	0	2.507175969562377E+002	1.3556380E+000	-2.7038385E+002
3	0	2.512175969436066E+002	1.3552057E+000	-2.7036972E+002
3	0	2.517175969309756E+002	1.3547869E+000	-2.7038385E+002
3	0	2.522175969183445E+002	1.3543776E+000	-2.7038385E+002
3	0	2.527175969057134E+002	1.3539616E+000	-2.7037326E+002
3	0	2.532175968930824E+002	1.3535045E+000	-2.7037677E+002
3	0	2.537175968804513E+002	1.3529704E+000	-2.7037677E+002
3	0	2.542175968678202E+002	1.3524681E+000	-2.7038742E+002
3	0	2.547175968551892E+002	1.3520426E+000	-2.7034143E+002
3	0	2.552175968425581E+002	1.3515973E+000	-2.7035913E+002
3	0	2.557175968299271E+002	1.3511645E+000	-2.7038385E+002
3	0	2.562175968172960E+002	1.3507445E+000	-2.7037677E+002
3	0	2.567175968046649E+002	1.3503290E+000	-2.7036618E+002
3	0	2.572175967920339E+002	1.3498678E+000	-2.7038742E+002
3	0	2.577175967794028E+002	1.3493294E+000	-2.7035205E+002
3	0	2.582175967667717E+002	1.3488055E+000	-2.7036972E+002
3	0	2.587175967541407E+002	1.3483621E+000	-2.7038031E+002
3	0	2.592175967415096E+002	1.3479074E+000	-2.7038385E+002
3	0	2.597175967288786E+002	1.3474599E+000	-2.7036618E+002
3	0	2.602175967162475E+002	1.3470293E+000	-2.7038031E+002
3	0	2.607175967036164E+002	1.3465773E+000	-2.7039447E+002
3	0	2.612175966909854E+002	1.3460798E+000	-2.7037326E+002
3	0	2.617175966783543E+002	1.3455247E+000	-2.7039093E+002
3	0	2.622175966657232E+002	1.3449786E+000	-2.7039093E+002
3	0	2.627175966530922E+002	1.3445095E+000	-2.7039093E+002
3	0	2.632175966404611E+002	1.3440419E+000	-2.7039447E+002
3	0	2.637175966278301E+002	1.3435942E+000	-2.7038385E+002
3	0	2.642175966151990E+002	1.3431587E+000	-2.7037677E+002
3	0	2.647175966025679E+002	1.3427225E+000	-2.7038742E+002
3	0	2.652175965899369E+002	1.3422480E+000	-2.7039447E+002
3	0	2.657175965773058E+002	1.3417182E+000	-2.7037677E+002
3	0	2.662175965646748E+002	1.3412209E+000	-2.7036972E+002
3	0	2.667175965520437E+002	1.3408098E+000	-2.7037326E+002
3	0	2.672175965394126E+002	1.3403798E+000	-2.7038385E+002
3	0	2.677175965267816E+002	1.3399704E+000	-2.7039093E+002
3	0	2.682175965141505E+002	1.3395751E+000	-2.7035559E+002
3	0	2.687175965015194E+002	1.3391789E+000	-2.7038031E+002
3	0	2.692175964888884E+002	1.3387443E+000	-2.7038742E+002
3	0	2.697175964762573E+002	1.3382388E+000	-2.7038385E+002
3	0	2.702175964636263E+002	1.3377571E+000	-2.7035205E+002
3	0	2.702179964636161E+002	1.3375820E+000	-2.7040155E+002