EC-Lab ASCII FILE
Nb header lines : 55                          

Open Circuit Voltage

Run on channel : 1 (SN 81504)
User : 
CE vs. WE compliance from -10 V to 10 V
Electrode connection : standard
Potential control : Ewe
Ewe ctrl range : min = -2.50 V, max = 2.50 V
Safety Limits :
	Do not start on E overload
Acquisition started on : 05/10/2026 00:56:49.563
Loaded Setting File :  C:\PEM-WE_measurements\2026\372_IV_IV IrOx, 5 min Pt, 30 min C, etched cathode\new station\Loopeis new\1,46 V different time gaps closed cell\Loopeis 1,46V_45s_3_PEIS from 6500Hz to 1000Hz.mps
Saved on :
	File : L_08_Loopeis 1,46V_45s_3_PEIS from 6500Hz to 1000Hz_16_OCV_C01.mpr
	Directory : C:\PEM-WE_measurements\2026\372_IV_IV IrOx, 5 min Pt, 30 min C, etched cathode\new station\Loopeis new\1,46 V different time gaps closed cell\
	Host : 192.168.0.2
Device : SP-150e (SN .005491)
Address : 192.168.0.91
EC-LAB for windows v11.71 (software)
Internet server v28.00 (firmware)
Command interpretor v14.01 (firmware)
Electrode material : 
Initial state : 
Electrolyte : 
Comments : 
Current amplifier : SP-150eB-20A
Electrode surface area : 0.001 cm²
Characteristic mass : 0.001 g
Equivalent Weight : 0.000 g/eq.
Density : 0.000 g/cm3
Volume (V) : 0.001 cm³
Record Analogic IN 1
Text export
   Mode : Standard
   Time format : Elapsed
Cycle Definition : Charge/Discharge alternance
External device configuration :
   device type : Temperature Probe
   device name : Other
   Analog IN 1 : 
      unit : T/Â°C
      max : 100.000 at 2.000 V
      min : 0.000 at 1.460 V
tR (h:m:s)          0:00:45.0000        
dER/dt (mV/h)       1.0                 
record              <Ewe>               
dER (mV)            10.00               
dtR (s)             0.5000              
E range min (V)     -2.500              
E range max (V)     2.500               

mode	error	time/s	<Ewe/V>	Analog IN 1/V	
3	0	6.819287963388342E+002	1.2072805E+000	-2.7038385E+002
3	0	6.824287963262032E+002	1.2547328E+000	-2.7038385E+002
3	0	6.829287963135721E+002	1.2590767E+000	-2.7039093E+002
3	0	6.834287963009410E+002	1.2617158E+000	-2.7038385E+002
3	0	6.839287962883100E+002	1.2635498E+000	-2.7039801E+002
3	0	6.844287962756789E+002	1.2648891E+000	-2.7036618E+002
3	0	6.849287962630478E+002	1.2658620E+000	-2.7038031E+002
3	0	6.854287962504168E+002	1.2665851E+000	-2.7038742E+002
3	0	6.859287962377857E+002	1.2672340E+000	-2.7039801E+002
3	0	6.864287962251547E+002	1.2677536E+000	-2.7038742E+002
3	0	6.869287962125236E+002	1.2681776E+000	-2.7038385E+002
3	0	6.874287961998925E+002	1.2685280E+000	-2.7038031E+002
3	0	6.879287961872615E+002	1.2688191E+000	-2.7039447E+002
3	0	6.884287961746304E+002	1.2690430E+000	-2.7038385E+002
3	0	6.889287961619993E+002	1.2691675E+000	-2.7037326E+002
3	0	6.894287961493683E+002	1.2692227E+000	-2.7039801E+002
3	0	6.899287961367372E+002	1.2693318E+000	-2.7039801E+002
3	0	6.904287961241062E+002	1.2694207E+000	-2.7038031E+002
3	0	6.909287961114751E+002	1.2694856E+000	-2.7039093E+002
3	0	6.914287960988440E+002	1.2695321E+000	-2.7037677E+002
3	0	6.919287960862130E+002	1.2695662E+000	-2.7037326E+002
3	0	6.924287960735819E+002	1.2695537E+000	-2.7036618E+002
3	0	6.929287960609508E+002	1.2694839E+000	-2.7039093E+002
3	0	6.934287960483198E+002	1.2693703E+000	-2.7036267E+002
3	0	6.939287960356887E+002	1.2693193E+000	-2.7038385E+002
3	0	6.944287960230577E+002	1.2692786E+000	-2.7038742E+002
3	0	6.949287960104266E+002	1.2692167E+000	-2.7038742E+002
3	0	6.954287959977955E+002	1.2691638E+000	-2.7039093E+002
3	0	6.959287959851645E+002	1.2691001E+000	-2.7037326E+002
3	0	6.964287959725334E+002	1.2690109E+000	-2.7035913E+002
3	0	6.969287959599023E+002	1.2688586E+000	-2.7037677E+002
3	0	6.974287959472713E+002	1.2686554E+000	-2.7036618E+002
3	0	6.979287959346402E+002	1.2685298E+000	-2.7036972E+002
3	0	6.984287959220092E+002	1.2684045E+000	-2.7039447E+002
3	0	6.989287959093781E+002	1.2682705E+000	-2.7039093E+002
3	0	6.994287958967470E+002	1.2681397E+000	-2.7040155E+002
3	0	6.999287958841160E+002	1.2680094E+000	-2.7038385E+002
3	0	7.004287958714849E+002	1.2678553E+000	-2.7038031E+002
3	0	7.009287958588538E+002	1.2676389E+000	-2.7037677E+002
3	0	7.014287958462228E+002	1.2673711E+000	-2.7036618E+002
3	0	7.019287958335917E+002	1.2671769E+000	-2.7036618E+002
3	0	7.024287958209607E+002	1.2669895E+000	-2.7035913E+002
3	0	7.029287958083296E+002	1.2668047E+000	-2.7039093E+002
3	0	7.034287957956985E+002	1.2666118E+000	-2.7039093E+002
3	0	7.039287957830675E+002	1.2664176E+000	-2.7037326E+002
3	0	7.044287957704364E+002	1.2662071E+000	-2.7037326E+002
3	0	7.049287957578053E+002	1.2659386E+000	-2.7038742E+002
3	0	7.054287957451743E+002	1.2656207E+000	-2.7039093E+002
3	0	7.059287957325432E+002	1.2653908E+000	-2.7035913E+002
3	0	7.064287957199122E+002	1.2651813E+000	-2.7039093E+002
3	0	7.069287957072811E+002	1.2649764E+000	-2.7039093E+002
3	0	7.074287956946500E+002	1.2647892E+000	-2.7037326E+002
3	0	7.079287956820190E+002	1.2646137E+000	-2.7036618E+002
3	0	7.084287956693879E+002	1.2644171E+000	-2.7039447E+002
3	0	7.089287956567568E+002	1.2641591E+000	-2.7036618E+002
3	0	7.094287956441258E+002	1.2638586E+000	-2.7037326E+002
3	0	7.099287956314947E+002	1.2636515E+000	-2.7037326E+002
3	0	7.104287956188637E+002	1.2634566E+000	-2.7035559E+002
3	0	7.109287956062326E+002	1.2632557E+000	-2.7038742E+002
3	0	7.114287955936015E+002	1.2630571E+000	-2.7036618E+002
3	0	7.119287955809705E+002	1.2628682E+000	-2.7039447E+002
3	0	7.124287955683394E+002	1.2626535E+000	-2.7040506E+002
3	0	7.129287955557083E+002	1.2623804E+000	-2.7039093E+002
3	0	7.134287955430773E+002	1.2620553E+000	-2.7039093E+002
3	0	7.139287955304462E+002	1.2618101E+000	-2.7038031E+002
3	0	7.144287955178152E+002	1.2615838E+000	-2.7038031E+002
3	0	7.149287955051841E+002	1.2613469E+000	-2.7035205E+002
3	0	7.154287954925530E+002	1.2611151E+000	-2.7038742E+002
3	0	7.159287954799220E+002	1.2608744E+000	-2.7038742E+002
3	0	7.164287954672909E+002	1.2606049E+000	-2.7039093E+002
3	0	7.169287954546598E+002	1.2602739E+000	-2.7038031E+002
3	0	7.174287954420288E+002	1.2598996E+000	-2.7036972E+002
3	0	7.179287954293977E+002	1.2595989E+000	-2.7037326E+002
3	0	7.184287954167667E+002	1.2593236E+000	-2.7039447E+002
3	0	7.189287954041356E+002	1.2590376E+000	-2.7038742E+002
3	0	7.194287953915045E+002	1.2587581E+000	-2.7038031E+002
3	0	7.199287953788735E+002	1.2584777E+000	-2.7037326E+002
3	0	7.204287953662424E+002	1.2581687E+000	-2.7039093E+002
3	0	7.209287953536113E+002	1.2577963E+000	-2.7036267E+002
3	0	7.214287953409803E+002	1.2573786E+000	-2.7038031E+002
3	0	7.219287953283492E+002	1.2570432E+000	-2.7036618E+002
3	0	7.224287953157182E+002	1.2567198E+000	-2.7036972E+002
3	0	7.229287953030871E+002	1.2563887E+000	-2.7039447E+002
3	0	7.234287952904560E+002	1.2560689E+000	-2.7039093E+002
3	0	7.239287952778250E+002	1.2557411E+000	-2.7034497E+002
3	0	7.244287952651939E+002	1.2553922E+000	-2.7039447E+002
3	0	7.249287952525629E+002	1.2549835E+000	-2.7036267E+002
3	0	7.254287952399318E+002	1.2545339E+000	-2.7038742E+002
3	0	7.259287952273007E+002	1.2541709E+000	-2.7038385E+002
3	0	7.264287952146697E+002	1.2538279E+000	-2.7038742E+002
3	0	7.264533952140482E+002	1.2536470E+000	-2.7039093E+002