EC-Lab ASCII FILE
Nb header lines : 55                          

Open Circuit Voltage

Run on channel : 1 (SN 81504)
User : 
CE vs. WE compliance from -10 V to 10 V
Electrode connection : standard
Potential control : Ewe
Ewe ctrl range : min = -2.50 V, max = 2.50 V
Safety Limits :
	Do not start on E overload
Acquisition started on : 05/10/2026 00:56:49.563
Loaded Setting File :  C:\PEM-WE_measurements\2026\372_IV_IV IrOx, 5 min Pt, 30 min C, etched cathode\new station\Loopeis new\1,46 V different time gaps closed cell\Loopeis 1,46V_45s_3_PEIS from 6500Hz to 1000Hz.mps
Saved on :
	File : L_08_Loopeis 1,46V_45s_3_PEIS from 6500Hz to 1000Hz_04_OCV_C01.mpr
	Directory : C:\PEM-WE_measurements\2026\372_IV_IV IrOx, 5 min Pt, 30 min C, etched cathode\new station\Loopeis new\1,46 V different time gaps closed cell\
	Host : 192.168.0.2
Device : SP-150e (SN .005491)
Address : 192.168.0.91
EC-LAB for windows v11.71 (software)
Internet server v28.00 (firmware)
Command interpretor v14.01 (firmware)
Electrode material : 
Initial state : 
Electrolyte : 
Comments : 
Current amplifier : SP-150eB-20A
Electrode surface area : 0.001 cm²
Characteristic mass : 0.001 g
Equivalent Weight : 0.000 g/eq.
Density : 0.000 g/cm3
Volume (V) : 0.001 cm³
Record Analogic IN 1
Text export
   Mode : Standard
   Time format : Elapsed
Cycle Definition : Charge/Discharge alternance
External device configuration :
   device type : Temperature Probe
   device name : Other
   Analog IN 1 : 
      unit : T/Â°C
      max : 100.000 at 2.000 V
      min : 0.000 at 1.460 V
tR (h:m:s)          0:00:45.0000        
dER/dt (mV/h)       1.0                 
record              <Ewe>               
dER (mV)            10.00               
dtR (s)             0.5000              
E range min (V)     -2.500              
E range max (V)     2.500               

mode	error	time/s	<Ewe/V>	Analog IN 1/V	
3	0	1.356905998620641E+002	1.2093861E+000	-2.7040506E+002
3	0	1.361905998494331E+002	1.2537645E+000	-2.7036267E+002
3	0	1.366905998368020E+002	1.2581786E+000	-2.7036267E+002
3	0	1.371905998241709E+002	1.2608521E+000	-2.7037677E+002
3	0	1.376905998115399E+002	1.2626611E+000	-2.7036972E+002
3	0	1.381905997989088E+002	1.2640026E+000	-2.7035559E+002
3	0	1.386905997862777E+002	1.2650734E+000	-2.7038742E+002
3	0	1.391905997736467E+002	1.2659222E+000	-2.7037677E+002
3	0	1.396905997610156E+002	1.2665941E+000	-2.7037677E+002
3	0	1.401905997483846E+002	1.2671325E+000	-2.7038385E+002
3	0	1.406905997357535E+002	1.2675648E+000	-2.7038031E+002
3	0	1.411905997231224E+002	1.2678695E+000	-2.7039447E+002
3	0	1.416905997104914E+002	1.2680520E+000	-2.7037677E+002
3	0	1.421905996978603E+002	1.2681779E+000	-2.7039447E+002
3	0	1.426905996852292E+002	1.2683285E+000	-2.7035559E+002
3	0	1.431905996725982E+002	1.2684529E+000	-2.7036618E+002
3	0	1.436905996599671E+002	1.2685531E+000	-2.7038742E+002
3	0	1.441905996473361E+002	1.2686243E+000	-2.7037677E+002
3	0	1.446905996347050E+002	1.2686771E+000	-2.7036267E+002
3	0	1.451905996220739E+002	1.2686716E+000	-2.7037677E+002
3	0	1.456905996094429E+002	1.2685875E+000	-2.7038742E+002
3	0	1.461905995968118E+002	1.2684985E+000	-2.7038742E+002
3	0	1.466905995841807E+002	1.2684703E+000	-2.7036267E+002
3	0	1.471905995715497E+002	1.2684462E+000	-2.7038031E+002
3	0	1.476905995589186E+002	1.2684201E+000	-2.7037677E+002
3	0	1.481905995462876E+002	1.2683880E+000	-2.7038385E+002
3	0	1.486905995336565E+002	1.2683376E+000	-2.7040506E+002
3	0	1.491905995210254E+002	1.2682501E+000	-2.7039447E+002
3	0	1.496905995083944E+002	1.2680923E+000	-2.7036972E+002
3	0	1.501905994957633E+002	1.2679206E+000	-2.7038385E+002
3	0	1.506905994831322E+002	1.2678230E+000	-2.7036267E+002
3	0	1.511905994705012E+002	1.2677321E+000	-2.7039093E+002
3	0	1.516905994578701E+002	1.2676315E+000	-2.7039447E+002
3	0	1.521905994452391E+002	1.2675347E+000	-2.7038031E+002
3	0	1.526905994326080E+002	1.2674211E+000	-2.7037326E+002
3	0	1.531905994199769E+002	1.2672652E+000	-2.7038385E+002
3	0	1.536905994073459E+002	1.2670381E+000	-2.7038385E+002
3	0	1.541905993947148E+002	1.2668043E+000	-2.7039447E+002
3	0	1.546905993820837E+002	1.2666367E+000	-2.7038031E+002
3	0	1.551905993694527E+002	1.2664856E+000	-2.7037326E+002
3	0	1.556905993568216E+002	1.2663310E+000	-2.7038385E+002
3	0	1.561905993441906E+002	1.2661741E+000	-2.7039447E+002
3	0	1.566905993315595E+002	1.2660033E+000	-2.7039447E+002
3	0	1.571905993189284E+002	1.2657832E+000	-2.7036972E+002
3	0	1.576905993062974E+002	1.2654921E+000	-2.7038031E+002
3	0	1.581905992936663E+002	1.2652010E+000	-2.7037326E+002
3	0	1.586905992810352E+002	1.2649860E+000	-2.7038031E+002
3	0	1.591905992684042E+002	1.2647730E+000	-2.7040506E+002
3	0	1.596905992557731E+002	1.2645572E+000	-2.7039093E+002
3	0	1.601905992431421E+002	1.2643450E+000	-2.7036618E+002
3	0	1.606905992305110E+002	1.2641145E+000	-2.7037326E+002
3	0	1.611905992178799E+002	1.2638352E+000	-2.7039447E+002
3	0	1.616905992052489E+002	1.2634922E+000	-2.7036267E+002
3	0	1.621905991926178E+002	1.2631487E+000	-2.7036972E+002
3	0	1.626905991799867E+002	1.2628831E+000	-2.7035559E+002
3	0	1.631905991673557E+002	1.2626328E+000	-2.7039447E+002
3	0	1.636905991547246E+002	1.2624012E+000	-2.7038385E+002
3	0	1.641905991420936E+002	1.2621706E+000	-2.7040155E+002
3	0	1.646905991294625E+002	1.2619390E+000	-2.7039093E+002
3	0	1.651905991168314E+002	1.2616756E+000	-2.7037677E+002
3	0	1.656905991042004E+002	1.2613472E+000	-2.7037326E+002
3	0	1.661905990915693E+002	1.2610239E+000	-2.7039093E+002
3	0	1.666905990789382E+002	1.2607676E+000	-2.7036618E+002
3	0	1.671905990663072E+002	1.2605318E+000	-2.7036972E+002
3	0	1.676905990536761E+002	1.2603033E+000	-2.7038385E+002
3	0	1.681905990410451E+002	1.2600774E+000	-2.7038031E+002
3	0	1.686905990284140E+002	1.2598428E+000	-2.7037326E+002
3	0	1.691905990157829E+002	1.2595519E+000	-2.7037677E+002
3	0	1.696905990031519E+002	1.2591933E+000	-2.7037677E+002
3	0	1.701905989905208E+002	1.2588451E+000	-2.7038385E+002
3	0	1.706905989778897E+002	1.2585642E+000	-2.7039093E+002
3	0	1.711905989652587E+002	1.2582955E+000	-2.7035205E+002
3	0	1.716905989526276E+002	1.2580271E+000	-2.7038385E+002
3	0	1.721905989399966E+002	1.2577548E+000	-2.7039447E+002
3	0	1.726905989273655E+002	1.2574794E+000	-2.7038031E+002
3	0	1.731905989147344E+002	1.2571628E+000	-2.7039093E+002
3	0	1.736905989021034E+002	1.2567662E+000	-2.7037677E+002
3	0	1.741905988894723E+002	1.2563745E+000	-2.7035559E+002
3	0	1.746905988768413E+002	1.2560489E+000	-2.7036618E+002
3	0	1.751905988642102E+002	1.2557410E+000	-2.7038742E+002
3	0	1.756905988515791E+002	1.2554234E+000	-2.7038742E+002
3	0	1.761905988389481E+002	1.2551033E+000	-2.7038031E+002
3	0	1.766905988263170E+002	1.2547929E+000	-2.7036618E+002
3	0	1.771905988136859E+002	1.2544316E+000	-2.7036972E+002
3	0	1.776905988010549E+002	1.2540001E+000	-2.7038031E+002
3	0	1.781905987884238E+002	1.2535655E+000	-2.7038385E+002
3	0	1.786905987757928E+002	1.2532074E+000	-2.7038385E+002
3	0	1.791905987631617E+002	1.2528598E+000	-2.7037677E+002
3	0	1.796905987505306E+002	1.2525060E+000	-2.7037326E+002
3	0	1.801905987378996E+002	1.2521697E+000	-2.7037677E+002
3	0	1.802169987372326E+002	1.2519939E+000	-2.7036972E+002