EC-Lab ASCII FILE
Nb header lines : 55                          

Open Circuit Voltage

Run on channel : 1 (SN 81504)
User : 
CE vs. WE compliance from -10 V to 10 V
Electrode connection : standard
Potential control : Ewe
Ewe ctrl range : min = -2.50 V, max = 2.50 V
Safety Limits :
	Do not start on E overload
Acquisition started on : 05/10/2026 00:56:49.563
Loaded Setting File :  C:\PEM-WE_measurements\2026\372_IV_IV IrOx, 5 min Pt, 30 min C, etched cathode\new station\Loopeis new\1,46 V different time gaps closed cell\Loopeis 1,46V_45s_3_PEIS from 6500Hz to 1000Hz.mps
Saved on :
	File : L_08_Loopeis 1,46V_45s_3_PEIS from 6500Hz to 1000Hz_08_OCV_C01.mpr
	Directory : C:\PEM-WE_measurements\2026\372_IV_IV IrOx, 5 min Pt, 30 min C, etched cathode\new station\Loopeis new\1,46 V different time gaps closed cell\
	Host : 192.168.0.2
Device : SP-150e (SN .005491)
Address : 192.168.0.91
EC-LAB for windows v11.71 (software)
Internet server v28.00 (firmware)
Command interpretor v14.01 (firmware)
Electrode material : 
Initial state : 
Electrolyte : 
Comments : 
Current amplifier : SP-150eB-20A
Electrode surface area : 0.001 cm²
Characteristic mass : 0.001 g
Equivalent Weight : 0.000 g/eq.
Density : 0.000 g/cm3
Volume (V) : 0.001 cm³
Record Analogic IN 1
Text export
   Mode : Standard
   Time format : Elapsed
Cycle Definition : Charge/Discharge alternance
External device configuration :
   device type : Temperature Probe
   device name : Other
   Analog IN 1 : 
      unit : T/Â°C
      max : 100.000 at 2.000 V
      min : 0.000 at 1.460 V
tR (h:m:s)          0:00:45.0000        
dER/dt (mV/h)       1.0                 
record              <Ewe>               
dER (mV)            10.00               
dtR (s)             0.5000              
E range min (V)     -2.500              
E range max (V)     2.500               

mode	error	time/s	<Ewe/V>	Analog IN 1/V	
3	0	3.159493986010057E+002	1.2089174E+000	-2.7037326E+002
3	0	3.164493985883746E+002	1.2542657E+000	-2.7038742E+002
3	0	3.169493985757435E+002	1.2586098E+000	-2.7039447E+002
3	0	3.174493985631125E+002	1.2612157E+000	-2.7039093E+002
3	0	3.179493985504814E+002	1.2630461E+000	-2.7036618E+002
3	0	3.184493985378504E+002	1.2644343E+000	-2.7037326E+002
3	0	3.189493985252193E+002	1.2654976E+000	-2.7039801E+002
3	0	3.194493985125882E+002	1.2663462E+000	-2.7039447E+002
3	0	3.199493984999572E+002	1.2670152E+000	-2.7036267E+002
3	0	3.204493984873261E+002	1.2675447E+000	-2.7036972E+002
3	0	3.209493984746950E+002	1.2679281E+000	-2.7038385E+002
3	0	3.214493984620640E+002	1.2681758E+000	-2.7034851E+002
3	0	3.219493984494329E+002	1.2683845E+000	-2.7038742E+002
3	0	3.224493984368019E+002	1.2685876E+000	-2.7041568E+002
3	0	3.229493984241708E+002	1.2687370E+000	-2.7038742E+002
3	0	3.234493984115397E+002	1.2688558E+000	-2.7036972E+002
3	0	3.239493983989087E+002	1.2689333E+000	-2.7037326E+002
3	0	3.244493983862776E+002	1.2689141E+000	-2.7037326E+002
3	0	3.249493983736465E+002	1.2688951E+000	-2.7038742E+002
3	0	3.254493983610155E+002	1.2688482E+000	-2.7039093E+002
3	0	3.259493983483844E+002	1.2688227E+000	-2.7039447E+002
3	0	3.264493983357534E+002	1.2688463E+000	-2.7037677E+002
3	0	3.269493983231223E+002	1.2688504E+000	-2.7036267E+002
3	0	3.274493983104912E+002	1.2688355E+000	-2.7039093E+002
3	0	3.279493982978602E+002	1.2688272E+000	-2.7035205E+002
3	0	3.284493982852291E+002	1.2688088E+000	-2.7038031E+002
3	0	3.289493982725980E+002	1.2687192E+000	-2.7037326E+002
3	0	3.294493982599670E+002	1.2685425E+000	-2.7038385E+002
3	0	3.299493982473359E+002	1.2683940E+000	-2.7037677E+002
3	0	3.304493982347049E+002	1.2683336E+000	-2.7041919E+002
3	0	3.309493982220738E+002	1.2682689E+000	-2.7037677E+002
3	0	3.314493982094427E+002	1.2681849E+000	-2.7036972E+002
3	0	3.319493981968117E+002	1.2680944E+000	-2.7037677E+002
3	0	3.324493981841806E+002	1.2679836E+000	-2.7036972E+002
3	0	3.329493981715495E+002	1.2678242E+000	-2.7038385E+002
3	0	3.334493981589185E+002	1.2675838E+000	-2.7038385E+002
3	0	3.339493981462874E+002	1.2673814E+000	-2.7036618E+002
3	0	3.344493981336564E+002	1.2672493E+000	-2.7037326E+002
3	0	3.349493981210253E+002	1.2671163E+000	-2.7035913E+002
3	0	3.354493981083942E+002	1.2669743E+000	-2.7037677E+002
3	0	3.359493980957632E+002	1.2668284E+000	-2.7039801E+002
3	0	3.364493980831321E+002	1.2666610E+000	-2.7037677E+002
3	0	3.369493980705010E+002	1.2664268E+000	-2.7037677E+002
3	0	3.374493980578700E+002	1.2661333E+000	-2.7038742E+002
3	0	3.379493980452389E+002	1.2658736E+000	-2.7037326E+002
3	0	3.384493980326079E+002	1.2656837E+000	-2.7040155E+002
3	0	3.389493980199768E+002	1.2654967E+000	-2.7039801E+002
3	0	3.394493980073457E+002	1.2652981E+000	-2.7036618E+002
3	0	3.399493979947147E+002	1.2651002E+000	-2.7035559E+002
3	0	3.404493979820836E+002	1.2648854E+000	-2.7035913E+002
3	0	3.409493979694525E+002	1.2646075E+000	-2.7038031E+002
3	0	3.414493979568215E+002	1.2642536E+000	-2.7039093E+002
3	0	3.419493979441904E+002	1.2639309E+000	-2.7039447E+002
3	0	3.424493979315594E+002	1.2636906E+000	-2.7038031E+002
3	0	3.429493979189283E+002	1.2634469E+000	-2.7036972E+002
3	0	3.434493979062972E+002	1.2632067E+000	-2.7036618E+002
3	0	3.439493978936662E+002	1.2629737E+000	-2.7036972E+002
3	0	3.444493978810351E+002	1.2627296E+000	-2.7036618E+002
3	0	3.449493978684040E+002	1.2624427E+000	-2.7037326E+002
3	0	3.454493978557730E+002	1.2620847E+000	-2.7039447E+002
3	0	3.459493978431419E+002	1.2617751E+000	-2.7039093E+002
3	0	3.464493978305109E+002	1.2615523E+000	-2.7036267E+002
3	0	3.469493978178798E+002	1.2613420E+000	-2.7036972E+002
3	0	3.474493978052487E+002	1.2611320E+000	-2.7040860E+002
3	0	3.479493977926177E+002	1.2609231E+000	-2.7036972E+002
3	0	3.484493977799866E+002	1.2606994E+000	-2.7037677E+002
3	0	3.489493977673555E+002	1.2604245E+000	-2.7036972E+002
3	0	3.494493977547245E+002	1.2600700E+000	-2.7039093E+002
3	0	3.499493977420934E+002	1.2597603E+000	-2.7037677E+002
3	0	3.504493977294624E+002	1.2595254E+000	-2.7036972E+002
3	0	3.509493977168313E+002	1.2593018E+000	-2.7038385E+002
3	0	3.514493977042002E+002	1.2590518E+000	-2.7039801E+002
3	0	3.519493976915692E+002	1.2588258E+000	-2.7038031E+002
3	0	3.524493976789381E+002	1.2585744E+000	-2.7037326E+002
3	0	3.529493976663071E+002	1.2582710E+000	-2.7038385E+002
3	0	3.534493976536760E+002	1.2578905E+000	-2.7036618E+002
3	0	3.539493976410449E+002	1.2575392E+000	-2.7039801E+002
3	0	3.544493976284139E+002	1.2572621E+000	-2.7036618E+002
3	0	3.549493976157828E+002	1.2569904E+000	-2.7038385E+002
3	0	3.554493976031517E+002	1.2567024E+000	-2.7039447E+002
3	0	3.559493975905207E+002	1.2564263E+000	-2.7038742E+002
3	0	3.564493975778896E+002	1.2561257E+000	-2.7039093E+002
3	0	3.569493975652586E+002	1.2557658E+000	-2.7037677E+002
3	0	3.574493975526275E+002	1.2553329E+000	-2.7037326E+002
3	0	3.579493975399964E+002	1.2549355E+000	-2.7038742E+002
3	0	3.584493975273654E+002	1.2546145E+000	-2.7039093E+002
3	0	3.589493975147343E+002	1.2543004E+000	-2.7036972E+002
3	0	3.594493975021032E+002	1.2539703E+000	-2.7036267E+002
3	0	3.599493974894722E+002	1.2536473E+000	-2.7038031E+002
3	0	3.604493974768411E+002	1.2533013E+000	-2.7037326E+002
3	0	3.604727974762500E+002	1.2531081E+000	-2.7039801E+002