EC-Lab ASCII FILE
Nb header lines : 55                          

Open Circuit Voltage

Run on channel : 1 (SN 81504)
User : 
CE vs. WE compliance from -10 V to 10 V
Electrode connection : standard
Potential control : Ewe
Ewe ctrl range : min = -2.50 V, max = 2.50 V
Safety Limits :
	Do not start on E overload
Acquisition started on : 05/10/2026 00:56:49.563
Loaded Setting File :  C:\PEM-WE_measurements\2026\372_IV_IV IrOx, 5 min Pt, 30 min C, etched cathode\new station\Loopeis new\1,46 V different time gaps closed cell\Loopeis 1,46V_45s_3_PEIS from 6500Hz to 1000Hz.mps
Saved on :
	File : L_08_Loopeis 1,46V_45s_3_PEIS from 6500Hz to 1000Hz_20_OCV_C01.mpr
	Directory : C:\PEM-WE_measurements\2026\372_IV_IV IrOx, 5 min Pt, 30 min C, etched cathode\new station\Loopeis new\1,46 V different time gaps closed cell\
	Host : 192.168.0.2
Device : SP-150e (SN .005491)
Address : 192.168.0.91
EC-LAB for windows v11.71 (software)
Internet server v28.00 (firmware)
Command interpretor v14.01 (firmware)
Electrode material : 
Initial state : 
Electrolyte : 
Comments : 
Current amplifier : SP-150eB-20A
Electrode surface area : 0.001 cm²
Characteristic mass : 0.001 g
Equivalent Weight : 0.000 g/eq.
Density : 0.000 g/cm3
Volume (V) : 0.001 cm³
Record Analogic IN 1
Text export
   Mode : Standard
   Time format : Elapsed
Cycle Definition : Charge/Discharge alternance
External device configuration :
   device type : Temperature Probe
   device name : Other
   Analog IN 1 : 
      unit : T/Â°C
      max : 100.000 at 2.000 V
      min : 0.000 at 1.460 V
tR (h:m:s)          0:00:45.0000        
dER/dt (mV/h)       1.0                 
record              <Ewe>               
dER (mV)            10.00               
dtR (s)             0.5000              
E range min (V)     -2.500              
E range max (V)     2.500               

mode	error	time/s	<Ewe/V>	Analog IN 1/V	
3	0	8.649285952081118E+002	1.2065655E+000	-2.7040860E+002
3	0	8.654285951954807E+002	1.2549728E+000	-2.7038742E+002
3	0	8.659285951828497E+002	1.2592885E+000	-2.7036267E+002
3	0	8.664285951702186E+002	1.2619276E+000	-2.7037677E+002
3	0	8.669285951575876E+002	1.2637578E+000	-2.7039801E+002
3	0	8.674285951449565E+002	1.2651207E+000	-2.7038742E+002
3	0	8.679285951323254E+002	1.2661749E+000	-2.7035559E+002
3	0	8.684285951196944E+002	1.2669809E+000	-2.7037326E+002
3	0	8.689285951070633E+002	1.2675714E+000	-2.7037326E+002
3	0	8.694285950944322E+002	1.2680217E+000	-2.7037677E+002
3	0	8.699285950818012E+002	1.2684597E+000	-2.7038385E+002
3	0	8.704285950691701E+002	1.2688378E+000	-2.7040506E+002
3	0	8.709285950565391E+002	1.2691470E+000	-2.7038031E+002
3	0	8.714285950439080E+002	1.2693979E+000	-2.7036267E+002
3	0	8.719285950312769E+002	1.2696083E+000	-2.7038031E+002
3	0	8.724285950186459E+002	1.2697399E+000	-2.7036618E+002
3	0	8.729285950060148E+002	1.2697847E+000	-2.7038385E+002
3	0	8.734285949933837E+002	1.2697749E+000	-2.7036972E+002
3	0	8.739285949807527E+002	1.2698270E+000	-2.7036618E+002
3	0	8.744285949681216E+002	1.2698922E+000	-2.7036618E+002
3	0	8.749285949554906E+002	1.2699325E+000	-2.7037326E+002
3	0	8.754285949428595E+002	1.2699558E+000	-2.7037326E+002
3	0	8.759285949302284E+002	1.2699673E+000	-2.7041214E+002
3	0	8.764285949175974E+002	1.2699280E+000	-2.7038031E+002
3	0	8.769285949049663E+002	1.2698090E+000	-2.7036972E+002
3	0	8.774285948923352E+002	1.2696481E+000	-2.7038742E+002
3	0	8.779285948797042E+002	1.2695780E+000	-2.7038031E+002
3	0	8.784285948670731E+002	1.2695295E+000	-2.7038385E+002
3	0	8.789285948544421E+002	1.2694590E+000	-2.7038742E+002
3	0	8.794285948418110E+002	1.2693803E+000	-2.7038385E+002
3	0	8.799285948291799E+002	1.2692972E+000	-2.7037326E+002
3	0	8.804285948165489E+002	1.2691765E+000	-2.7036618E+002
3	0	8.809285948039178E+002	1.2689823E+000	-2.7040155E+002
3	0	8.814285947912867E+002	1.2687521E+000	-2.7036267E+002
3	0	8.819285947786557E+002	1.2686092E+000	-2.7038385E+002
3	0	8.824285947660246E+002	1.2684867E+000	-2.7038742E+002
3	0	8.829285947533936E+002	1.2683492E+000	-2.7039801E+002
3	0	8.834285947407625E+002	1.2681947E+000	-2.7037677E+002
3	0	8.839285947281314E+002	1.2680502E+000	-2.7038031E+002
3	0	8.844285947155004E+002	1.2678537E+000	-2.7038031E+002
3	0	8.849285947028693E+002	1.2675806E+000	-2.7039447E+002
3	0	8.854285946902382E+002	1.2672846E+000	-2.7036267E+002
3	0	8.859285946776072E+002	1.2670714E+000	-2.7038031E+002
3	0	8.864285946649761E+002	1.2669010E+000	-2.7038742E+002
3	0	8.869285946523451E+002	1.2667254E+000	-2.7037326E+002
3	0	8.874285946397140E+002	1.2665522E+000	-2.7037677E+002
3	0	8.879285946270829E+002	1.2663801E+000	-2.7035205E+002
3	0	8.884285946144519E+002	1.2661923E+000	-2.7035559E+002
3	0	8.889285946018208E+002	1.2659161E+000	-2.7038385E+002
3	0	8.894285945891897E+002	1.2656205E+000	-2.7038385E+002
3	0	8.899285945765587E+002	1.2654275E+000	-2.7035913E+002
3	0	8.904285945639276E+002	1.2652622E+000	-2.7040155E+002
3	0	8.909285945512966E+002	1.2650851E+000	-2.7037326E+002
3	0	8.914285945386655E+002	1.2649151E+000	-2.7037326E+002
3	0	8.919285945260344E+002	1.2647445E+000	-2.7038031E+002
3	0	8.924285945134034E+002	1.2645410E+000	-2.7037326E+002
3	0	8.929285945007723E+002	1.2642620E+000	-2.7041214E+002
3	0	8.934285944881412E+002	1.2639450E+000	-2.7037677E+002
3	0	8.939285944755102E+002	1.2637273E+000	-2.7038385E+002
3	0	8.944285944628791E+002	1.2635339E+000	-2.7038031E+002
3	0	8.949285944502481E+002	1.2633241E+000	-2.7036972E+002
3	0	8.954285944376170E+002	1.2631137E+000	-2.7038031E+002
3	0	8.959285944249859E+002	1.2629032E+000	-2.7038031E+002
3	0	8.964285944123549E+002	1.2626503E+000	-2.7038385E+002
3	0	8.969285943997238E+002	1.2623327E+000	-2.7035913E+002
3	0	8.974285943870927E+002	1.2619680E+000	-2.7037326E+002
3	0	8.979285943744617E+002	1.2616966E+000	-2.7038031E+002
3	0	8.984285943618306E+002	1.2614579E+000	-2.7038742E+002
3	0	8.989285943491996E+002	1.2612112E+000	-2.7039447E+002
3	0	8.994285943365685E+002	1.2609546E+000	-2.7037677E+002
3	0	8.999285943239374E+002	1.2606950E+000	-2.7036618E+002
3	0	9.004285943113064E+002	1.2603987E+000	-2.7038385E+002
3	0	9.009285942986753E+002	1.2600200E+000	-2.7038742E+002
3	0	9.014285942860442E+002	1.2596151E+000	-2.7038031E+002
3	0	9.019285942734132E+002	1.2593061E+000	-2.7036267E+002
3	0	9.024285942607821E+002	1.2590152E+000	-2.7035205E+002
3	0	9.029285942481511E+002	1.2587273E+000	-2.7038385E+002
3	0	9.034285942355200E+002	1.2584269E+000	-2.7037326E+002
3	0	9.039285942228889E+002	1.2581277E+000	-2.7036972E+002
3	0	9.044285942102579E+002	1.2577965E+000	-2.7037677E+002
3	0	9.049285941976268E+002	1.2573810E+000	-2.7037677E+002
3	0	9.054285941849957E+002	1.2569432E+000	-2.7036972E+002
3	0	9.059285941723647E+002	1.2565948E+000	-2.7038031E+002
3	0	9.064285941597336E+002	1.2562833E+000	-2.7038742E+002
3	0	9.069285941471026E+002	1.2559698E+000	-2.7038742E+002
3	0	9.074285941344715E+002	1.2556587E+000	-2.7038742E+002
3	0	9.079285941218404E+002	1.2553592E+000	-2.7039093E+002
3	0	9.084285941092094E+002	1.2550273E+000	-2.7037326E+002
3	0	9.089285940965783E+002	1.2546395E+000	-2.7037326E+002
3	0	9.094285940839472E+002	1.2542182E+000	-2.7037326E+002
3	0	9.094521940833511E+002	1.2540443E+000	-2.7039801E+002