EC-Lab ASCII FILE
Nb header lines : 55                          

Open Circuit Voltage

Run on channel : 1 (SN 81504)
User : 
CE vs. WE compliance from -10 V to 10 V
Electrode connection : standard
Potential control : Ewe
Ewe ctrl range : min = -2.50 V, max = 2.50 V
Safety Limits :
	Do not start on E overload
Acquisition started on : 05/10/2026 00:56:49.563
Loaded Setting File :  C:\PEM-WE_measurements\2026\372_IV_IV IrOx, 5 min Pt, 30 min C, etched cathode\new station\Loopeis new\1,46 V different time gaps closed cell\Loopeis 1,46V_45s_3_PEIS from 6500Hz to 1000Hz.mps
Saved on :
	File : L_08_Loopeis 1,46V_45s_3_PEIS from 6500Hz to 1000Hz_02_OCV_C01.mpr
	Directory : C:\PEM-WE_measurements\2026\372_IV_IV IrOx, 5 min Pt, 30 min C, etched cathode\new station\Loopeis new\1,46 V different time gaps closed cell\
	Host : 192.168.0.2
Device : SP-150e (SN .005491)
Address : 192.168.0.91
EC-LAB for windows v11.71 (software)
Internet server v28.00 (firmware)
Command interpretor v14.01 (firmware)
Electrode material : 
Initial state : 
Electrolyte : 
Comments : 
Current amplifier : SP-150eB-20A
Electrode surface area : 0.001 cm²
Characteristic mass : 0.001 g
Equivalent Weight : 0.000 g/eq.
Density : 0.000 g/cm3
Volume (V) : 0.001 cm³
Record Analogic IN 1
Text export
   Mode : Standard
   Time format : Elapsed
Cycle Definition : Charge/Discharge alternance
External device configuration :
   device type : Temperature Probe
   device name : Other
   Analog IN 1 : 
      unit : T/Â°C
      max : 100.000 at 2.000 V
      min : 0.000 at 1.460 V
tR (h:m:s)          0:00:45.0000        
dER/dt (mV/h)       1.0                 
record              <Ewe>               
dER (mV)            10.00               
dtR (s)             0.5000              
E range min (V)     -2.500              
E range max (V)     2.500               

mode	error	time/s	<Ewe/V>	Analog IN 1/V	
3	0	4.549979885057837E+001	1.4195251E+000	-2.7036972E+002
3	0	4.599979883794731E+001	1.4113135E+000	-2.7037677E+002
3	0	4.649979882531625E+001	1.4056836E+000	-2.7038742E+002
3	0	4.699979881268519E+001	1.4016304E+000	-2.7035913E+002
3	0	4.749979880005412E+001	1.3984357E+000	-2.7037677E+002
3	0	4.799979878742306E+001	1.3957764E+000	-2.7036972E+002
3	0	4.849979877479200E+001	1.3934987E+000	-2.7039447E+002
3	0	4.899979876216094E+001	1.3914788E+000	-2.7036972E+002
3	0	4.949979874952987E+001	1.3896067E+000	-2.7039801E+002
3	0	4.999979873689881E+001	1.3878247E+000	-2.7039801E+002
3	0	5.049979872426775E+001	1.3861970E+000	-2.7036972E+002
3	0	5.099979871163669E+001	1.3847435E+000	-2.7039801E+002
3	0	5.149979869900562E+001	1.3834006E+000	-2.7038031E+002
3	0	5.199979868637456E+001	1.3821368E+000	-2.7037677E+002
3	0	5.249979867374350E+001	1.3809596E+000	-2.7037326E+002
3	0	5.299979866111244E+001	1.3798388E+000	-2.7038031E+002
3	0	5.349979864848137E+001	1.3787206E+000	-2.7036972E+002
3	0	5.399979863585031E+001	1.3775884E+000	-2.7038742E+002
3	0	5.449979862321925E+001	1.3765312E+000	-2.7040155E+002
3	0	5.499979861058819E+001	1.3755803E+000	-2.7037326E+002
3	0	5.549979859795712E+001	1.3746877E+000	-2.7037677E+002
3	0	5.599979858532606E+001	1.3738210E+000	-2.7038031E+002
3	0	5.649979857269500E+001	1.3729948E+000	-2.7038742E+002
3	0	5.699979856006394E+001	1.3721933E+000	-2.7034851E+002
3	0	5.749979854743287E+001	1.3713713E+000	-2.7038031E+002
3	0	5.799979853480181E+001	1.3705090E+000	-2.7038031E+002
3	0	5.849979852217075E+001	1.3697048E+000	-2.7038031E+002
3	0	5.899979850953969E+001	1.3689725E+000	-2.7038742E+002
3	0	5.949979849690862E+001	1.3682798E+000	-2.7037326E+002
3	0	5.999979848427756E+001	1.3675948E+000	-2.7036618E+002
3	0	6.049979847164650E+001	1.3669339E+000	-2.7039801E+002
3	0	6.099979845901544E+001	1.3662803E+000	-2.7038031E+002
3	0	6.149979844638438E+001	1.3655905E+000	-2.7038385E+002
3	0	6.199979843375331E+001	1.3648607E+000	-2.7038742E+002
3	0	6.249979842112225E+001	1.3641745E+000	-2.7037677E+002
3	0	6.299979840849119E+001	1.3635683E+000	-2.7039093E+002
3	0	6.349979839586013E+001	1.3630000E+000	-2.7037677E+002
3	0	6.399979838322906E+001	1.3624455E+000	-2.7036618E+002
3	0	6.449979837059800E+001	1.3619192E+000	-2.7036267E+002
3	0	6.499979835796694E+001	1.3614002E+000	-2.7036267E+002
3	0	6.549979834533588E+001	1.3608621E+000	-2.7039093E+002
3	0	6.599979833270481E+001	1.3602653E+000	-2.7039093E+002
3	0	6.649979832007375E+001	1.3597159E+000	-2.7040155E+002
3	0	6.699979830744269E+001	1.3592327E+000	-2.7038031E+002
3	0	6.749979829481163E+001	1.3587729E+000	-2.7039093E+002
3	0	6.799979828218056E+001	1.3583201E+000	-2.7038031E+002
3	0	6.849979826954950E+001	1.3578795E+000	-2.7039093E+002
3	0	6.899979825691844E+001	1.3574383E+000	-2.7037326E+002
3	0	6.949979824428738E+001	1.3569554E+000	-2.7036972E+002
3	0	6.999979823165631E+001	1.3564041E+000	-2.7038031E+002
3	0	7.049979821902525E+001	1.3558859E+000	-2.7036972E+002
3	0	7.099979820639419E+001	1.3554435E+000	-2.7037326E+002
3	0	7.149979819376313E+001	1.3550193E+000	-2.7035913E+002
3	0	7.199979818113206E+001	1.3545848E+000	-2.7035205E+002
3	0	7.249979816850100E+001	1.3541549E+000	-2.7035913E+002
3	0	7.299979815586994E+001	1.3537287E+000	-2.7038031E+002
3	0	7.349979814323888E+001	1.3532491E+000	-2.7039093E+002
3	0	7.399979813060781E+001	1.3526957E+000	-2.7038742E+002
3	0	7.449979811797675E+001	1.3521932E+000	-2.7037326E+002
3	0	7.499979810534569E+001	1.3517458E+000	-2.7039093E+002
3	0	7.549979809271463E+001	1.3513048E+000	-2.7036618E+002
3	0	7.599979808008356E+001	1.3508672E+000	-2.7037326E+002
3	0	7.649979806745250E+001	1.3504322E+000	-2.7037326E+002
3	0	7.699979805482144E+001	1.3499976E+000	-2.7036267E+002
3	0	7.749979804219038E+001	1.3495147E+000	-2.7035913E+002
3	0	7.799979802955932E+001	1.3489550E+000	-2.7039447E+002
3	0	7.849979801692825E+001	1.3484378E+000	-2.7040506E+002
3	0	7.899979800429719E+001	1.3479807E+000	-2.7038742E+002
3	0	7.949979799166613E+001	1.3475225E+000	-2.7037326E+002
3	0	7.999979797903507E+001	1.3470750E+000	-2.7038031E+002
3	0	8.049979796640400E+001	1.3466147E+000	-2.7038385E+002
3	0	8.099979795377294E+001	1.3461527E+000	-2.7038385E+002
3	0	8.149979794114188E+001	1.3456423E+000	-2.7038031E+002
3	0	8.199979792851082E+001	1.3450774E+000	-2.7036618E+002
3	0	8.249979791587975E+001	1.3445423E+000	-2.7038742E+002
3	0	8.299979790324869E+001	1.3440868E+000	-2.7040155E+002
3	0	8.349979789061763E+001	1.3436438E+000	-2.7038385E+002
3	0	8.399979787798657E+001	1.3432078E+000	-2.7038742E+002
3	0	8.449979786535550E+001	1.3427961E+000	-2.7038031E+002
3	0	8.499979785272444E+001	1.3423703E+000	-2.7039093E+002
3	0	8.549979784009338E+001	1.3419083E+000	-2.7037326E+002
3	0	8.599979782746232E+001	1.3413694E+000	-2.7037677E+002
3	0	8.649979781483125E+001	1.3408859E+000	-2.7036618E+002
3	0	8.699979780220019E+001	1.3404589E+000	-2.7037677E+002
3	0	8.749979778956913E+001	1.3400446E+000	-2.7036972E+002
3	0	8.799979777693807E+001	1.3396330E+000	-2.7034497E+002
3	0	8.849979776430700E+001	1.3392301E+000	-2.7036972E+002
3	0	8.899979775167594E+001	1.3388268E+000	-2.7036972E+002
3	0	8.949979773904488E+001	1.3383621E+000	-2.7037326E+002
3	0	8.999979772641382E+001	1.3378414E+000	-2.7038742E+002
3	0	9.000019772640371E+001	1.3375534E+000	-2.7036972E+002