EC-Lab ASCII FILE
Nb header lines : 55                          

Open Circuit Voltage

Run on channel : 1 (SN 81504)
User : 
CE vs. WE compliance from -10 V to 10 V
Electrode connection : standard
Potential control : Ewe
Ewe ctrl range : min = -2.50 V, max = 2.50 V
Safety Limits :
	Do not start on E overload
Acquisition started on : 05/10/2026 00:56:49.563
Loaded Setting File :  C:\PEM-WE_measurements\2026\372_IV_IV IrOx, 5 min Pt, 30 min C, etched cathode\new station\Loopeis new\1,46 V different time gaps closed cell\Loopeis 1,46V_45s_3_PEIS from 6500Hz to 1000Hz.mps
Saved on :
	File : L_08_Loopeis 1,46V_45s_3_PEIS from 6500Hz to 1000Hz_18_OCV_C01.mpr
	Directory : C:\PEM-WE_measurements\2026\372_IV_IV IrOx, 5 min Pt, 30 min C, etched cathode\new station\Loopeis new\1,46 V different time gaps closed cell\
	Host : 192.168.0.2
Device : SP-150e (SN .005491)
Address : 192.168.0.91
EC-LAB for windows v11.71 (software)
Internet server v28.00 (firmware)
Command interpretor v14.01 (firmware)
Electrode material : 
Initial state : 
Electrolyte : 
Comments : 
Current amplifier : SP-150eB-20A
Electrode surface area : 0.001 cm²
Characteristic mass : 0.001 g
Equivalent Weight : 0.000 g/eq.
Density : 0.000 g/cm3
Volume (V) : 0.001 cm³
Record Analogic IN 1
Text export
   Mode : Standard
   Time format : Elapsed
Cycle Definition : Charge/Discharge alternance
External device configuration :
   device type : Temperature Probe
   device name : Other
   Analog IN 1 : 
      unit : T/Â°C
      max : 100.000 at 2.000 V
      min : 0.000 at 1.460 V
tR (h:m:s)          0:00:45.0000        
dER/dt (mV/h)       1.0                 
record              <Ewe>               
dER (mV)            10.00               
dtR (s)             0.5000              
E range min (V)     -2.500              
E range max (V)     2.500               

mode	error	time/s	<Ewe/V>	Analog IN 1/V	
3	0	7.719539940646064E+002	1.4191685E+000	-2.7035559E+002
3	0	7.724539940519753E+002	1.4109944E+000	-2.7036267E+002
3	0	7.729539940393443E+002	1.4053564E+000	-2.7035559E+002
3	0	7.734539940267132E+002	1.4011283E+000	-2.7036618E+002
3	0	7.739539940140821E+002	1.3978375E+000	-2.7036972E+002
3	0	7.744539940014511E+002	1.3951018E+000	-2.7035559E+002
3	0	7.749539939888200E+002	1.3927519E+000	-2.7036618E+002
3	0	7.754539939761889E+002	1.3906863E+000	-2.7038742E+002
3	0	7.759539939635579E+002	1.3888456E+000	-2.7037677E+002
3	0	7.764539939509268E+002	1.3871385E+000	-2.7042627E+002
3	0	7.769539939382958E+002	1.3854940E+000	-2.7035559E+002
3	0	7.774539939256647E+002	1.3839228E+000	-2.7038385E+002
3	0	7.779539939130336E+002	1.3825198E+000	-2.7036618E+002
3	0	7.784539939004026E+002	1.3812259E+000	-2.7038031E+002
3	0	7.789539938877715E+002	1.3800256E+000	-2.7039447E+002
3	0	7.794539938751404E+002	1.3789017E+000	-2.7037326E+002
3	0	7.799539938625094E+002	1.3778359E+000	-2.7039093E+002
3	0	7.804539938498783E+002	1.3767995E+000	-2.7039093E+002
3	0	7.809539938372473E+002	1.3757415E+000	-2.7036267E+002
3	0	7.814539938246162E+002	1.3746885E+000	-2.7036267E+002
3	0	7.819539938119851E+002	1.3737513E+000	-2.7038385E+002
3	0	7.824539937993541E+002	1.3728648E+000	-2.7038385E+002
3	0	7.829539937867230E+002	1.3720047E+000	-2.7036618E+002
3	0	7.834539937740919E+002	1.3711838E+000	-2.7038031E+002
3	0	7.839539937614609E+002	1.3704032E+000	-2.7038031E+002
3	0	7.844539937488298E+002	1.3696336E+000	-2.7038031E+002
3	0	7.849539937361988E+002	1.3688008E+000	-2.7038385E+002
3	0	7.854539937235677E+002	1.3679663E+000	-2.7038742E+002
3	0	7.859539937109366E+002	1.3672324E+000	-2.7038031E+002
3	0	7.864539936983056E+002	1.3665366E+000	-2.7040860E+002
3	0	7.869539936856745E+002	1.3658823E+000	-2.7036618E+002
3	0	7.874539936730434E+002	1.3652633E+000	-2.7038031E+002
3	0	7.879539936604124E+002	1.3646761E+000	-2.7037677E+002
3	0	7.884539936477813E+002	1.3640813E+000	-2.7036618E+002
3	0	7.889539936351503E+002	1.3634452E+000	-2.7038742E+002
3	0	7.894539936225192E+002	1.3627830E+000	-2.7038742E+002
3	0	7.899539936098881E+002	1.3622278E+000	-2.7037677E+002
3	0	7.904539935972571E+002	1.3617110E+000	-2.7038031E+002
3	0	7.909539935846260E+002	1.3612069E+000	-2.7039093E+002
3	0	7.914539935719949E+002	1.3607370E+000	-2.7040155E+002
3	0	7.919539935593639E+002	1.3602848E+000	-2.7040506E+002
3	0	7.924539935467328E+002	1.3598071E+000	-2.7035559E+002
3	0	7.929539935341018E+002	1.3592765E+000	-2.7038031E+002
3	0	7.934539935214707E+002	1.3587067E+000	-2.7038031E+002
3	0	7.939539935088396E+002	1.3582392E+000	-2.7038742E+002
3	0	7.944539934962086E+002	1.3577797E+000	-2.7038385E+002
3	0	7.949539934835775E+002	1.3573360E+000	-2.7037677E+002
3	0	7.954539934709464E+002	1.3569100E+000	-2.7036972E+002
3	0	7.959539934583154E+002	1.3564863E+000	-2.7037677E+002
3	0	7.964539934456843E+002	1.3560432E+000	-2.7036972E+002
3	0	7.969539934330533E+002	1.3555367E+000	-2.7035913E+002
3	0	7.974539934204222E+002	1.3550016E+000	-2.7036267E+002
3	0	7.979539934077911E+002	1.3545543E+000	-2.7036618E+002
3	0	7.984539933951601E+002	1.3541193E+000	-2.7039801E+002
3	0	7.989539933825290E+002	1.3536867E+000	-2.7038385E+002
3	0	7.994539933698979E+002	1.3532689E+000	-2.7038385E+002
3	0	7.999539933572669E+002	1.3528433E+000	-2.7037326E+002
3	0	8.004539933446358E+002	1.3523948E+000	-2.7036618E+002
3	0	8.009539933320048E+002	1.3518895E+000	-2.7037326E+002
3	0	8.014539933193737E+002	1.3513433E+000	-2.7036972E+002
3	0	8.019539933067426E+002	1.3508879E+000	-2.7039093E+002
3	0	8.024539932941116E+002	1.3504444E+000	-2.7039447E+002
3	0	8.029539932814805E+002	1.3500171E+000	-2.7038742E+002
3	0	8.034539932688494E+002	1.3495893E+000	-2.7038031E+002
3	0	8.039539932562184E+002	1.3491602E+000	-2.7036267E+002
3	0	8.044539932435873E+002	1.3487055E+000	-2.7039093E+002
3	0	8.049539932309563E+002	1.3481865E+000	-2.7036972E+002
3	0	8.054539932183252E+002	1.3476174E+000	-2.7034143E+002
3	0	8.059539932056941E+002	1.3471609E+000	-2.7038385E+002
3	0	8.064539931930631E+002	1.3467152E+000	-2.7040155E+002
3	0	8.069539931804320E+002	1.3462881E+000	-2.7036618E+002
3	0	8.074539931678009E+002	1.3458766E+000	-2.7035913E+002
3	0	8.079539931551699E+002	1.3454809E+000	-2.7038742E+002
3	0	8.084539931425388E+002	1.3450668E+000	-2.7037677E+002
3	0	8.089539931299078E+002	1.3445988E+000	-2.7035913E+002
3	0	8.094539931172767E+002	1.3440922E+000	-2.7036267E+002
3	0	8.099539931046456E+002	1.3436854E+000	-2.7037677E+002
3	0	8.104539930920146E+002	1.3432914E+000	-2.7035913E+002
3	0	8.109539930793835E+002	1.3429052E+000	-2.7038385E+002
3	0	8.114539930667524E+002	1.3425280E+000	-2.7038742E+002
3	0	8.119539930541214E+002	1.3421607E+000	-2.7039093E+002
3	0	8.124539930414903E+002	1.3417741E+000	-2.7038742E+002
3	0	8.129539930288593E+002	1.3413080E+000	-2.7037677E+002
3	0	8.134539930162282E+002	1.3408130E+000	-2.7038031E+002
3	0	8.139539930035971E+002	1.3404025E+000	-2.7036972E+002
3	0	8.144539929909661E+002	1.3400046E+000	-2.7040506E+002
3	0	8.149539929783350E+002	1.3396150E+000	-2.7040155E+002
3	0	8.154539929657039E+002	1.3392345E+000	-2.7038385E+002
3	0	8.159539929530729E+002	1.3388549E+000	-2.7039447E+002
3	0	8.164539929404418E+002	1.3384365E+000	-2.7034851E+002
3	0	8.164543929404317E+002	1.3381450E+000	-2.7036267E+002