EC-Lab ASCII FILE
Nb header lines : 55                          

Open Circuit Voltage

Run on channel : 1 (SN 81504)
User : 
CE vs. WE compliance from -10 V to 10 V
Electrode connection : standard
Potential control : Ewe
Ewe ctrl range : min = -2.50 V, max = 2.50 V
Safety Limits :
	Do not start on E overload
Acquisition started on : 05/10/2026 01:12:03.277
Loaded Setting File :  C:\PEM-WE_measurements\2026\372_IV_IV IrOx, 5 min Pt, 30 min C, etched cathode\new station\Loopeis new\1,46 V different time gaps closed cell\Loopeis 1,46V_45s_4_PEIS from 650Hz to 100Hz.mps
Saved on :
	File : L_09_Loopeis 1,46V_45s_4_PEIS from 650Hz to 100Hz_12_OCV_C01.mpr
	Directory : C:\PEM-WE_measurements\2026\372_IV_IV IrOx, 5 min Pt, 30 min C, etched cathode\new station\Loopeis new\1,46 V different time gaps closed cell\
	Host : 192.168.0.2
Device : SP-150e (SN .005491)
Address : 192.168.0.91
EC-LAB for windows v11.71 (software)
Internet server v28.00 (firmware)
Command interpretor v14.01 (firmware)
Electrode material : 
Initial state : 
Electrolyte : 
Comments : 
Current amplifier : SP-150eB-20A
Electrode surface area : 0.001 cm²
Characteristic mass : 0.001 g
Equivalent Weight : 0.000 g/eq.
Density : 0.000 g/cm3
Volume (V) : 0.001 cm³
Record Analogic IN 1
Text export
   Mode : Standard
   Time format : Elapsed
Cycle Definition : Charge/Discharge alternance
External device configuration :
   device type : Temperature Probe
   device name : Other
   Analog IN 1 : 
      unit : T/Â°C
      max : 100.000 at 2.000 V
      min : 0.000 at 1.460 V
tR (h:m:s)          0:00:45.0000        
dER/dt (mV/h)       1.0                 
record              <Ewe>               
dER (mV)            10.00               
dtR (s)             0.5000              
E range min (V)     -2.500              
E range max (V)     2.500               

mode	error	time/s	<Ewe/V>	Analog IN 1/V	
3	0	4.987369974603644E+002	1.2044162E+000	-2.7036267E+002
3	0	4.992369974477333E+002	1.2554547E+000	-2.7037326E+002
3	0	4.997369974351022E+002	1.2597063E+000	-2.7039801E+002
3	0	5.002369974224712E+002	1.2623405E+000	-2.7037326E+002
3	0	5.007369974098401E+002	1.2641977E+000	-2.7038742E+002
3	0	5.012369973972091E+002	1.2655684E+000	-2.7037677E+002
3	0	5.017369973845780E+002	1.2666218E+000	-2.7037677E+002
3	0	5.022369973719469E+002	1.2674686E+000	-2.7036267E+002
3	0	5.027369973593159E+002	1.2681131E+000	-2.7038385E+002
3	0	5.032369973466848E+002	1.2685684E+000	-2.7036267E+002
3	0	5.037369973340537E+002	1.2689066E+000	-2.7038031E+002
3	0	5.042369973214227E+002	1.2692512E+000	-2.7039093E+002
3	0	5.047369973087916E+002	1.2695500E+000	-2.7038385E+002
3	0	5.052369972961606E+002	1.2697860E+000	-2.7038385E+002
3	0	5.057369972835295E+002	1.2699763E+000	-2.7039801E+002
3	0	5.062369972708984E+002	1.2701257E+000	-2.7036618E+002
3	0	5.067369972582674E+002	1.2702035E+000	-2.7038385E+002
3	0	5.072369972456363E+002	1.2701954E+000	-2.7038742E+002
3	0	5.077369972330052E+002	1.2701405E+000	-2.7037326E+002
3	0	5.082369972203742E+002	1.2701598E+000	-2.7037677E+002
3	0	5.087369972077431E+002	1.2701811E+000	-2.7038031E+002
3	0	5.092369971951121E+002	1.2701850E+000	-2.7040155E+002
3	0	5.097369971824810E+002	1.2701656E+000	-2.7037677E+002
3	0	5.102369971698499E+002	1.2701371E+000	-2.7038031E+002
3	0	5.107369971572189E+002	1.2700561E+000	-2.7038385E+002
3	0	5.112369971445878E+002	1.2699070E+000	-2.7037326E+002
3	0	5.117369971319567E+002	1.2697248E+000	-2.7039093E+002
3	0	5.122369971193257E+002	1.2696294E+000	-2.7036972E+002
3	0	5.127369971066946E+002	1.2695613E+000	-2.7041214E+002
3	0	5.132369970940636E+002	1.2694752E+000	-2.7038385E+002
3	0	5.137369970814325E+002	1.2693629E+000	-2.7039447E+002
3	0	5.142369970688014E+002	1.2692626E+000	-2.7041214E+002
3	0	5.147369970561704E+002	1.2691076E+000	-2.7037677E+002
3	0	5.152369970435393E+002	1.2688694E+000	-2.7036972E+002
3	0	5.157369970309082E+002	1.2686243E+000	-2.7036618E+002
3	0	5.162369970182772E+002	1.2684765E+000	-2.7041214E+002
3	0	5.167369970056461E+002	1.2683519E+000	-2.7038385E+002
3	0	5.172369969930151E+002	1.2682351E+000	-2.7035559E+002
3	0	5.177369969803840E+002	1.2681139E+000	-2.7037326E+002
3	0	5.182369969677529E+002	1.2679987E+000	-2.7040506E+002
3	0	5.187369969551219E+002	1.2678516E+000	-2.7037326E+002
3	0	5.192369969424908E+002	1.2676343E+000	-2.7037326E+002
3	0	5.197369969298597E+002	1.2673990E+000	-2.7038031E+002
3	0	5.202369969172287E+002	1.2672638E+000	-2.7038385E+002
3	0	5.207369969045976E+002	1.2671510E+000	-2.7038031E+002
3	0	5.212369968919666E+002	1.2670304E+000	-2.7038031E+002
3	0	5.217369968793355E+002	1.2669033E+000	-2.7038385E+002
3	0	5.222369968667044E+002	1.2667745E+000	-2.7041214E+002
3	0	5.227369968540734E+002	1.2666082E+000	-2.7038031E+002
3	0	5.232369968414423E+002	1.2663659E+000	-2.7040155E+002
3	0	5.237369968288112E+002	1.2661039E+000	-2.7039093E+002
3	0	5.242369968161802E+002	1.2659370E+000	-2.7036267E+002
3	0	5.247369968035491E+002	1.2657878E+000	-2.7037677E+002
3	0	5.252369967909181E+002	1.2656361E+000	-2.7039447E+002
3	0	5.257369967782870E+002	1.2654732E+000	-2.7037326E+002
3	0	5.262369967656559E+002	1.2653004E+000	-2.7036267E+002
3	0	5.267369967530249E+002	1.2650884E+000	-2.7038031E+002
3	0	5.272369967403938E+002	1.2647885E+000	-2.7037326E+002
3	0	5.277369967277627E+002	1.2644690E+000	-2.7037326E+002
3	0	5.282369967151317E+002	1.2642401E+000	-2.7036972E+002
3	0	5.287369967025006E+002	1.2640382E+000	-2.7039093E+002
3	0	5.292369966898696E+002	1.2638196E+000	-2.7038385E+002
3	0	5.297369966772385E+002	1.2635994E+000	-2.7039093E+002
3	0	5.302369966646074E+002	1.2633740E+000	-2.7036618E+002
3	0	5.307369966519764E+002	1.2631077E+000	-2.7037677E+002
3	0	5.312369966393453E+002	1.2627634E+000	-2.7038385E+002
3	0	5.317369966267142E+002	1.2623980E+000	-2.7040506E+002
3	0	5.322369966140832E+002	1.2621194E+000	-2.7037677E+002
3	0	5.327369966014521E+002	1.2618719E+000	-2.7039093E+002
3	0	5.332369965888211E+002	1.2616131E+000	-2.7036972E+002
3	0	5.337369965761900E+002	1.2613400E+000	-2.7039447E+002
3	0	5.342369965635589E+002	1.2610577E+000	-2.7036267E+002
3	0	5.347369965509279E+002	1.2607366E+000	-2.7039801E+002
3	0	5.352369965382968E+002	1.2603456E+000	-2.7038742E+002
3	0	5.357369965256657E+002	1.2599317E+000	-2.7038742E+002
3	0	5.362369965130347E+002	1.2596112E+000	-2.7036267E+002
3	0	5.367369965004036E+002	1.2593380E+000	-2.7038385E+002
3	0	5.372369964877726E+002	1.2590576E+000	-2.7035913E+002
3	0	5.377369964751415E+002	1.2587857E+000	-2.7040860E+002
3	0	5.382369964625104E+002	1.2585226E+000	-2.7038031E+002
3	0	5.387369964498794E+002	1.2582175E+000	-2.7040860E+002
3	0	5.392369964372483E+002	1.2578382E+000	-2.7036618E+002
3	0	5.397369964246172E+002	1.2574586E+000	-2.7037326E+002
3	0	5.402369964119862E+002	1.2571706E+000	-2.7038031E+002
3	0	5.407369963993551E+002	1.2569116E+000	-2.7037326E+002
3	0	5.412369963867241E+002	1.2566521E+000	-2.7038742E+002
3	0	5.417369963740930E+002	1.2563907E+000	-2.7038742E+002
3	0	5.422369963614619E+002	1.2561420E+000	-2.7040155E+002
3	0	5.427369963488309E+002	1.2558438E+000	-2.7037677E+002
3	0	5.432369963361998E+002	1.2554744E+000	-2.7036972E+002
3	0	5.432615963355784E+002	1.2552687E+000	-2.7037326E+002