EC-Lab ASCII FILE
Nb header lines : 55                          

Open Circuit Voltage

Run on channel : 1 (SN 81504)
User : 
CE vs. WE compliance from -10 V to 10 V
Electrode connection : standard
Potential control : Ewe
Ewe ctrl range : min = -2.50 V, max = 2.50 V
Safety Limits :
	Do not start on E overload
Acquisition started on : 05/10/2026 01:12:03.277
Loaded Setting File :  C:\PEM-WE_measurements\2026\372_IV_IV IrOx, 5 min Pt, 30 min C, etched cathode\new station\Loopeis new\1,46 V different time gaps closed cell\Loopeis 1,46V_45s_4_PEIS from 650Hz to 100Hz.mps
Saved on :
	File : L_09_Loopeis 1,46V_45s_4_PEIS from 650Hz to 100Hz_06_OCV_C01.mpr
	Directory : C:\PEM-WE_measurements\2026\372_IV_IV IrOx, 5 min Pt, 30 min C, etched cathode\new station\Loopeis new\1,46 V different time gaps closed cell\
	Host : 192.168.0.2
Device : SP-150e (SN .005491)
Address : 192.168.0.91
EC-LAB for windows v11.71 (software)
Internet server v28.00 (firmware)
Command interpretor v14.01 (firmware)
Electrode material : 
Initial state : 
Electrolyte : 
Comments : 
Current amplifier : SP-150eB-20A
Electrode surface area : 0.001 cm²
Characteristic mass : 0.001 g
Equivalent Weight : 0.000 g/eq.
Density : 0.000 g/cm3
Volume (V) : 0.001 cm³
Record Analogic IN 1
Text export
   Mode : Standard
   Time format : Elapsed
Cycle Definition : Charge/Discharge alternance
External device configuration :
   device type : Temperature Probe
   device name : Other
   Analog IN 1 : 
      unit : T/Â°C
      max : 100.000 at 2.000 V
      min : 0.000 at 1.460 V
tR (h:m:s)          0:00:45.0000        
dER/dt (mV/h)       1.0                 
record              <Ewe>               
dER (mV)            10.00               
dtR (s)             0.5000              
E range min (V)     -2.500              
E range max (V)     2.500               

mode	error	time/s	<Ewe/V>	Analog IN 1/V	
3	0	2.260065976015176E+002	1.4191734E+000	-2.7038742E+002
3	0	2.265065975888865E+002	1.4110334E+000	-2.7036972E+002
3	0	2.270065975762554E+002	1.4055054E+000	-2.7035913E+002
3	0	2.275065975636244E+002	1.4013525E+000	-2.7038742E+002
3	0	2.280065975509933E+002	1.3979479E+000	-2.7036267E+002
3	0	2.285065975383623E+002	1.3951473E+000	-2.7038031E+002
3	0	2.290065975257312E+002	1.3927735E+000	-2.7038031E+002
3	0	2.295065975131001E+002	1.3906759E+000	-2.7038031E+002
3	0	2.300065975004691E+002	1.3888099E+000	-2.7038385E+002
3	0	2.305065974878380E+002	1.3871063E+000	-2.7038385E+002
3	0	2.310065974752069E+002	1.3855215E+000	-2.7039447E+002
3	0	2.315065974625759E+002	1.3839896E+000	-2.7038742E+002
3	0	2.320065974499448E+002	1.3824786E+000	-2.7040155E+002
3	0	2.325065974373138E+002	1.3811245E+000	-2.7038385E+002
3	0	2.330065974246827E+002	1.3798875E+000	-2.7036972E+002
3	0	2.335065974120516E+002	1.3787106E+000	-2.7036267E+002
3	0	2.340065973994206E+002	1.3776020E+000	-2.7036618E+002
3	0	2.345065973867895E+002	1.3765442E+000	-2.7036267E+002
3	0	2.350065973741584E+002	1.3755330E+000	-2.7038031E+002
3	0	2.355065973615274E+002	1.3745062E+000	-2.7038742E+002
3	0	2.360065973488963E+002	1.3734615E+000	-2.7037677E+002
3	0	2.365065973362653E+002	1.3725379E+000	-2.7038742E+002
3	0	2.370065973236342E+002	1.3717077E+000	-2.7039447E+002
3	0	2.375065973110031E+002	1.3709180E+000	-2.7037326E+002
3	0	2.380065972983721E+002	1.3701686E+000	-2.7040155E+002
3	0	2.385065972857410E+002	1.3694677E+000	-2.7037326E+002
3	0	2.390065972731099E+002	1.3687578E+000	-2.7039093E+002
3	0	2.395065972604789E+002	1.3680193E+000	-2.7040155E+002
3	0	2.400065972478478E+002	1.3672377E+000	-2.7038742E+002
3	0	2.405065972352168E+002	1.3665650E+000	-2.7038742E+002
3	0	2.410065972225857E+002	1.3659523E+000	-2.7036972E+002
3	0	2.415065972099546E+002	1.3653587E+000	-2.7036618E+002
3	0	2.420065971973236E+002	1.3648006E+000	-2.7037677E+002
3	0	2.425065971846925E+002	1.3642583E+000	-2.7039801E+002
3	0	2.430065971720614E+002	1.3637038E+000	-2.7037326E+002
3	0	2.435065971594304E+002	1.3631002E+000	-2.7037677E+002
3	0	2.440065971467993E+002	1.3624498E+000	-2.7036618E+002
3	0	2.445065971341683E+002	1.3618975E+000	-2.7038385E+002
3	0	2.450065971215372E+002	1.3613933E+000	-2.7036972E+002
3	0	2.455065971089061E+002	1.3609025E+000	-2.7040506E+002
3	0	2.460065970962751E+002	1.3604228E+000	-2.7039447E+002
3	0	2.465065970836440E+002	1.3599484E+000	-2.7036972E+002
3	0	2.470065970710129E+002	1.3594620E+000	-2.7038031E+002
3	0	2.475065970583819E+002	1.3589096E+000	-2.7039093E+002
3	0	2.480065970457508E+002	1.3583144E+000	-2.7038385E+002
3	0	2.485065970331198E+002	1.3578002E+000	-2.7036972E+002
3	0	2.490065970204887E+002	1.3573427E+000	-2.7036267E+002
3	0	2.495065970078576E+002	1.3568896E+000	-2.7036618E+002
3	0	2.500065969952266E+002	1.3564388E+000	-2.7036972E+002
3	0	2.505065969825955E+002	1.3559968E+000	-2.7038385E+002
3	0	2.510065969699644E+002	1.3555417E+000	-2.7038031E+002
3	0	2.515065969573334E+002	1.3550192E+000	-2.7041214E+002
3	0	2.520065969447023E+002	1.3544471E+000	-2.7038385E+002
3	0	2.525065969320713E+002	1.3539546E+000	-2.7037326E+002
3	0	2.530065969194402E+002	1.3535051E+000	-2.7035913E+002
3	0	2.535065969068091E+002	1.3530595E+000	-2.7040506E+002
3	0	2.540065968941781E+002	1.3526119E+000	-2.7037677E+002
3	0	2.545065968815470E+002	1.3521802E+000	-2.7038742E+002
3	0	2.550065968689159E+002	1.3517437E+000	-2.7035913E+002
3	0	2.555065968562849E+002	1.3512427E+000	-2.7038031E+002
3	0	2.560065968436538E+002	1.3506966E+000	-2.7036972E+002
3	0	2.565065968310228E+002	1.3502487E+000	-2.7038742E+002
3	0	2.570065968183917E+002	1.3498559E+000	-2.7036618E+002
3	0	2.575065968057606E+002	1.3494729E+000	-2.7040860E+002
3	0	2.580065967931296E+002	1.3490841E+000	-2.7037326E+002
3	0	2.585065967804985E+002	1.3487071E+000	-2.7037326E+002
3	0	2.590065967678675E+002	1.3483146E+000	-2.7038031E+002
3	0	2.595065967552364E+002	1.3478636E+000	-2.7039093E+002
3	0	2.600065967426053E+002	1.3473645E+000	-2.7036267E+002
3	0	2.605065967299743E+002	1.3469490E+000	-2.7037326E+002
3	0	2.610065967173432E+002	1.3465723E+000	-2.7036267E+002
3	0	2.615065967047121E+002	1.3461989E+000	-2.7037326E+002
3	0	2.620065966920811E+002	1.3458366E+000	-2.7039447E+002
3	0	2.625065966794500E+002	1.3454740E+000	-2.7038385E+002
3	0	2.630065966668190E+002	1.3450794E+000	-2.7035559E+002
3	0	2.635065966541879E+002	1.3446209E+000	-2.7039093E+002
3	0	2.640065966415568E+002	1.3441125E+000	-2.7038031E+002
3	0	2.645065966289258E+002	1.3436865E+000	-2.7040155E+002
3	0	2.650065966162947E+002	1.3432958E+000	-2.7038031E+002
3	0	2.655065966036636E+002	1.3429072E+000	-2.7038385E+002
3	0	2.660065965910326E+002	1.3425070E+000	-2.7036972E+002
3	0	2.665065965784015E+002	1.3421208E+000	-2.7034497E+002
3	0	2.670065965657705E+002	1.3417135E+000	-2.7038031E+002
3	0	2.675065965531394E+002	1.3412333E+000	-2.7036618E+002
3	0	2.680065965405083E+002	1.3407102E+000	-2.7039801E+002
3	0	2.685065965278773E+002	1.3402541E+000	-2.7037677E+002
3	0	2.690065965152462E+002	1.3398316E+000	-2.7039093E+002
3	0	2.695065965026151E+002	1.3394244E+000	-2.7039801E+002
3	0	2.700065964899841E+002	1.3390032E+000	-2.7036267E+002
3	0	2.705065964773530E+002	1.3385856E+000	-2.7036267E+002
3	0	2.705069964773429E+002	1.3383836E+000	-2.7041568E+002