EC-Lab ASCII FILE
Nb header lines : 55                          

Open Circuit Voltage

Run on channel : 1 (SN 81504)
User : 
CE vs. WE compliance from -10 V to 10 V
Electrode connection : standard
Potential control : Ewe
Ewe ctrl range : min = -2.50 V, max = 2.50 V
Safety Limits :
	Do not start on E overload
Acquisition started on : 05/10/2026 01:12:03.277
Loaded Setting File :  C:\PEM-WE_measurements\2026\372_IV_IV IrOx, 5 min Pt, 30 min C, etched cathode\new station\Loopeis new\1,46 V different time gaps closed cell\Loopeis 1,46V_45s_4_PEIS from 650Hz to 100Hz.mps
Saved on :
	File : L_09_Loopeis 1,46V_45s_4_PEIS from 650Hz to 100Hz_18_OCV_C01.mpr
	Directory : C:\PEM-WE_measurements\2026\372_IV_IV IrOx, 5 min Pt, 30 min C, etched cathode\new station\Loopeis new\1,46 V different time gaps closed cell\
	Host : 192.168.0.2
Device : SP-150e (SN .005491)
Address : 192.168.0.91
EC-LAB for windows v11.71 (software)
Internet server v28.00 (firmware)
Command interpretor v14.01 (firmware)
Electrode material : 
Initial state : 
Electrolyte : 
Comments : 
Current amplifier : SP-150eB-20A
Electrode surface area : 0.001 cm²
Characteristic mass : 0.001 g
Equivalent Weight : 0.000 g/eq.
Density : 0.000 g/cm3
Volume (V) : 0.001 cm³
Record Analogic IN 1
Text export
   Mode : Standard
   Time format : Elapsed
Cycle Definition : Charge/Discharge alternance
External device configuration :
   device type : Temperature Probe
   device name : Other
   Analog IN 1 : 
      unit : T/Â°C
      max : 100.000 at 2.000 V
      min : 0.000 at 1.460 V
tR (h:m:s)          0:00:45.0000        
dER/dt (mV/h)       1.0                 
record              <Ewe>               
dER (mV)            10.00               
dtR (s)             0.5000              
E range min (V)     -2.500              
E range max (V)     2.500               

mode	error	time/s	<Ewe/V>	Analog IN 1/V	
3	0	7.712669940319756E+002	1.4187768E+000	-2.7038742E+002
3	0	7.717669940193446E+002	1.4103469E+000	-2.7036618E+002
3	0	7.722669940067135E+002	1.4047115E+000	-2.7035559E+002
3	0	7.727669939940824E+002	1.4006027E+000	-2.7040155E+002
3	0	7.732669939814514E+002	1.3973322E+000	-2.7039447E+002
3	0	7.737669939688203E+002	1.3945936E+000	-2.7035913E+002
3	0	7.742669939561893E+002	1.3922262E+000	-2.7036618E+002
3	0	7.747669939435582E+002	1.3900840E+000	-2.7035913E+002
3	0	7.752669939309271E+002	1.3880665E+000	-2.7036267E+002
3	0	7.757669939182961E+002	1.3862038E+000	-2.7038031E+002
3	0	7.762669939056650E+002	1.3845731E+000	-2.7038385E+002
3	0	7.767669938930339E+002	1.3830665E+000	-2.7036267E+002
3	0	7.772669938804029E+002	1.3816659E+000	-2.7038385E+002
3	0	7.777669938677718E+002	1.3803617E+000	-2.7038031E+002
3	0	7.782669938551408E+002	1.3791342E+000	-2.7036618E+002
3	0	7.787669938425097E+002	1.3779285E+000	-2.7037677E+002
3	0	7.792669938298786E+002	1.3767081E+000	-2.7036972E+002
3	0	7.797669938172476E+002	1.3755682E+000	-2.7036267E+002
3	0	7.802669938046165E+002	1.3745770E+000	-2.7040860E+002
3	0	7.807669937919854E+002	1.3736402E+000	-2.7037677E+002
3	0	7.812669937793544E+002	1.3727530E+000	-2.7036618E+002
3	0	7.817669937667233E+002	1.3719090E+000	-2.7039801E+002
3	0	7.822669937540923E+002	1.3710961E+000	-2.7036972E+002
3	0	7.827669937414612E+002	1.3702821E+000	-2.7038385E+002
3	0	7.832669937288301E+002	1.3694460E+000	-2.7037326E+002
3	0	7.837669937161991E+002	1.3686397E+000	-2.7036972E+002
3	0	7.842669937035680E+002	1.3679434E+000	-2.7036267E+002
3	0	7.847669936909369E+002	1.3672701E+000	-2.7037326E+002
3	0	7.852669936783059E+002	1.3666244E+000	-2.7038385E+002
3	0	7.857669936656748E+002	1.3660028E+000	-2.7038742E+002
3	0	7.862669936530438E+002	1.3654048E+000	-2.7038742E+002
3	0	7.867669936404127E+002	1.3647825E+000	-2.7038385E+002
3	0	7.872669936277816E+002	1.3641061E+000	-2.7039447E+002
3	0	7.877669936151506E+002	1.3634609E+000	-2.7040155E+002
3	0	7.882669936025195E+002	1.3629028E+000	-2.7039447E+002
3	0	7.887669935898884E+002	1.3623662E+000	-2.7038031E+002
3	0	7.892669935772574E+002	1.3618528E+000	-2.7036972E+002
3	0	7.897669935646263E+002	1.3613428E+000	-2.7034497E+002
3	0	7.902669935519953E+002	1.3608518E+000	-2.7037677E+002
3	0	7.907669935393642E+002	1.3603120E+000	-2.7038742E+002
3	0	7.912669935267331E+002	1.3597180E+000	-2.7037677E+002
3	0	7.917669935141021E+002	1.3591464E+000	-2.7039093E+002
3	0	7.922669935014710E+002	1.3586503E+000	-2.7039093E+002
3	0	7.927669934888399E+002	1.3581762E+000	-2.7038742E+002
3	0	7.932669934762089E+002	1.3577014E+000	-2.7038031E+002
3	0	7.937669934635778E+002	1.3572475E+000	-2.7036972E+002
3	0	7.942669934509468E+002	1.3567897E+000	-2.7039447E+002
3	0	7.947669934383157E+002	1.3562876E+000	-2.7039093E+002
3	0	7.952669934256846E+002	1.3557314E+000	-2.7037326E+002
3	0	7.957669934130536E+002	1.3551908E+000	-2.7040155E+002
3	0	7.962669934004225E+002	1.3547280E+000	-2.7038031E+002
3	0	7.967669933877914E+002	1.3542793E+000	-2.7037326E+002
3	0	7.972669933751604E+002	1.3538289E+000	-2.7039093E+002
3	0	7.977669933625293E+002	1.3533934E+000	-2.7041214E+002
3	0	7.982669933498983E+002	1.3529631E+000	-2.7041568E+002
3	0	7.987669933372672E+002	1.3524950E+000	-2.7034497E+002
3	0	7.992669933246361E+002	1.3519893E+000	-2.7039801E+002
3	0	7.997669933120051E+002	1.3514988E+000	-2.7039093E+002
3	0	8.002669932993740E+002	1.3510907E+000	-2.7037677E+002
3	0	8.007669932867429E+002	1.3507100E+000	-2.7038031E+002
3	0	8.012669932741119E+002	1.3503379E+000	-2.7036618E+002
3	0	8.017669932614808E+002	1.3499712E+000	-2.7038742E+002
3	0	8.022669932488498E+002	1.3496164E+000	-2.7036972E+002
3	0	8.027669932362187E+002	1.3492113E+000	-2.7038385E+002
3	0	8.032669932235876E+002	1.3487409E+000	-2.7036618E+002
3	0	8.037669932109566E+002	1.3482955E+000	-2.7038031E+002
3	0	8.042669931983255E+002	1.3479196E+000	-2.7037677E+002
3	0	8.047669931856944E+002	1.3475546E+000	-2.7036972E+002
3	0	8.052669931730634E+002	1.3471971E+000	-2.7036972E+002
3	0	8.057669931604323E+002	1.3468393E+000	-2.7038031E+002
3	0	8.062669931478013E+002	1.3464719E+000	-2.7039093E+002
3	0	8.067669931351702E+002	1.3460683E+000	-2.7036972E+002
3	0	8.072669931225391E+002	1.3456030E+000	-2.7039801E+002
3	0	8.077669931099081E+002	1.3451482E+000	-2.7038385E+002
3	0	8.082669930972770E+002	1.3447583E+000	-2.7039093E+002
3	0	8.087669930846459E+002	1.3443823E+000	-2.7036618E+002
3	0	8.092669930720149E+002	1.3439990E+000	-2.7038031E+002
3	0	8.097669930593838E+002	1.3436188E+000	-2.7037677E+002
3	0	8.102669930467528E+002	1.3432362E+000	-2.7036618E+002
3	0	8.107669930341217E+002	1.3428040E+000	-2.7039447E+002
3	0	8.112669930214906E+002	1.3423072E+000	-2.7036618E+002
3	0	8.117669930088596E+002	1.3418247E+000	-2.7036972E+002
3	0	8.122669929962285E+002	1.3414153E+000	-2.7038031E+002
3	0	8.127669929835974E+002	1.3410072E+000	-2.7036972E+002
3	0	8.132669929709664E+002	1.3406029E+000	-2.7037326E+002
3	0	8.137669929583353E+002	1.3402076E+000	-2.7037677E+002
3	0	8.142669929457043E+002	1.3397943E+000	-2.7037326E+002
3	0	8.147669929330732E+002	1.3393401E+000	-2.7036618E+002
3	0	8.152669929204421E+002	1.3388114E+000	-2.7039801E+002
3	0	8.157669929078111E+002	1.3382999E+000	-2.7038031E+002
3	0	8.157673929078010E+002	1.3380878E+000	-2.7036972E+002