EC-Lab ASCII FILE
Nb header lines : 55                          

Open Circuit Voltage

Run on channel : 1 (SN 81504)
User : 
CE vs. WE compliance from -10 V to 10 V
Electrode connection : standard
Potential control : Ewe
Ewe ctrl range : min = -2.50 V, max = 2.50 V
Safety Limits :
	Do not start on E overload
Acquisition started on : 05/10/2026 01:12:03.277
Loaded Setting File :  C:\PEM-WE_measurements\2026\372_IV_IV IrOx, 5 min Pt, 30 min C, etched cathode\new station\Loopeis new\1,46 V different time gaps closed cell\Loopeis 1,46V_45s_4_PEIS from 650Hz to 100Hz.mps
Saved on :
	File : L_09_Loopeis 1,46V_45s_4_PEIS from 650Hz to 100Hz_08_OCV_C01.mpr
	Directory : C:\PEM-WE_measurements\2026\372_IV_IV IrOx, 5 min Pt, 30 min C, etched cathode\new station\Loopeis new\1,46 V different time gaps closed cell\
	Host : 192.168.0.2
Device : SP-150e (SN .005491)
Address : 192.168.0.91
EC-LAB for windows v11.71 (software)
Internet server v28.00 (firmware)
Command interpretor v14.01 (firmware)
Electrode material : 
Initial state : 
Electrolyte : 
Comments : 
Current amplifier : SP-150eB-20A
Electrode surface area : 0.001 cm²
Characteristic mass : 0.001 g
Equivalent Weight : 0.000 g/eq.
Density : 0.000 g/cm3
Volume (V) : 0.001 cm³
Record Analogic IN 1
Text export
   Mode : Standard
   Time format : Elapsed
Cycle Definition : Charge/Discharge alternance
External device configuration :
   device type : Temperature Probe
   device name : Other
   Analog IN 1 : 
      unit : T/Â°C
      max : 100.000 at 2.000 V
      min : 0.000 at 1.460 V
tR (h:m:s)          0:00:45.0000        
dER/dt (mV/h)       1.0                 
record              <Ewe>               
dER (mV)            10.00               
dtR (s)             0.5000              
E range min (V)     -2.500              
E range max (V)     2.500               

mode	error	time/s	<Ewe/V>	Analog IN 1/V	
3	0	3.162423986149224E+002	1.2054435E+000	-2.7036618E+002
3	0	3.167423986022914E+002	1.2555896E+000	-2.7036267E+002
3	0	3.172423985896603E+002	1.2598934E+000	-2.7038742E+002
3	0	3.177423985770292E+002	1.2625121E+000	-2.7039093E+002
3	0	3.182423985643982E+002	1.2643340E+000	-2.7038385E+002
3	0	3.187423985517671E+002	1.2656777E+000	-2.7037326E+002
3	0	3.192423985391360E+002	1.2666602E+000	-2.7035913E+002
3	0	3.197423985265050E+002	1.2674005E+000	-2.7039093E+002
3	0	3.202423985138739E+002	1.2680467E+000	-2.7035205E+002
3	0	3.207423985012429E+002	1.2685992E+000	-2.7037677E+002
3	0	3.212423984886118E+002	1.2690438E+000	-2.7039801E+002
3	0	3.217423984759807E+002	1.2694093E+000	-2.7038385E+002
3	0	3.222423984633497E+002	1.2697033E+000	-2.7035913E+002
3	0	3.227423984507186E+002	1.2699205E+000	-2.7039447E+002
3	0	3.232423984380875E+002	1.2700360E+000	-2.7036618E+002
3	0	3.237423984254565E+002	1.2700835E+000	-2.7038385E+002
3	0	3.242423984128254E+002	1.2701703E+000	-2.7039801E+002
3	0	3.247423984001944E+002	1.2702566E+000	-2.7038742E+002
3	0	3.252423983875633E+002	1.2703104E+000	-2.7038385E+002
3	0	3.257423983749322E+002	1.2703409E+000	-2.7038031E+002
3	0	3.262423983623012E+002	1.2703646E+000	-2.7038385E+002
3	0	3.267423983496701E+002	1.2703384E+000	-2.7038385E+002
3	0	3.272423983370390E+002	1.2702342E+000	-2.7041214E+002
3	0	3.277423983244080E+002	1.2700789E+000	-2.7040155E+002
3	0	3.282423983117769E+002	1.2700022E+000	-2.7036972E+002
3	0	3.287423982991459E+002	1.2699440E+000	-2.7038742E+002
3	0	3.292423982865148E+002	1.2698760E+000	-2.7036972E+002
3	0	3.297423982738837E+002	1.2697979E+000	-2.7037677E+002
3	0	3.302423982612527E+002	1.2697138E+000	-2.7038742E+002
3	0	3.307423982486216E+002	1.2696000E+000	-2.7037326E+002
3	0	3.312423982359905E+002	1.2694198E+000	-2.7038385E+002
3	0	3.317423982233595E+002	1.2692006E+000	-2.7039801E+002
3	0	3.322423982107284E+002	1.2690572E+000	-2.7038385E+002
3	0	3.327423981980974E+002	1.2689337E+000	-2.7038031E+002
3	0	3.332423981854663E+002	1.2688103E+000	-2.7040860E+002
3	0	3.337423981728352E+002	1.2686787E+000	-2.7036267E+002
3	0	3.342423981602042E+002	1.2685452E+000	-2.7037326E+002
3	0	3.347423981475731E+002	1.2683713E+000	-2.7038742E+002
3	0	3.352423981349421E+002	1.2681347E+000	-2.7039801E+002
3	0	3.357423981223110E+002	1.2678717E+000	-2.7037326E+002
3	0	3.362423981096799E+002	1.2676989E+000	-2.7037326E+002
3	0	3.367423980970489E+002	1.2675608E+000	-2.7038385E+002
3	0	3.372423980844178E+002	1.2674253E+000	-2.7037677E+002
3	0	3.377423980717867E+002	1.2672894E+000	-2.7040155E+002
3	0	3.382423980591557E+002	1.2671626E+000	-2.7039447E+002
3	0	3.387423980465246E+002	1.2670074E+000	-2.7036267E+002
3	0	3.392423980338936E+002	1.2667912E+000	-2.7037677E+002
3	0	3.397423980212625E+002	1.2665370E+000	-2.7038031E+002
3	0	3.402423980086314E+002	1.2663718E+000	-2.7037677E+002
3	0	3.407423979960004E+002	1.2662290E+000	-2.7039093E+002
3	0	3.412423979833693E+002	1.2660890E+000	-2.7041214E+002
3	0	3.417423979707382E+002	1.2659339E+000	-2.7038742E+002
3	0	3.422423979581072E+002	1.2657794E+000	-2.7038031E+002
3	0	3.427423979454761E+002	1.2655940E+000	-2.7039447E+002
3	0	3.432423979328451E+002	1.2653524E+000	-2.7036267E+002
3	0	3.437423979202140E+002	1.2650574E+000	-2.7037326E+002
3	0	3.442423979075829E+002	1.2648456E+000	-2.7037677E+002
3	0	3.447423978949519E+002	1.2646576E+000	-2.7039447E+002
3	0	3.452423978823208E+002	1.2644697E+000	-2.7036972E+002
3	0	3.457423978696897E+002	1.2642698E+000	-2.7037326E+002
3	0	3.462423978570587E+002	1.2640742E+000	-2.7040155E+002
3	0	3.467423978444276E+002	1.2638344E+000	-2.7039447E+002
3	0	3.472423978317966E+002	1.2635339E+000	-2.7039093E+002
3	0	3.477423978191655E+002	1.2631850E+000	-2.7038385E+002
3	0	3.482423978065344E+002	1.2629187E+000	-2.7036618E+002
3	0	3.487423977939034E+002	1.2626708E+000	-2.7037326E+002
3	0	3.492423977812723E+002	1.2624235E+000	-2.7041568E+002
3	0	3.497423977686412E+002	1.2621672E+000	-2.7038385E+002
3	0	3.502423977560102E+002	1.2619162E+000	-2.7038385E+002
3	0	3.507423977433791E+002	1.2616301E+000	-2.7038385E+002
3	0	3.512423977307481E+002	1.2612821E+000	-2.7036267E+002
3	0	3.517423977181170E+002	1.2608818E+000	-2.7036267E+002
3	0	3.522423977054859E+002	1.2605604E+000	-2.7039801E+002
3	0	3.527423976928549E+002	1.2602630E+000	-2.7037677E+002
3	0	3.532423976802238E+002	1.2599629E+000	-2.7039447E+002
3	0	3.537423976675927E+002	1.2596565E+000	-2.7036267E+002
3	0	3.542423976549617E+002	1.2593544E+000	-2.7037326E+002
3	0	3.547423976423306E+002	1.2590303E+000	-2.7038742E+002
3	0	3.552423976296996E+002	1.2586453E+000	-2.7035913E+002
3	0	3.557423976170685E+002	1.2582175E+000	-2.7038385E+002
3	0	3.562423976044374E+002	1.2578859E+000	-2.7039093E+002
3	0	3.567423975918064E+002	1.2575890E+000	-2.7036972E+002
3	0	3.572423975791753E+002	1.2573109E+000	-2.7038031E+002
3	0	3.577423975665442E+002	1.2570394E+000	-2.7036972E+002
3	0	3.582423975539132E+002	1.2567785E+000	-2.7037677E+002
3	0	3.587423975412821E+002	1.2564911E+000	-2.7039093E+002
3	0	3.592423975286511E+002	1.2561411E+000	-2.7039801E+002
3	0	3.597423975160200E+002	1.2557603E+000	-2.7038385E+002
3	0	3.602423975033889E+002	1.2554595E+000	-2.7037326E+002
3	0	3.607423974907579E+002	1.2551836E+000	-2.7040860E+002
3	0	3.607657974901667E+002	1.2550365E+000	-2.7038031E+002