EC-Lab ASCII FILE
Nb header lines : 55                          

Open Circuit Voltage

Run on channel : 1 (SN 81504)
User : 
CE vs. WE compliance from -10 V to 10 V
Electrode connection : standard
Potential control : Ewe
Ewe ctrl range : min = -2.50 V, max = 2.50 V
Safety Limits :
	Do not start on E overload
Acquisition started on : 05/10/2026 01:12:03.277
Loaded Setting File :  C:\PEM-WE_measurements\2026\372_IV_IV IrOx, 5 min Pt, 30 min C, etched cathode\new station\Loopeis new\1,46 V different time gaps closed cell\Loopeis 1,46V_45s_4_PEIS from 650Hz to 100Hz.mps
Saved on :
	File : L_09_Loopeis 1,46V_45s_4_PEIS from 650Hz to 100Hz_02_OCV_C01.mpr
	Directory : C:\PEM-WE_measurements\2026\372_IV_IV IrOx, 5 min Pt, 30 min C, etched cathode\new station\Loopeis new\1,46 V different time gaps closed cell\
	Host : 192.168.0.2
Device : SP-150e (SN .005491)
Address : 192.168.0.91
EC-LAB for windows v11.71 (software)
Internet server v28.00 (firmware)
Command interpretor v14.01 (firmware)
Electrode material : 
Initial state : 
Electrolyte : 
Comments : 
Current amplifier : SP-150eB-20A
Electrode surface area : 0.001 cm²
Characteristic mass : 0.001 g
Equivalent Weight : 0.000 g/eq.
Density : 0.000 g/cm3
Volume (V) : 0.001 cm³
Record Analogic IN 1
Text export
   Mode : Standard
   Time format : Elapsed
Cycle Definition : Charge/Discharge alternance
External device configuration :
   device type : Temperature Probe
   device name : Other
   Analog IN 1 : 
      unit : T/Â°C
      max : 100.000 at 2.000 V
      min : 0.000 at 1.460 V
tR (h:m:s)          0:00:45.0000        
dER/dt (mV/h)       1.0                 
record              <Ewe>               
dER (mV)            10.00               
dtR (s)             0.5000              
E range min (V)     -2.500              
E range max (V)     2.500               

mode	error	time/s	<Ewe/V>	Analog IN 1/V	
3	0	4.549979885057837E+001	1.4190805E+000	-2.7038031E+002
3	0	4.599979883794731E+001	1.4108975E+000	-2.7037326E+002
3	0	4.649979882531625E+001	1.4053755E+000	-2.7039447E+002
3	0	4.699979881268519E+001	1.4013319E+000	-2.7038742E+002
3	0	4.749979880005412E+001	1.3980794E+000	-2.7040155E+002
3	0	4.799979878742306E+001	1.3952650E+000	-2.7037677E+002
3	0	4.849979877479200E+001	1.3927674E+000	-2.7035913E+002
3	0	4.899979876216094E+001	1.3906291E+000	-2.7040155E+002
3	0	4.949979874952987E+001	1.3887475E+000	-2.7039447E+002
3	0	4.999979873689881E+001	1.3870368E+000	-2.7035913E+002
3	0	5.049979872426775E+001	1.3854660E+000	-2.7037326E+002
3	0	5.099979871163669E+001	1.3840142E+000	-2.7038385E+002
3	0	5.149979869900562E+001	1.3826208E+000	-2.7040860E+002
3	0	5.199979868637456E+001	1.3812338E+000	-2.7037326E+002
3	0	5.249979867374350E+001	1.3798821E+000	-2.7038031E+002
3	0	5.299979866111244E+001	1.3786865E+000	-2.7038031E+002
3	0	5.349979864848137E+001	1.3775715E+000	-2.7037677E+002
3	0	5.399979863585031E+001	1.3765156E+000	-2.7038385E+002
3	0	5.449979862321925E+001	1.3755132E+000	-2.7038385E+002
3	0	5.499979861058819E+001	1.3745790E+000	-2.7037326E+002
3	0	5.549979859795712E+001	1.3736377E+000	-2.7036267E+002
3	0	5.599979858532606E+001	1.3726877E+000	-2.7036267E+002
3	0	5.649979857269500E+001	1.3717406E+000	-2.7036618E+002
3	0	5.699979856006394E+001	1.3709295E+000	-2.7039093E+002
3	0	5.749979854743287E+001	1.3701837E+000	-2.7037326E+002
3	0	5.799979853480181E+001	1.3694761E+000	-2.7040155E+002
3	0	5.849979852217075E+001	1.3687824E+000	-2.7039801E+002
3	0	5.899979850953969E+001	1.3681364E+000	-2.7040860E+002
3	0	5.949979849690862E+001	1.3674704E+000	-2.7038031E+002
3	0	5.999979848427756E+001	1.3667481E+000	-2.7038742E+002
3	0	6.049979847164650E+001	1.3660243E+000	-2.7038742E+002
3	0	6.099979845901544E+001	1.3654156E+000	-2.7035913E+002
3	0	6.149979844638438E+001	1.3648504E+000	-2.7038742E+002
3	0	6.199979843375331E+001	1.3643088E+000	-2.7036618E+002
3	0	6.249979842112225E+001	1.3637631E+000	-2.7037677E+002
3	0	6.299979840849119E+001	1.3632475E+000	-2.7039093E+002
3	0	6.349979839586013E+001	1.3627040E+000	-2.7037677E+002
3	0	6.399979838322906E+001	1.3621013E+000	-2.7039093E+002
3	0	6.449979837059800E+001	1.3614829E+000	-2.7038031E+002
3	0	6.499979835796694E+001	1.3609670E+000	-2.7036267E+002
3	0	6.549979834533588E+001	1.3604890E+000	-2.7037326E+002
3	0	6.599979833270481E+001	1.3600072E+000	-2.7037677E+002
3	0	6.649979832007375E+001	1.3595307E+000	-2.7037677E+002
3	0	6.699979830744269E+001	1.3590615E+000	-2.7035205E+002
3	0	6.749979829481163E+001	1.3585659E+000	-2.7038031E+002
3	0	6.799979828218056E+001	1.3580019E+000	-2.7038031E+002
3	0	6.849979826954950E+001	1.3574141E+000	-2.7037677E+002
3	0	6.899979825691844E+001	1.3569301E+000	-2.7036618E+002
3	0	6.949979824428738E+001	1.3564786E+000	-2.7037326E+002
3	0	6.999979823165631E+001	1.3560371E+000	-2.7038385E+002
3	0	7.049979821902525E+001	1.3556023E+000	-2.7038742E+002
3	0	7.099979820639419E+001	1.3551706E+000	-2.7036267E+002
3	0	7.149979819376313E+001	1.3547014E+000	-2.7035205E+002
3	0	7.199979818113206E+001	1.3541613E+000	-2.7037677E+002
3	0	7.249979816850100E+001	1.3536031E+000	-2.7039801E+002
3	0	7.299979815586994E+001	1.3531370E+000	-2.7039093E+002
3	0	7.349979814323888E+001	1.3526914E+000	-2.7036972E+002
3	0	7.399979813060781E+001	1.3522522E+000	-2.7037677E+002
3	0	7.449979811797675E+001	1.3518308E+000	-2.7040155E+002
3	0	7.499979810534569E+001	1.3514137E+000	-2.7036972E+002
3	0	7.549979809271463E+001	1.3509700E+000	-2.7037677E+002
3	0	7.599979808008356E+001	1.3504725E+000	-2.7037677E+002
3	0	7.649979806745250E+001	1.3499669E+000	-2.7039447E+002
3	0	7.699979805482144E+001	1.3495564E+000	-2.7036972E+002
3	0	7.749979804219038E+001	1.3491706E+000	-2.7035205E+002
3	0	7.799979802955932E+001	1.3487866E+000	-2.7039093E+002
3	0	7.849979801692825E+001	1.3484086E+000	-2.7038031E+002
3	0	7.899979800429719E+001	1.3480343E+000	-2.7036267E+002
3	0	7.949979799166613E+001	1.3476198E+000	-2.7037677E+002
3	0	7.999979797903507E+001	1.3471537E+000	-2.7038385E+002
3	0	8.049979796640400E+001	1.3466549E+000	-2.7035559E+002
3	0	8.099979795377294E+001	1.3462483E+000	-2.7037326E+002
3	0	8.149979794114188E+001	1.3458719E+000	-2.7037326E+002
3	0	8.199979792851082E+001	1.3455012E+000	-2.7037677E+002
3	0	8.249979791587975E+001	1.3451290E+000	-2.7037326E+002
3	0	8.299979790324869E+001	1.3447466E+000	-2.7038031E+002
3	0	8.349979789061763E+001	1.3443258E+000	-2.7038385E+002
3	0	8.399979787798657E+001	1.3438311E+000	-2.7036618E+002
3	0	8.449979786535550E+001	1.3433225E+000	-2.7039801E+002
3	0	8.499979785272444E+001	1.3428998E+000	-2.7039093E+002
3	0	8.549979784009338E+001	1.3424975E+000	-2.7036618E+002
3	0	8.599979782746232E+001	1.3420998E+000	-2.7038385E+002
3	0	8.649979781483125E+001	1.3416978E+000	-2.7035913E+002
3	0	8.699979780220019E+001	1.3412973E+000	-2.7039093E+002
3	0	8.749979778956913E+001	1.3408555E+000	-2.7037677E+002
3	0	8.799979777693807E+001	1.3403445E+000	-2.7038385E+002
3	0	8.849979776430700E+001	1.3398085E+000	-2.7037677E+002
3	0	8.899979775167594E+001	1.3393719E+000	-2.7039801E+002
3	0	8.949979773904488E+001	1.3389535E+000	-2.7038742E+002
3	0	8.999979772641382E+001	1.3385198E+000	-2.7036618E+002
3	0	9.000019772640371E+001	1.3382785E+000	-2.7038742E+002