EC-Lab ASCII FILE
Nb header lines : 55                          

Open Circuit Voltage

Run on channel : 1 (SN 81504)
User : 
CE vs. WE compliance from -10 V to 10 V
Electrode connection : standard
Potential control : Ewe
Ewe ctrl range : min = -2.50 V, max = 2.50 V
Safety Limits :
	Do not start on E overload
Acquisition started on : 05/10/2026 01:12:03.277
Loaded Setting File :  C:\PEM-WE_measurements\2026\372_IV_IV IrOx, 5 min Pt, 30 min C, etched cathode\new station\Loopeis new\1,46 V different time gaps closed cell\Loopeis 1,46V_45s_4_PEIS from 650Hz to 100Hz.mps
Saved on :
	File : L_09_Loopeis 1,46V_45s_4_PEIS from 650Hz to 100Hz_10_OCV_C01.mpr
	Directory : C:\PEM-WE_measurements\2026\372_IV_IV IrOx, 5 min Pt, 30 min C, etched cathode\new station\Loopeis new\1,46 V different time gaps closed cell\
	Host : 192.168.0.2
Device : SP-150e (SN .005491)
Address : 192.168.0.91
EC-LAB for windows v11.71 (software)
Internet server v28.00 (firmware)
Command interpretor v14.01 (firmware)
Electrode material : 
Initial state : 
Electrolyte : 
Comments : 
Current amplifier : SP-150eB-20A
Electrode surface area : 0.001 cm²
Characteristic mass : 0.001 g
Equivalent Weight : 0.000 g/eq.
Density : 0.000 g/cm3
Volume (V) : 0.001 cm³
Record Analogic IN 1
Text export
   Mode : Standard
   Time format : Elapsed
Cycle Definition : Charge/Discharge alternance
External device configuration :
   device type : Temperature Probe
   device name : Other
   Analog IN 1 : 
      unit : T/Â°C
      max : 100.000 at 2.000 V
      min : 0.000 at 1.460 V
tR (h:m:s)          0:00:45.0000        
dER/dt (mV/h)       1.0                 
record              <Ewe>               
dER (mV)            10.00               
dtR (s)             0.5000              
E range min (V)     -2.500              
E range max (V)     2.500               

mode	error	time/s	<Ewe/V>	Analog IN 1/V	
3	0	4.062663963407249E+002	1.4191433E+000	-2.7035913E+002
3	0	4.067663963280938E+002	1.4109509E+000	-2.7038385E+002
3	0	4.072663963154628E+002	1.4052721E+000	-2.7039801E+002
3	0	4.077663963028317E+002	1.4010084E+000	-2.7039093E+002
3	0	4.082663962902006E+002	1.3976747E+000	-2.7039093E+002
3	0	4.087663962775696E+002	1.3949113E+000	-2.7037677E+002
3	0	4.092663962649385E+002	1.3925428E+000	-2.7037677E+002
3	0	4.097663962523075E+002	1.3904495E+000	-2.7039093E+002
3	0	4.102663962396764E+002	1.3885812E+000	-2.7037326E+002
3	0	4.107663962270453E+002	1.3868484E+000	-2.7038742E+002
3	0	4.112663962144143E+002	1.3851678E+000	-2.7038385E+002
3	0	4.117663962017832E+002	1.3835648E+000	-2.7038742E+002
3	0	4.122663961891521E+002	1.3821344E+000	-2.7039447E+002
3	0	4.127663961765211E+002	1.3808161E+000	-2.7040155E+002
3	0	4.132663961638900E+002	1.3795772E+000	-2.7037677E+002
3	0	4.137663961512590E+002	1.3784152E+000	-2.7038031E+002
3	0	4.142663961386279E+002	1.3772997E+000	-2.7038742E+002
3	0	4.147663961259968E+002	1.3762083E+000	-2.7036618E+002
3	0	4.152663961133658E+002	1.3751045E+000	-2.7036618E+002
3	0	4.157663961007347E+002	1.3740082E+000	-2.7038031E+002
3	0	4.162663960881036E+002	1.3730425E+000	-2.7038385E+002
3	0	4.167663960754726E+002	1.3721497E+000	-2.7035559E+002
3	0	4.172663960628415E+002	1.3713138E+000	-2.7037677E+002
3	0	4.177663960502105E+002	1.3705226E+000	-2.7036972E+002
3	0	4.182663960375794E+002	1.3697728E+000	-2.7039093E+002
3	0	4.187663960249483E+002	1.3690162E+000	-2.7038385E+002
3	0	4.192663960123173E+002	1.3682362E+000	-2.7037677E+002
3	0	4.197663959996862E+002	1.3674351E+000	-2.7035205E+002
3	0	4.202663959870551E+002	1.3667512E+000	-2.7037326E+002
3	0	4.207663959744241E+002	1.3661124E+000	-2.7039801E+002
3	0	4.212663959617930E+002	1.3655047E+000	-2.7038385E+002
3	0	4.217663959491620E+002	1.3649259E+000	-2.7038742E+002
3	0	4.222663959365309E+002	1.3643708E+000	-2.7039093E+002
3	0	4.227663959238998E+002	1.3637997E+000	-2.7037677E+002
3	0	4.232663959112688E+002	1.3631796E+000	-2.7038031E+002
3	0	4.237663958986377E+002	1.3625281E+000	-2.7038742E+002
3	0	4.242663958860066E+002	1.3619846E+000	-2.7039447E+002
3	0	4.247663958733756E+002	1.3614711E+000	-2.7039093E+002
3	0	4.252663958607445E+002	1.3609811E+000	-2.7039801E+002
3	0	4.257663958481135E+002	1.3604982E+000	-2.7036267E+002
3	0	4.262663958354824E+002	1.3600293E+000	-2.7037326E+002
3	0	4.267663958228513E+002	1.3595389E+000	-2.7037326E+002
3	0	4.272663958102203E+002	1.3589782E+000	-2.7038031E+002
3	0	4.277663957975892E+002	1.3584019E+000	-2.7038031E+002
3	0	4.282663957849581E+002	1.3579078E+000	-2.7036618E+002
3	0	4.287663957723271E+002	1.3574493E+000	-2.7034851E+002
3	0	4.292663957596960E+002	1.3570105E+000	-2.7038031E+002
3	0	4.297663957470650E+002	1.3565718E+000	-2.7036972E+002
3	0	4.302663957344339E+002	1.3561450E+000	-2.7037326E+002
3	0	4.307663957218028E+002	1.3556949E+000	-2.7038385E+002
3	0	4.312663957091718E+002	1.3551747E+000	-2.7038385E+002
3	0	4.317663956965407E+002	1.3546268E+000	-2.7036267E+002
3	0	4.322663956839097E+002	1.3541584E+000	-2.7038385E+002
3	0	4.327663956712786E+002	1.3537197E+000	-2.7038742E+002
3	0	4.332663956586475E+002	1.3532913E+000	-2.7039093E+002
3	0	4.337663956460165E+002	1.3528607E+000	-2.7036618E+002
3	0	4.342663956333854E+002	1.3524466E+000	-2.7038742E+002
3	0	4.347663956207543E+002	1.3520058E+000	-2.7036972E+002
3	0	4.352663956081233E+002	1.3514899E+000	-2.7036972E+002
3	0	4.357663955954922E+002	1.3509543E+000	-2.7039447E+002
3	0	4.362663955828612E+002	1.3505139E+000	-2.7037326E+002
3	0	4.367663955702301E+002	1.3501067E+000	-2.7036618E+002
3	0	4.372663955575990E+002	1.3497140E+000	-2.7038385E+002
3	0	4.377663955449680E+002	1.3493385E+000	-2.7034851E+002
3	0	4.382663955323369E+002	1.3489687E+000	-2.7038031E+002
3	0	4.387663955197058E+002	1.3485720E+000	-2.7038031E+002
3	0	4.392663955070748E+002	1.3481163E+000	-2.7041919E+002
3	0	4.397663954944437E+002	1.3476286E+000	-2.7036972E+002
3	0	4.402663954818127E+002	1.3472352E+000	-2.7038385E+002
3	0	4.407663954691816E+002	1.3468692E+000	-2.7038742E+002
3	0	4.412663954565505E+002	1.3465133E+000	-2.7036972E+002
3	0	4.417663954439195E+002	1.3461604E+000	-2.7036972E+002
3	0	4.422663954312884E+002	1.3458111E+000	-2.7038031E+002
3	0	4.427663954186573E+002	1.3454350E+000	-2.7037677E+002
3	0	4.432663954060263E+002	1.3449781E+000	-2.7039801E+002
3	0	4.437663953933952E+002	1.3444897E+000	-2.7036618E+002
3	0	4.442663953807642E+002	1.3440876E+000	-2.7036618E+002
3	0	4.447663953681331E+002	1.3437041E+000	-2.7039801E+002
3	0	4.452663953555020E+002	1.3433322E+000	-2.7039093E+002
3	0	4.457663953428710E+002	1.3429536E+000	-2.7040155E+002
3	0	4.462663953302399E+002	1.3425862E+000	-2.7034851E+002
3	0	4.467663953176088E+002	1.3421900E+000	-2.7041214E+002
3	0	4.472663953049778E+002	1.3417237E+000	-2.7037677E+002
3	0	4.477663952923467E+002	1.3412085E+000	-2.7037326E+002
3	0	4.482663952797157E+002	1.3407930E+000	-2.7037326E+002
3	0	4.487663952670846E+002	1.3403964E+000	-2.7038742E+002
3	0	4.492663952544535E+002	1.3399966E+000	-2.7038742E+002
3	0	4.497663952418225E+002	1.3396034E+000	-2.7038031E+002
3	0	4.502663952291914E+002	1.3392094E+000	-2.7040506E+002
3	0	4.507663952165603E+002	1.3387831E+000	-2.7037677E+002
3	0	4.507667952165502E+002	1.3385839E+000	-2.7037677E+002