EC-Lab ASCII FILE
Nb header lines : 55                          

Open Circuit Voltage

Run on channel : 1 (SN 81504)
User : 
CE vs. WE compliance from -10 V to 10 V
Electrode connection : standard
Potential control : Ewe
Ewe ctrl range : min = -2.50 V, max = 2.50 V
Safety Limits :
	Do not start on E overload
Acquisition started on : 05/10/2026 01:12:03.277
Loaded Setting File :  C:\PEM-WE_measurements\2026\372_IV_IV IrOx, 5 min Pt, 30 min C, etched cathode\new station\Loopeis new\1,46 V different time gaps closed cell\Loopeis 1,46V_45s_4_PEIS from 650Hz to 100Hz.mps
Saved on :
	File : L_09_Loopeis 1,46V_45s_4_PEIS from 650Hz to 100Hz_16_OCV_C01.mpr
	Directory : C:\PEM-WE_measurements\2026\372_IV_IV IrOx, 5 min Pt, 30 min C, etched cathode\new station\Loopeis new\1,46 V different time gaps closed cell\
	Host : 192.168.0.2
Device : SP-150e (SN .005491)
Address : 192.168.0.91
EC-LAB for windows v11.71 (software)
Internet server v28.00 (firmware)
Command interpretor v14.01 (firmware)
Electrode material : 
Initial state : 
Electrolyte : 
Comments : 
Current amplifier : SP-150eB-20A
Electrode surface area : 0.001 cm²
Characteristic mass : 0.001 g
Equivalent Weight : 0.000 g/eq.
Density : 0.000 g/cm3
Volume (V) : 0.001 cm³
Record Analogic IN 1
Text export
   Mode : Standard
   Time format : Elapsed
Cycle Definition : Charge/Discharge alternance
External device configuration :
   device type : Temperature Probe
   device name : Other
   Analog IN 1 : 
      unit : T/Â°C
      max : 100.000 at 2.000 V
      min : 0.000 at 1.460 V
tR (h:m:s)          0:00:45.0000        
dER/dt (mV/h)       1.0                 
record              <Ewe>               
dER (mV)            10.00               
dtR (s)             0.5000              
E range min (V)     -2.500              
E range max (V)     2.500               

mode	error	time/s	<Ewe/V>	Analog IN 1/V	
3	0	6.812417963062035E+002	1.2037808E+000	-2.7037326E+002
3	0	6.817417962935724E+002	1.2552931E+000	-2.7037326E+002
3	0	6.822417962809413E+002	1.2596180E+000	-2.7036618E+002
3	0	6.827417962683103E+002	1.2622296E+000	-2.7035913E+002
3	0	6.832417962556792E+002	1.2639942E+000	-2.7039447E+002
3	0	6.837417962430482E+002	1.2653047E+000	-2.7035913E+002
3	0	6.842417962304171E+002	1.2663578E+000	-2.7036618E+002
3	0	6.847417962177860E+002	1.2672031E+000	-2.7037326E+002
3	0	6.852417962051550E+002	1.2678779E+000	-2.7036972E+002
3	0	6.857417961925239E+002	1.2684225E+000	-2.7039801E+002
3	0	6.862417961798928E+002	1.2688640E+000	-2.7038031E+002
3	0	6.867417961672618E+002	1.2691867E+000	-2.7036972E+002
3	0	6.872417961546307E+002	1.2693812E+000	-2.7041568E+002
3	0	6.877417961419997E+002	1.2695329E+000	-2.7037677E+002
3	0	6.882417961293686E+002	1.2697107E+000	-2.7035913E+002
3	0	6.887417961167375E+002	1.2698557E+000	-2.7038742E+002
3	0	6.892417961041065E+002	1.2699599E+000	-2.7041214E+002
3	0	6.897417960914754E+002	1.2700384E+000	-2.7038742E+002
3	0	6.902417960788443E+002	1.2700959E+000	-2.7037677E+002
3	0	6.907417960662133E+002	1.2700819E+000	-2.7034143E+002
3	0	6.912417960535822E+002	1.2699951E+000	-2.7035205E+002
3	0	6.917417960409512E+002	1.2699047E+000	-2.7036972E+002
3	0	6.922417960283201E+002	1.2698736E+000	-2.7039447E+002
3	0	6.927417960156890E+002	1.2698390E+000	-2.7039447E+002
3	0	6.932417960030580E+002	1.2697865E+000	-2.7037326E+002
3	0	6.937417959904269E+002	1.2697247E+000	-2.7035559E+002
3	0	6.942417959777958E+002	1.2696557E+000	-2.7037677E+002
3	0	6.947417959651648E+002	1.2695235E+000	-2.7036618E+002
3	0	6.952417959525337E+002	1.2693214E+000	-2.7038031E+002
3	0	6.957417959399027E+002	1.2691252E+000	-2.7037677E+002
3	0	6.962417959272716E+002	1.2690045E+000	-2.7039801E+002
3	0	6.967417959146405E+002	1.2688850E+000	-2.7036972E+002
3	0	6.972417959020095E+002	1.2687579E+000	-2.7037677E+002
3	0	6.977417958893784E+002	1.2686321E+000	-2.7038742E+002
3	0	6.982417958767473E+002	1.2685177E+000	-2.7039801E+002
3	0	6.987417958641163E+002	1.2683704E+000	-2.7038385E+002
3	0	6.992417958514852E+002	1.2681550E+000	-2.7038031E+002
3	0	6.997417958388542E+002	1.2679541E+000	-2.7038742E+002
3	0	7.002417958262231E+002	1.2678387E+000	-2.7039093E+002
3	0	7.007417958135920E+002	1.2677351E+000	-2.7037677E+002
3	0	7.012417958009610E+002	1.2676293E+000	-2.7038031E+002
3	0	7.017417957883299E+002	1.2675315E+000	-2.7037677E+002
3	0	7.022417957756988E+002	1.2674198E+000	-2.7038742E+002
3	0	7.027417957630678E+002	1.2672679E+000	-2.7040155E+002
3	0	7.032417957504367E+002	1.2670407E+000	-2.7039093E+002
3	0	7.037417957378057E+002	1.2668228E+000	-2.7040155E+002
3	0	7.042417957251746E+002	1.2666867E+000	-2.7036972E+002
3	0	7.047417957125435E+002	1.2665575E+000	-2.7038742E+002
3	0	7.052417956999125E+002	1.2664235E+000	-2.7038742E+002
3	0	7.057417956872814E+002	1.2662838E+000	-2.7040506E+002
3	0	7.062417956746503E+002	1.2661376E+000	-2.7038385E+002
3	0	7.067417956620193E+002	1.2659453E+000	-2.7038742E+002
3	0	7.072417956493882E+002	1.2656701E+000	-2.7038031E+002
3	0	7.077417956367572E+002	1.2654092E+000	-2.7038385E+002
3	0	7.082417956241261E+002	1.2652115E+000	-2.7037677E+002
3	0	7.087417956114950E+002	1.2650261E+000	-2.7038385E+002
3	0	7.092417955988640E+002	1.2648259E+000	-2.7036972E+002
3	0	7.097417955862329E+002	1.2646337E+000	-2.7038031E+002
3	0	7.102417955736018E+002	1.2644306E+000	-2.7038031E+002
3	0	7.107417955609708E+002	1.2641795E+000	-2.7037326E+002
3	0	7.112417955483397E+002	1.2638603E+000	-2.7037326E+002
3	0	7.117417955357087E+002	1.2635338E+000	-2.7038031E+002
3	0	7.122417955230776E+002	1.2632935E+000	-2.7036618E+002
3	0	7.127417955104465E+002	1.2630568E+000	-2.7038031E+002
3	0	7.132417954978155E+002	1.2628150E+000	-2.7036618E+002
3	0	7.137417954851844E+002	1.2625662E+000	-2.7036618E+002
3	0	7.142417954725533E+002	1.2623148E+000	-2.7037326E+002
3	0	7.147417954599223E+002	1.2620043E+000	-2.7038742E+002
3	0	7.152417954472912E+002	1.2616382E+000	-2.7038031E+002
3	0	7.157417954346602E+002	1.2612756E+000	-2.7038031E+002
3	0	7.162417954220291E+002	1.2609888E+000	-2.7036618E+002
3	0	7.167417954093980E+002	1.2607101E+000	-2.7036618E+002
3	0	7.172417953967670E+002	1.2604350E+000	-2.7039801E+002
3	0	7.177417953841359E+002	1.2601613E+000	-2.7041214E+002
3	0	7.182417953715049E+002	1.2598999E+000	-2.7036618E+002
3	0	7.187417953588738E+002	1.2595937E+000	-2.7036267E+002
3	0	7.192417953462427E+002	1.2592216E+000	-2.7037677E+002
3	0	7.197417953336117E+002	1.2588801E+000	-2.7037677E+002
3	0	7.202417953209806E+002	1.2586187E+000	-2.7037326E+002
3	0	7.207417953083495E+002	1.2583740E+000	-2.7038385E+002
3	0	7.212417952957185E+002	1.2581297E+000	-2.7037326E+002
3	0	7.217417952830874E+002	1.2578905E+000	-2.7037677E+002
3	0	7.222417952704564E+002	1.2576591E+000	-2.7040155E+002
3	0	7.227417952578253E+002	1.2573808E+000	-2.7039801E+002
3	0	7.232417952451942E+002	1.2570285E+000	-2.7038385E+002
3	0	7.237417952325632E+002	1.2566866E+000	-2.7037326E+002
3	0	7.242417952199321E+002	1.2564296E+000	-2.7036618E+002
3	0	7.247417952073010E+002	1.2561752E+000	-2.7037677E+002
3	0	7.252417951946700E+002	1.2559184E+000	-2.7039801E+002
3	0	7.257417951820389E+002	1.2556593E+000	-2.7038742E+002
3	0	7.257663951814175E+002	1.2555200E+000	-2.7039093E+002