EC-Lab ASCII FILE
Nb header lines : 55                          

Open Circuit Voltage

Run on channel : 1 (SN 81504)
User : 
CE vs. WE compliance from -10 V to 10 V
Electrode connection : standard
Potential control : Ewe
Ewe ctrl range : min = -2.50 V, max = 2.50 V
Safety Limits :
	Do not start on E overload
Acquisition started on : 05/10/2026 01:12:03.277
Loaded Setting File :  C:\PEM-WE_measurements\2026\372_IV_IV IrOx, 5 min Pt, 30 min C, etched cathode\new station\Loopeis new\1,46 V different time gaps closed cell\Loopeis 1,46V_45s_4_PEIS from 650Hz to 100Hz.mps
Saved on :
	File : L_09_Loopeis 1,46V_45s_4_PEIS from 650Hz to 100Hz_20_OCV_C01.mpr
	Directory : C:\PEM-WE_measurements\2026\372_IV_IV IrOx, 5 min Pt, 30 min C, etched cathode\new station\Loopeis new\1,46 V different time gaps closed cell\
	Host : 192.168.0.2
Device : SP-150e (SN .005491)
Address : 192.168.0.91
EC-LAB for windows v11.71 (software)
Internet server v28.00 (firmware)
Command interpretor v14.01 (firmware)
Electrode material : 
Initial state : 
Electrolyte : 
Comments : 
Current amplifier : SP-150eB-20A
Electrode surface area : 0.001 cm²
Characteristic mass : 0.001 g
Equivalent Weight : 0.000 g/eq.
Density : 0.000 g/cm3
Volume (V) : 0.001 cm³
Record Analogic IN 1
Text export
   Mode : Standard
   Time format : Elapsed
Cycle Definition : Charge/Discharge alternance
External device configuration :
   device type : Temperature Probe
   device name : Other
   Analog IN 1 : 
      unit : T/Â°C
      max : 100.000 at 2.000 V
      min : 0.000 at 1.460 V
tR (h:m:s)          0:00:45.0000        
dER/dt (mV/h)       1.0                 
record              <Ewe>               
dER (mV)            10.00               
dtR (s)             0.5000              
E range min (V)     -2.500              
E range max (V)     2.500               

mode	error	time/s	<Ewe/V>	Analog IN 1/V	
3	0	8.634705951389333E+002	1.2029808E+000	-2.7036618E+002
3	0	8.639705951263022E+002	1.2545962E+000	-2.7038031E+002
3	0	8.644705951136712E+002	1.2589191E+000	-2.7039447E+002
3	0	8.649705951010401E+002	1.2615578E+000	-2.7039447E+002
3	0	8.654705950884090E+002	1.2633853E+000	-2.7036972E+002
3	0	8.659705950757780E+002	1.2647511E+000	-2.7037326E+002
3	0	8.664705950631469E+002	1.2657826E+000	-2.7037677E+002
3	0	8.669705950505158E+002	1.2665422E+000	-2.7039801E+002
3	0	8.674705950378848E+002	1.2671191E+000	-2.7036618E+002
3	0	8.679705950252537E+002	1.2676340E+000	-2.7037677E+002
3	0	8.684705950126227E+002	1.2680699E+000	-2.7039093E+002
3	0	8.689705949999916E+002	1.2684314E+000	-2.7035559E+002
3	0	8.694705949873605E+002	1.2687140E+000	-2.7038742E+002
3	0	8.699705949747295E+002	1.2689458E+000	-2.7036618E+002
3	0	8.704705949620984E+002	1.2691042E+000	-2.7037677E+002
3	0	8.709705949494673E+002	1.2691689E+000	-2.7037326E+002
3	0	8.714705949368363E+002	1.2691683E+000	-2.7037326E+002
3	0	8.719705949242052E+002	1.2692150E+000	-2.7039447E+002
3	0	8.724705949115742E+002	1.2692627E+000	-2.7037677E+002
3	0	8.729705948989431E+002	1.2692804E+000	-2.7037677E+002
3	0	8.734705948863120E+002	1.2692877E+000	-2.7035913E+002
3	0	8.739705948736810E+002	1.2692771E+000	-2.7036972E+002
3	0	8.744705948610499E+002	1.2692230E+000	-2.7038031E+002
3	0	8.749705948484188E+002	1.2691005E+000	-2.7037326E+002
3	0	8.754705948357878E+002	1.2689317E+000	-2.7038385E+002
3	0	8.759705948231567E+002	1.2688304E+000	-2.7039447E+002
3	0	8.764705948105257E+002	1.2687432E+000	-2.7036618E+002
3	0	8.769705947978946E+002	1.2686479E+000	-2.7039093E+002
3	0	8.774705947852635E+002	1.2685453E+000	-2.7036618E+002
3	0	8.779705947726325E+002	1.2684518E+000	-2.7036267E+002
3	0	8.784705947600014E+002	1.2683297E+000	-2.7038385E+002
3	0	8.789705947473703E+002	1.2681526E+000	-2.7038031E+002
3	0	8.794705947347393E+002	1.2679361E+000	-2.7036618E+002
3	0	8.799705947221082E+002	1.2678095E+000	-2.7039801E+002
3	0	8.804705947094772E+002	1.2677116E+000	-2.7035913E+002
3	0	8.809705946968461E+002	1.2676197E+000	-2.7037326E+002
3	0	8.814705946842150E+002	1.2675264E+000	-2.7036972E+002
3	0	8.819705946715840E+002	1.2674407E+000	-2.7039801E+002
3	0	8.824705946589529E+002	1.2673194E+000	-2.7038385E+002
3	0	8.829705946463218E+002	1.2671423E+000	-2.7036972E+002
3	0	8.834705946336908E+002	1.2669218E+000	-2.7038031E+002
3	0	8.839705946210597E+002	1.2667909E+000	-2.7038742E+002
3	0	8.844705946084287E+002	1.2666866E+000	-2.7036267E+002
3	0	8.849705945957976E+002	1.2665815E+000	-2.7037326E+002
3	0	8.854705945831665E+002	1.2664729E+000	-2.7038385E+002
3	0	8.859705945705355E+002	1.2663641E+000	-2.7038742E+002
3	0	8.864705945579044E+002	1.2662306E+000	-2.7039801E+002
3	0	8.869705945452733E+002	1.2660143E+000	-2.7036972E+002
3	0	8.874705945326423E+002	1.2657722E+000	-2.7038742E+002
3	0	8.879705945200112E+002	1.2655994E+000	-2.7040155E+002
3	0	8.884705945073802E+002	1.2654444E+000	-2.7038385E+002
3	0	8.889705944947491E+002	1.2652956E+000	-2.7038031E+002
3	0	8.894705944821180E+002	1.2651327E+000	-2.7038031E+002
3	0	8.899705944694870E+002	1.2649728E+000	-2.7039447E+002
3	0	8.904705944568559E+002	1.2647735E+000	-2.7038385E+002
3	0	8.909705944442248E+002	1.2645090E+000	-2.7038385E+002
3	0	8.914705944315938E+002	1.2642009E+000	-2.7037326E+002
3	0	8.919705944189627E+002	1.2639709E+000	-2.7035205E+002
3	0	8.924705944063317E+002	1.2637662E+000	-2.7036618E+002
3	0	8.929705943937006E+002	1.2635597E+000	-2.7036267E+002
3	0	8.934705943810695E+002	1.2633421E+000	-2.7039093E+002
3	0	8.939705943684385E+002	1.2631202E+000	-2.7037677E+002
3	0	8.944705943558074E+002	1.2628685E+000	-2.7036267E+002
3	0	8.949705943431763E+002	1.2625486E+000	-2.7037677E+002
3	0	8.954705943305453E+002	1.2621852E+000	-2.7040860E+002
3	0	8.959705943179142E+002	1.2618951E+000	-2.7037326E+002
3	0	8.964705943052832E+002	1.2616385E+000	-2.7036267E+002
3	0	8.969705942926521E+002	1.2613761E+000	-2.7036618E+002
3	0	8.974705942800210E+002	1.2611113E+000	-2.7038385E+002
3	0	8.979705942673900E+002	1.2608401E+000	-2.7036972E+002
3	0	8.984705942547589E+002	1.2605457E+000	-2.7036972E+002
3	0	8.989705942421278E+002	1.2601918E+000	-2.7036618E+002
3	0	8.994705942294968E+002	1.2598140E+000	-2.7036618E+002
3	0	8.999705942168657E+002	1.2595218E+000	-2.7035913E+002
3	0	9.004705942042347E+002	1.2592679E+000	-2.7038742E+002
3	0	9.009705941916036E+002	1.2590289E+000	-2.7037677E+002
3	0	9.014705941789725E+002	1.2587854E+000	-2.7038031E+002
3	0	9.019705941663415E+002	1.2585597E+000	-2.7036618E+002
3	0	9.024705941537104E+002	1.2583047E+000	-2.7037677E+002
3	0	9.029705941410793E+002	1.2579759E+000	-2.7038031E+002
3	0	9.034705941284483E+002	1.2576195E+000	-2.7039093E+002
3	0	9.039705941158172E+002	1.2573429E+000	-2.7036618E+002
3	0	9.044705941031862E+002	1.2571013E+000	-2.7036267E+002
3	0	9.049705940905551E+002	1.2568557E+000	-2.7038385E+002
3	0	9.054705940779240E+002	1.2566141E+000	-2.7035205E+002
3	0	9.059705940652930E+002	1.2563757E+000	-2.7038031E+002
3	0	9.064705940526619E+002	1.2561039E+000	-2.7037326E+002
3	0	9.069705940400308E+002	1.2557545E+000	-2.7037677E+002
3	0	9.074705940273998E+002	1.2553689E+000	-2.7038385E+002
3	0	9.079705940147687E+002	1.2550651E+000	-2.7037677E+002
3	0	9.079951940141473E+002	1.2549251E+000	-2.7040860E+002