EC-Lab ASCII FILE
Nb header lines : 55                          

Open Circuit Voltage

Run on channel : 1 (SN 81504)
User : 
CE vs. WE compliance from -10 V to 10 V
Electrode connection : standard
Potential control : Ewe
Ewe ctrl range : min = -2.50 V, max = 2.50 V
Safety Limits :
	Do not start on E overload
Acquisition started on : 05/10/2026 01:27:16.117
Loaded Setting File :  C:\PEM-WE_measurements\2026\372_IV_IV IrOx, 5 min Pt, 30 min C, etched cathode\new station\Loopeis new\1,46 V different time gaps closed cell\Loopeis 1,46V_45s_5_PEIS from 65Hz to 10Hz.mps
Saved on :
	File : L_10_Loopeis 1,46V_45s_5_PEIS from 65Hz to 10Hz_04_OCV_C01.mpr
	Directory : C:\PEM-WE_measurements\2026\372_IV_IV IrOx, 5 min Pt, 30 min C, etched cathode\new station\Loopeis new\1,46 V different time gaps closed cell\
	Host : 192.168.0.2
Device : SP-150e (SN .005491)
Address : 192.168.0.91
EC-LAB for windows v11.71 (software)
Internet server v28.00 (firmware)
Command interpretor v14.01 (firmware)
Electrode material : 
Initial state : 
Electrolyte : 
Comments : 
Current amplifier : SP-150eB-20A
Electrode surface area : 0.001 cm²
Characteristic mass : 0.001 g
Equivalent Weight : 0.000 g/eq.
Density : 0.000 g/cm3
Volume (V) : 0.001 cm³
Record Analogic IN 1
Text export
   Mode : Standard
   Time format : Elapsed
Cycle Definition : Charge/Discharge alternance
External device configuration :
   device type : Temperature Probe
   device name : Other
   Analog IN 1 : 
      unit : T/Â°C
      max : 100.000 at 2.000 V
      min : 0.000 at 1.460 V
tR (h:m:s)          0:00:45.0000        
dER/dt (mV/h)       1.0                 
record              <Ewe>               
dER (mV)            10.00               
dtR (s)             0.5000              
E range min (V)     -2.500              
E range max (V)     2.500               

mode	error	time/s	<Ewe/V>	Analog IN 1/V	
3	0	1.357225998633658E+002	1.2029653E+000	-2.7037677E+002
3	0	1.362225998507347E+002	1.2544799E+000	-2.7037326E+002
3	0	1.367225998381036E+002	1.2587854E+000	-2.7036972E+002
3	0	1.372225998254726E+002	1.2614100E+000	-2.7038031E+002
3	0	1.377225998128415E+002	1.2632266E+000	-2.7039093E+002
3	0	1.382225998002104E+002	1.2645456E+000	-2.7037677E+002
3	0	1.387225997875794E+002	1.2655010E+000	-2.7036972E+002
3	0	1.392225997749483E+002	1.2662457E+000	-2.7040506E+002
3	0	1.397225997623173E+002	1.2669023E+000	-2.7038742E+002
3	0	1.402225997496862E+002	1.2674142E+000	-2.7037326E+002
3	0	1.407225997370551E+002	1.2678230E+000	-2.7038742E+002
3	0	1.412225997244241E+002	1.2681582E+000	-2.7037326E+002
3	0	1.417225997117930E+002	1.2684230E+000	-2.7038031E+002
3	0	1.422225996991619E+002	1.2686019E+000	-2.7039447E+002
3	0	1.427225996865309E+002	1.2686756E+000	-2.7036618E+002
3	0	1.432225996738998E+002	1.2687337E+000	-2.7038031E+002
3	0	1.437225996612688E+002	1.2688318E+000	-2.7038031E+002
3	0	1.442225996486377E+002	1.2688855E+000	-2.7037677E+002
3	0	1.447225996360066E+002	1.2689128E+000	-2.7038031E+002
3	0	1.452225996233756E+002	1.2689240E+000	-2.7039447E+002
3	0	1.457225996107445E+002	1.2689164E+000	-2.7039093E+002
3	0	1.462225995981134E+002	1.2688676E+000	-2.7037677E+002
3	0	1.467225995854824E+002	1.2687366E+000	-2.7037326E+002
3	0	1.472225995728513E+002	1.2686138E+000	-2.7036618E+002
3	0	1.477225995602203E+002	1.2685621E+000	-2.7036267E+002
3	0	1.482225995475892E+002	1.2684951E+000	-2.7037677E+002
3	0	1.487225995349581E+002	1.2684314E+000	-2.7035559E+002
3	0	1.492225995223271E+002	1.2683787E+000	-2.7036972E+002
3	0	1.497225995096960E+002	1.2683188E+000	-2.7039093E+002
3	0	1.502225994970649E+002	1.2682217E+000	-2.7038031E+002
3	0	1.507225994844339E+002	1.2680626E+000	-2.7037677E+002
3	0	1.512225994718028E+002	1.2679130E+000	-2.7037677E+002
3	0	1.517225994591718E+002	1.2678488E+000	-2.7037326E+002
3	0	1.522225994465407E+002	1.2677716E+000	-2.7038742E+002
3	0	1.527225994339096E+002	1.2676932E+000	-2.7034851E+002
3	0	1.532225994212786E+002	1.2676218E+000	-2.7039801E+002
3	0	1.537225994086475E+002	1.2675477E+000	-2.7037326E+002
3	0	1.542225993960164E+002	1.2674315E+000	-2.7038385E+002
3	0	1.547225993833854E+002	1.2672362E+000	-2.7039447E+002
3	0	1.552225993707543E+002	1.2670488E+000	-2.7039093E+002
3	0	1.557225993581233E+002	1.2669448E+000	-2.7039093E+002
3	0	1.562225993454922E+002	1.2668250E+000	-2.7040155E+002
3	0	1.567225993328611E+002	1.2667017E+000	-2.7034497E+002
3	0	1.572225993202301E+002	1.2665874E+000	-2.7038031E+002
3	0	1.577225993075990E+002	1.2664672E+000	-2.7036267E+002
3	0	1.582225992949679E+002	1.2663031E+000	-2.7038742E+002
3	0	1.587225992823369E+002	1.2660767E+000	-2.7036618E+002
3	0	1.592225992697058E+002	1.2658418E+000	-2.7039447E+002
3	0	1.597225992570748E+002	1.2656912E+000	-2.7038742E+002
3	0	1.602225992444437E+002	1.2655175E+000	-2.7038385E+002
3	0	1.607225992318126E+002	1.2653443E+000	-2.7039093E+002
3	0	1.612225992191816E+002	1.2651750E+000	-2.7038385E+002
3	0	1.617225992065505E+002	1.2649910E+000	-2.7039093E+002
3	0	1.622225991939195E+002	1.2647665E+000	-2.7037677E+002
3	0	1.627225991812884E+002	1.2644645E+000	-2.7036618E+002
3	0	1.632225991686573E+002	1.2641667E+000	-2.7037326E+002
3	0	1.637225991560263E+002	1.2639503E+000	-2.7037326E+002
3	0	1.642225991433952E+002	1.2637215E+000	-2.7039447E+002
3	0	1.647225991307641E+002	1.2634906E+000	-2.7037326E+002
3	0	1.652225991181331E+002	1.2632653E+000	-2.7037677E+002
3	0	1.657225991055020E+002	1.2630327E+000	-2.7039801E+002
3	0	1.662225990928710E+002	1.2627548E+000	-2.7037677E+002
3	0	1.667225990802399E+002	1.2624074E+000	-2.7036618E+002
3	0	1.672225990676088E+002	1.2620716E+000	-2.7037326E+002
3	0	1.677225990549778E+002	1.2618213E+000	-2.7037677E+002
3	0	1.682225990423467E+002	1.2615705E+000	-2.7037326E+002
3	0	1.687225990297156E+002	1.2613341E+000	-2.7039093E+002
3	0	1.692225990170846E+002	1.2611054E+000	-2.7038385E+002
3	0	1.697225990044535E+002	1.2608937E+000	-2.7039093E+002
3	0	1.702225989918225E+002	1.2606425E+000	-2.7040155E+002
3	0	1.707225989791914E+002	1.2603288E+000	-2.7037677E+002
3	0	1.712225989665603E+002	1.2600273E+000	-2.7038031E+002
3	0	1.717225989539293E+002	1.2598177E+000	-2.7037326E+002
3	0	1.722225989412982E+002	1.2595930E+000	-2.7035559E+002
3	0	1.727225989286671E+002	1.2593776E+000	-2.7038742E+002
3	0	1.732225989160361E+002	1.2591684E+000	-2.7037677E+002
3	0	1.737225989034050E+002	1.2589482E+000	-2.7037677E+002
3	0	1.742225988907740E+002	1.2586892E+000	-2.7036972E+002
3	0	1.747225988781429E+002	1.2583665E+000	-2.7039447E+002
3	0	1.752225988655118E+002	1.2580431E+000	-2.7041214E+002
3	0	1.757225988528808E+002	1.2578051E+000	-2.7038742E+002
3	0	1.762225988402497E+002	1.2575579E+000	-2.7036972E+002
3	0	1.767225988276186E+002	1.2573121E+000	-2.7037326E+002
3	0	1.772225988149876E+002	1.2570701E+000	-2.7038031E+002
3	0	1.777225988023565E+002	1.2568185E+000	-2.7037326E+002
3	0	1.782225987897255E+002	1.2565210E+000	-2.7038742E+002
3	0	1.787225987770944E+002	1.2561537E+000	-2.7038385E+002
3	0	1.792225987644633E+002	1.2557920E+000	-2.7037677E+002
3	0	1.797225987518323E+002	1.2555101E+000	-2.7037677E+002
3	0	1.802225987392012E+002	1.2552078E+000	-2.7037677E+002
3	0	1.802459987386101E+002	1.2550552E+000	-2.7039801E+002