EC-Lab ASCII FILE
Nb header lines : 55                          

Open Circuit Voltage

Run on channel : 1 (SN 81504)
User : 
CE vs. WE compliance from -10 V to 10 V
Electrode connection : standard
Potential control : Ewe
Ewe ctrl range : min = -2.50 V, max = 2.50 V
Safety Limits :
	Do not start on E overload
Acquisition started on : 05/10/2026 01:27:16.117
Loaded Setting File :  C:\PEM-WE_measurements\2026\372_IV_IV IrOx, 5 min Pt, 30 min C, etched cathode\new station\Loopeis new\1,46 V different time gaps closed cell\Loopeis 1,46V_45s_5_PEIS from 65Hz to 10Hz.mps
Saved on :
	File : L_10_Loopeis 1,46V_45s_5_PEIS from 65Hz to 10Hz_02_OCV_C01.mpr
	Directory : C:\PEM-WE_measurements\2026\372_IV_IV IrOx, 5 min Pt, 30 min C, etched cathode\new station\Loopeis new\1,46 V different time gaps closed cell\
	Host : 192.168.0.2
Device : SP-150e (SN .005491)
Address : 192.168.0.91
EC-LAB for windows v11.71 (software)
Internet server v28.00 (firmware)
Command interpretor v14.01 (firmware)
Electrode material : 
Initial state : 
Electrolyte : 
Comments : 
Current amplifier : SP-150eB-20A
Electrode surface area : 0.001 cm²
Characteristic mass : 0.001 g
Equivalent Weight : 0.000 g/eq.
Density : 0.000 g/cm3
Volume (V) : 0.001 cm³
Record Analogic IN 1
Text export
   Mode : Standard
   Time format : Elapsed
Cycle Definition : Charge/Discharge alternance
External device configuration :
   device type : Temperature Probe
   device name : Other
   Analog IN 1 : 
      unit : T/Â°C
      max : 100.000 at 2.000 V
      min : 0.000 at 1.460 V
tR (h:m:s)          0:00:45.0000        
dER/dt (mV/h)       1.0                 
record              <Ewe>               
dER (mV)            10.00               
dtR (s)             0.5000              
E range min (V)     -2.500              
E range max (V)     2.500               

mode	error	time/s	<Ewe/V>	Analog IN 1/V	
3	0	4.549979885057837E+001	1.4187467E+000	-2.7040506E+002
3	0	4.599979883794731E+001	1.4104621E+000	-2.7039801E+002
3	0	4.649979882531625E+001	1.4048187E+000	-2.7037326E+002
3	0	4.699979881268519E+001	1.4005569E+000	-2.7039447E+002
3	0	4.749979880005412E+001	1.3970971E+000	-2.7039447E+002
3	0	4.799979878742306E+001	1.3942670E+000	-2.7039447E+002
3	0	4.849979877479200E+001	1.3918476E+000	-2.7036618E+002
3	0	4.899979876216094E+001	1.3897315E+000	-2.7037326E+002
3	0	4.949979874952987E+001	1.3878473E+000	-2.7036972E+002
3	0	4.999979873689881E+001	1.3861338E+000	-2.7037677E+002
3	0	5.049979872426775E+001	1.3845445E+000	-2.7039447E+002
3	0	5.099979871163669E+001	1.3829905E+000	-2.7038385E+002
3	0	5.149979869900562E+001	1.3815035E+000	-2.7039447E+002
3	0	5.199979868637456E+001	1.3801889E+000	-2.7034497E+002
3	0	5.249979867374350E+001	1.3789669E+000	-2.7038031E+002
3	0	5.299979866111244E+001	1.3778315E+000	-2.7040155E+002
3	0	5.349979864848137E+001	1.3767619E+000	-2.7034851E+002
3	0	5.399979863585031E+001	1.3757623E+000	-2.7037326E+002
3	0	5.449979862321925E+001	1.3747754E+000	-2.7037677E+002
3	0	5.499979861058819E+001	1.3737599E+000	-2.7037677E+002
3	0	5.549979859795712E+001	1.3727565E+000	-2.7037677E+002
3	0	5.599979858532606E+001	1.3718733E+000	-2.7039093E+002
3	0	5.649979857269500E+001	1.3710506E+000	-2.7037677E+002
3	0	5.699979856006394E+001	1.3702750E+000	-2.7037677E+002
3	0	5.749979854743287E+001	1.3695395E+000	-2.7040506E+002
3	0	5.799979853480181E+001	1.3688196E+000	-2.7038742E+002
3	0	5.849979852217075E+001	1.3681039E+000	-2.7038742E+002
3	0	5.899979850953969E+001	1.3673277E+000	-2.7037677E+002
3	0	5.949979849690862E+001	1.3665512E+000	-2.7039447E+002
3	0	5.999979848427756E+001	1.3658763E+000	-2.7037677E+002
3	0	6.049979847164650E+001	1.3652395E+000	-2.7036267E+002
3	0	6.099979845901544E+001	1.3646359E+000	-2.7038385E+002
3	0	6.149979844638438E+001	1.3640501E+000	-2.7036972E+002
3	0	6.199979843375331E+001	1.3634742E+000	-2.7036972E+002
3	0	6.249979842112225E+001	1.3628166E+000	-2.7036972E+002
3	0	6.299979840849119E+001	1.3621602E+000	-2.7039093E+002
3	0	6.349979839586013E+001	1.3615148E+000	-2.7037677E+002
3	0	6.399979838322906E+001	1.3609644E+000	-2.7039093E+002
3	0	6.449979837059800E+001	1.3604243E+000	-2.7038385E+002
3	0	6.499979835796694E+001	1.3598944E+000	-2.7039447E+002
3	0	6.549979834533588E+001	1.3593862E+000	-2.7036972E+002
3	0	6.599979833270481E+001	1.3588723E+000	-2.7039093E+002
3	0	6.649979832007375E+001	1.3583437E+000	-2.7036972E+002
3	0	6.699979830744269E+001	1.3577564E+000	-2.7036972E+002
3	0	6.749979829481163E+001	1.3571740E+000	-2.7037326E+002
3	0	6.799979828218056E+001	1.3566960E+000	-2.7036267E+002
3	0	6.849979826954950E+001	1.3562390E+000	-2.7038742E+002
3	0	6.899979825691844E+001	1.3558108E+000	-2.7038031E+002
3	0	6.949979824428738E+001	1.3554016E+000	-2.7038031E+002
3	0	6.999979823165631E+001	1.3550096E+000	-2.7038742E+002
3	0	7.049979821902525E+001	1.3545828E+000	-2.7038742E+002
3	0	7.099979820639419E+001	1.3540952E+000	-2.7037677E+002
3	0	7.149979819376313E+001	1.3536057E+000	-2.7039447E+002
3	0	7.199979818113206E+001	1.3532178E+000	-2.7038742E+002
3	0	7.249979816850100E+001	1.3528246E+000	-2.7038742E+002
3	0	7.299979815586994E+001	1.3524549E+000	-2.7038742E+002
3	0	7.349979814323888E+001	1.3520943E+000	-2.7039447E+002
3	0	7.399979813060781E+001	1.3517399E+000	-2.7038031E+002
3	0	7.449979811797675E+001	1.3513510E+000	-2.7037677E+002
3	0	7.499979810534569E+001	1.3508990E+000	-2.7038031E+002
3	0	7.549979809271463E+001	1.3504322E+000	-2.7036972E+002
3	0	7.599979808008356E+001	1.3500570E+000	-2.7038031E+002
3	0	7.649979806745250E+001	1.3496898E+000	-2.7037326E+002
3	0	7.699979805482144E+001	1.3493260E+000	-2.7036267E+002
3	0	7.749979804219038E+001	1.3489561E+000	-2.7038385E+002
3	0	7.799979802955932E+001	1.3485855E+000	-2.7038742E+002
3	0	7.849979801692825E+001	1.3481830E+000	-2.7036618E+002
3	0	7.899979800429719E+001	1.3477058E+000	-2.7036618E+002
3	0	7.949979799166613E+001	1.3472255E+000	-2.7038031E+002
3	0	7.999979797903507E+001	1.3468319E+000	-2.7038385E+002
3	0	8.049979796640400E+001	1.3464364E+000	-2.7038031E+002
3	0	8.099979795377294E+001	1.3460529E+000	-2.7036618E+002
3	0	8.149979794114188E+001	1.3456718E+000	-2.7038742E+002
3	0	8.199979792851082E+001	1.3452934E+000	-2.7036267E+002
3	0	8.249979791587975E+001	1.3448670E+000	-2.7036618E+002
3	0	8.299979790324869E+001	1.3443713E+000	-2.7038385E+002
3	0	8.349979789061763E+001	1.3438723E+000	-2.7036972E+002
3	0	8.399979787798657E+001	1.3434496E+000	-2.7038385E+002
3	0	8.449979786535550E+001	1.3430254E+000	-2.7036267E+002
3	0	8.499979785272444E+001	1.3426117E+000	-2.7037677E+002
3	0	8.549979784009338E+001	1.3422002E+000	-2.7040155E+002
3	0	8.599979782746232E+001	1.3417944E+000	-2.7036618E+002
3	0	8.649979781483125E+001	1.3413510E+000	-2.7037326E+002
3	0	8.699979780220019E+001	1.3408519E+000	-2.7038031E+002
3	0	8.749979778956913E+001	1.3403356E+000	-2.7039093E+002
3	0	8.799979777693807E+001	1.3399206E+000	-2.7038742E+002
3	0	8.849979776430700E+001	1.3395233E+000	-2.7036618E+002
3	0	8.899979775167594E+001	1.3391354E+000	-2.7034851E+002
3	0	8.949979773904488E+001	1.3387532E+000	-2.7036267E+002
3	0	8.999979772641382E+001	1.3383781E+000	-2.7037326E+002
3	0	9.000019772640371E+001	1.3382213E+000	-2.7039801E+002