EC-Lab ASCII FILE
Nb header lines : 55                          

Open Circuit Voltage

Run on channel : 1 (SN 81504)
User : 
CE vs. WE compliance from -10 V to 10 V
Electrode connection : standard
Potential control : Ewe
Ewe ctrl range : min = -2.50 V, max = 2.50 V
Safety Limits :
	Do not start on E overload
Acquisition started on : 05/10/2026 01:27:16.117
Loaded Setting File :  C:\PEM-WE_measurements\2026\372_IV_IV IrOx, 5 min Pt, 30 min C, etched cathode\new station\Loopeis new\1,46 V different time gaps closed cell\Loopeis 1,46V_45s_5_PEIS from 65Hz to 10Hz.mps
Saved on :
	File : L_10_Loopeis 1,46V_45s_5_PEIS from 65Hz to 10Hz_08_OCV_C01.mpr
	Directory : C:\PEM-WE_measurements\2026\372_IV_IV IrOx, 5 min Pt, 30 min C, etched cathode\new station\Loopeis new\1,46 V different time gaps closed cell\
	Host : 192.168.0.2
Device : SP-150e (SN .005491)
Address : 192.168.0.91
EC-LAB for windows v11.71 (software)
Internet server v28.00 (firmware)
Command interpretor v14.01 (firmware)
Electrode material : 
Initial state : 
Electrolyte : 
Comments : 
Current amplifier : SP-150eB-20A
Electrode surface area : 0.001 cm²
Characteristic mass : 0.001 g
Equivalent Weight : 0.000 g/eq.
Density : 0.000 g/cm3
Volume (V) : 0.001 cm³
Record Analogic IN 1
Text export
   Mode : Standard
   Time format : Elapsed
Cycle Definition : Charge/Discharge alternance
External device configuration :
   device type : Temperature Probe
   device name : Other
   Analog IN 1 : 
      unit : T/Â°C
      max : 100.000 at 2.000 V
      min : 0.000 at 1.460 V
tR (h:m:s)          0:00:45.0000        
dER/dt (mV/h)       1.0                 
record              <Ewe>               
dER (mV)            10.00               
dtR (s)             0.5000              
E range min (V)     -2.500              
E range max (V)     2.500               

mode	error	time/s	<Ewe/V>	Analog IN 1/V	
3	0	8.027504217228125E+002	1.2118813E+000	-2.7037677E+002
3	0	8.032504217101814E+002	1.2568210E+000	-2.7037326E+002
3	0	8.037504216975503E+002	1.2612268E+000	-2.7039447E+002
3	0	8.042504216849193E+002	1.2639165E+000	-2.7039801E+002
3	0	8.047504216722882E+002	1.2657852E+000	-2.7036972E+002
3	0	8.052504216596572E+002	1.2671750E+000	-2.7037677E+002
3	0	8.057504216470261E+002	1.2682456E+000	-2.7037326E+002
3	0	8.062504216343950E+002	1.2690440E+000	-2.7041214E+002
3	0	8.067504216217640E+002	1.2696648E+000	-2.7037677E+002
3	0	8.072504216091329E+002	1.2702250E+000	-2.7038742E+002
3	0	8.077504215965018E+002	1.2706900E+000	-2.7038385E+002
3	0	8.082504215838708E+002	1.2710770E+000	-2.7035913E+002
3	0	8.087504215712397E+002	1.2713854E+000	-2.7039093E+002
3	0	8.092504215586087E+002	1.2716391E+000	-2.7039447E+002
3	0	8.097504215459776E+002	1.2718136E+000	-2.7039093E+002
3	0	8.102504215333465E+002	1.2718872E+000	-2.7036267E+002
3	0	8.107504215207155E+002	1.2719129E+000	-2.7040155E+002
3	0	8.112504215080844E+002	1.2719839E+000	-2.7041214E+002
3	0	8.117504214954533E+002	1.2720459E+000	-2.7038742E+002
3	0	8.122504214828223E+002	1.2721007E+000	-2.7038742E+002
3	0	8.127504214701912E+002	1.2721313E+000	-2.7039801E+002
3	0	8.132504214575602E+002	1.2721539E+000	-2.7038031E+002
3	0	8.137504214449291E+002	1.2721198E+000	-2.7035559E+002
3	0	8.142504214322980E+002	1.2720163E+000	-2.7036972E+002
3	0	8.147504214196670E+002	1.2718908E+000	-2.7038742E+002
3	0	8.152504214070359E+002	1.2718292E+000	-2.7039447E+002
3	0	8.157504213944048E+002	1.2717675E+000	-2.7039801E+002
3	0	8.162504213817738E+002	1.2717067E+000	-2.7038385E+002
3	0	8.167504213691427E+002	1.2716291E+000	-2.7038031E+002
3	0	8.172504213565117E+002	1.2715461E+000	-2.7037677E+002
3	0	8.177504213438806E+002	1.2714244E+000	-2.7038385E+002
3	0	8.182504213312495E+002	1.2712436E+000	-2.7036267E+002
3	0	8.187504213186185E+002	1.2710289E+000	-2.7040506E+002
3	0	8.192504213059874E+002	1.2708836E+000	-2.7038031E+002
3	0	8.197504212933563E+002	1.2707469E+000	-2.7038031E+002
3	0	8.202504212807253E+002	1.2706032E+000	-2.7036267E+002
3	0	8.207504212680942E+002	1.2704457E+000	-2.7037677E+002
3	0	8.212504212554632E+002	1.2702966E+000	-2.7039801E+002
3	0	8.217504212428321E+002	1.2701041E+000	-2.7036972E+002
3	0	8.222504212302010E+002	1.2698534E+000	-2.7036267E+002
3	0	8.227504212175700E+002	1.2695677E+000	-2.7036972E+002
3	0	8.232504212049389E+002	1.2693690E+000	-2.7040155E+002
3	0	8.237504211923078E+002	1.2691813E+000	-2.7036267E+002
3	0	8.242504211796768E+002	1.2689898E+000	-2.7035913E+002
3	0	8.247504211670457E+002	1.2687863E+000	-2.7036267E+002
3	0	8.252504211544147E+002	1.2685696E+000	-2.7039093E+002
3	0	8.257504211417836E+002	1.2682745E+000	-2.7040860E+002
3	0	8.262504211291525E+002	1.2679724E+000	-2.7038031E+002
3	0	8.267504211165215E+002	1.2676500E+000	-2.7037326E+002
3	0	8.272504211038904E+002	1.2674103E+000	-2.7040155E+002
3	0	8.277504210912593E+002	1.2671542E+000	-2.7039447E+002
3	0	8.282504210786283E+002	1.2668897E+000	-2.7038385E+002
3	0	8.287504210659972E+002	1.2666222E+000	-2.7038031E+002
3	0	8.292504210533662E+002	1.2663553E+000	-2.7039447E+002
3	0	8.297504210407351E+002	1.2660557E+000	-2.7036972E+002
3	0	8.302504210281040E+002	1.2656827E+000	-2.7039801E+002
3	0	8.307504210154730E+002	1.2652876E+000	-2.7037326E+002
3	0	8.312504210028419E+002	1.2649841E+000	-2.7036972E+002
3	0	8.317504209902108E+002	1.2646753E+000	-2.7036972E+002
3	0	8.322504209775798E+002	1.2643740E+000	-2.7040506E+002
3	0	8.327504209649487E+002	1.2640773E+000	-2.7038031E+002
3	0	8.332504209523177E+002	1.2637892E+000	-2.7039093E+002
3	0	8.337504209396866E+002	1.2634757E+000	-2.7040860E+002
3	0	8.342504209270555E+002	1.2631029E+000	-2.7036618E+002
3	0	8.347504209144245E+002	1.2627184E+000	-2.7037326E+002
3	0	8.352504209017934E+002	1.2624136E+000	-2.7039093E+002
3	0	8.357504208891623E+002	1.2621108E+000	-2.7040155E+002
3	0	8.362504208765313E+002	1.2618088E+000	-2.7037326E+002
3	0	8.367504208639002E+002	1.2615131E+000	-2.7037326E+002
3	0	8.372504208512692E+002	1.2612075E+000	-2.7038031E+002
3	0	8.377504208386381E+002	1.2608690E+000	-2.7038385E+002
3	0	8.382504208260070E+002	1.2604611E+000	-2.7038385E+002
3	0	8.387504208133760E+002	1.2600402E+000	-2.7037677E+002
3	0	8.392504208007449E+002	1.2597051E+000	-2.7038742E+002
3	0	8.397504207881138E+002	1.2593584E+000	-2.7037326E+002
3	0	8.402504207754828E+002	1.2590239E+000	-2.7040506E+002
3	0	8.407504207628517E+002	1.2586890E+000	-2.7037677E+002
3	0	8.412504207502207E+002	1.2583439E+000	-2.7039093E+002
3	0	8.417504207375896E+002	1.2579738E+000	-2.7039093E+002
3	0	8.422504207249585E+002	1.2575442E+000	-2.7038742E+002
3	0	8.427504207123275E+002	1.2570840E+000	-2.7037677E+002
3	0	8.432504206996964E+002	1.2567109E+000	-2.7038031E+002
3	0	8.437504206870653E+002	1.2563331E+000	-2.7039801E+002
3	0	8.442504206744343E+002	1.2559582E+000	-2.7038031E+002
3	0	8.447504206618032E+002	1.2555817E+000	-2.7039447E+002
3	0	8.452504206491722E+002	1.2552059E+000	-2.7035913E+002
3	0	8.457504206365411E+002	1.2548029E+000	-2.7039447E+002
3	0	8.462504206239100E+002	1.2543331E+000	-2.7040506E+002
3	0	8.467504206112790E+002	1.2538482E+000	-2.7037677E+002
3	0	8.472504205986479E+002	1.2534447E+000	-2.7039093E+002
3	0	8.472738205980568E+002	1.2532322E+000	-2.7038742E+002