EC-Lab ASCII FILE
Nb header lines : 55                          

Open Circuit Voltage

Run on channel : 1 (SN 81504)
User : 
CE vs. WE compliance from -10 V to 10 V
Electrode connection : standard
Potential control : Ewe
Ewe ctrl range : min = -2.50 V, max = 2.50 V
Safety Limits :
	Do not start on E overload
Acquisition started on : 05/10/2026 01:27:16.117
Loaded Setting File :  C:\PEM-WE_measurements\2026\372_IV_IV IrOx, 5 min Pt, 30 min C, etched cathode\new station\Loopeis new\1,46 V different time gaps closed cell\Loopeis 1,46V_45s_5_PEIS from 65Hz to 10Hz.mps
Saved on :
	File : L_10_Loopeis 1,46V_45s_5_PEIS from 65Hz to 10Hz_10_OCV_C01.mpr
	Directory : C:\PEM-WE_measurements\2026\372_IV_IV IrOx, 5 min Pt, 30 min C, etched cathode\new station\Loopeis new\1,46 V different time gaps closed cell\
	Host : 192.168.0.2
Device : SP-150e (SN .005491)
Address : 192.168.0.91
EC-LAB for windows v11.71 (software)
Internet server v28.00 (firmware)
Command interpretor v14.01 (firmware)
Electrode material : 
Initial state : 
Electrolyte : 
Comments : 
Current amplifier : SP-150eB-20A
Electrode surface area : 0.001 cm²
Characteristic mass : 0.001 g
Equivalent Weight : 0.000 g/eq.
Density : 0.000 g/cm3
Volume (V) : 0.001 cm³
Record Analogic IN 1
Text export
   Mode : Standard
   Time format : Elapsed
Cycle Definition : Charge/Discharge alternance
External device configuration :
   device type : Temperature Probe
   device name : Other
   Analog IN 1 : 
      unit : T/Â°C
      max : 100.000 at 2.000 V
      min : 0.000 at 1.460 V
tR (h:m:s)          0:00:45.0000        
dER/dt (mV/h)       1.0                 
record              <Ewe>               
dER (mV)            10.00               
dtR (s)             0.5000              
E range min (V)     -2.500              
E range max (V)     2.500               

mode	error	time/s	<Ewe/V>	Analog IN 1/V	
3	0	8.927744194486149E+002	1.4195684E+000	-2.7037677E+002
3	0	8.932744194359839E+002	1.4115462E+000	-2.7037677E+002
3	0	8.937744194233528E+002	1.4060276E+000	-2.7036972E+002
3	0	8.942744194107217E+002	1.4018766E+000	-2.7036267E+002
3	0	8.947744193980907E+002	1.3985084E+000	-2.7038742E+002
3	0	8.952744193854596E+002	1.3957692E+000	-2.7037677E+002
3	0	8.957744193728286E+002	1.3934332E+000	-2.7034851E+002
3	0	8.962744193601975E+002	1.3913777E+000	-2.7036267E+002
3	0	8.967744193475664E+002	1.3895533E+000	-2.7038742E+002
3	0	8.972744193349354E+002	1.3879054E+000	-2.7037326E+002
3	0	8.977744193223043E+002	1.3863542E+000	-2.7038385E+002
3	0	8.982744193096732E+002	1.3848438E+000	-2.7037677E+002
3	0	8.987744192970422E+002	1.3834212E+000	-2.7037326E+002
3	0	8.992744192844111E+002	1.3821713E+000	-2.7039447E+002
3	0	8.997744192717801E+002	1.3809953E+000	-2.7036972E+002
3	0	9.002744192591490E+002	1.3798982E+000	-2.7038742E+002
3	0	9.007744192465179E+002	1.3788698E+000	-2.7039093E+002
3	0	9.012744192338869E+002	1.3778954E+000	-2.7037677E+002
3	0	9.017744192212558E+002	1.3769414E+000	-2.7037677E+002
3	0	9.022744192086247E+002	1.3759588E+000	-2.7038742E+002
3	0	9.027744191959937E+002	1.3749971E+000	-2.7038031E+002
3	0	9.032744191833626E+002	1.3741609E+000	-2.7039447E+002
3	0	9.037744191707316E+002	1.3733498E+000	-2.7041568E+002
3	0	9.042744191581005E+002	1.3725784E+000	-2.7039093E+002
3	0	9.047744191454694E+002	1.3718448E+000	-2.7037677E+002
3	0	9.052744191328384E+002	1.3711241E+000	-2.7037326E+002
3	0	9.057744191202073E+002	1.3704048E+000	-2.7040506E+002
3	0	9.062744191075763E+002	1.3696421E+000	-2.7035913E+002
3	0	9.067744190949452E+002	1.3688679E+000	-2.7036972E+002
3	0	9.072744190823141E+002	1.3682157E+000	-2.7038742E+002
3	0	9.077744190696831E+002	1.3675721E+000	-2.7037677E+002
3	0	9.082744190570520E+002	1.3669566E+000	-2.7039093E+002
3	0	9.087744190444209E+002	1.3663563E+000	-2.7038031E+002
3	0	9.092744190317899E+002	1.3657697E+000	-2.7037677E+002
3	0	9.097744190191588E+002	1.3651530E+000	-2.7039447E+002
3	0	9.102744190065278E+002	1.3644855E+000	-2.7039093E+002
3	0	9.107744189938967E+002	1.3638142E+000	-2.7038031E+002
3	0	9.112744189812656E+002	1.3632405E+000	-2.7037326E+002
3	0	9.117744189686346E+002	1.3626686E+000	-2.7036972E+002
3	0	9.122744189560035E+002	1.3621218E+000	-2.7037677E+002
3	0	9.127744189433724E+002	1.3615925E+000	-2.7037326E+002
3	0	9.132744189307414E+002	1.3610388E+000	-2.7036972E+002
3	0	9.137744189181103E+002	1.3604497E+000	-2.7037677E+002
3	0	9.142744189054793E+002	1.3598930E+000	-2.7036267E+002
3	0	9.147744188928482E+002	1.3593435E+000	-2.7038031E+002
3	0	9.152744188802171E+002	1.3588835E+000	-2.7037326E+002
3	0	9.157744188675861E+002	1.3584425E+000	-2.7037677E+002
3	0	9.162744188549550E+002	1.3579900E+000	-2.7037326E+002
3	0	9.167744188423239E+002	1.3575506E+000	-2.7038385E+002
3	0	9.172744188296929E+002	1.3571218E+000	-2.7037677E+002
3	0	9.177744188170618E+002	1.3566424E+000	-2.7038385E+002
3	0	9.182744188044308E+002	1.3560997E+000	-2.7038742E+002
3	0	9.187744187917997E+002	1.3555444E+000	-2.7035913E+002
3	0	9.192744187791686E+002	1.3550925E+000	-2.7039801E+002
3	0	9.197744187665376E+002	1.3546659E+000	-2.7037326E+002
3	0	9.202744187539065E+002	1.3542281E+000	-2.7036618E+002
3	0	9.207744187412754E+002	1.3537974E+000	-2.7038742E+002
3	0	9.212744187286444E+002	1.3533592E+000	-2.7036618E+002
3	0	9.217744187160133E+002	1.3528848E+000	-2.7034143E+002
3	0	9.222744187033823E+002	1.3523443E+000	-2.7036972E+002
3	0	9.227744186907512E+002	1.3517945E+000	-2.7037326E+002
3	0	9.232744186781201E+002	1.3513305E+000	-2.7037326E+002
3	0	9.237744186654891E+002	1.3508849E+000	-2.7039093E+002
3	0	9.242744186528580E+002	1.3504382E+000	-2.7038031E+002
3	0	9.247744186402269E+002	1.3499995E+000	-2.7037326E+002
3	0	9.252744186275959E+002	1.3495587E+000	-2.7040506E+002
3	0	9.257744186149648E+002	1.3490833E+000	-2.7037677E+002
3	0	9.262744186023338E+002	1.3485287E+000	-2.7036618E+002
3	0	9.267744185897027E+002	1.3479494E+000	-2.7039447E+002
3	0	9.272744185770716E+002	1.3474644E+000	-2.7037326E+002
3	0	9.277744185644406E+002	1.3470126E+000	-2.7038385E+002
3	0	9.282744185518095E+002	1.3465438E+000	-2.7036618E+002
3	0	9.287744185391784E+002	1.3460789E+000	-2.7038031E+002
3	0	9.292744185265474E+002	1.3456115E+000	-2.7039093E+002
3	0	9.297744185139163E+002	1.3451018E+000	-2.7041919E+002
3	0	9.302744185012853E+002	1.3445241E+000	-2.7039093E+002
3	0	9.307744184886542E+002	1.3439356E+000	-2.7034851E+002
3	0	9.312744184760231E+002	1.3434399E+000	-2.7036972E+002
3	0	9.317744184633921E+002	1.3429705E+000	-2.7035913E+002
3	0	9.322744184507610E+002	1.3425006E+000	-2.7036972E+002
3	0	9.327744184381299E+002	1.3420448E+000	-2.7039801E+002
3	0	9.332744184254989E+002	1.3415974E+000	-2.7038385E+002
3	0	9.337744184128678E+002	1.3411098E+000	-2.7039801E+002
3	0	9.342744184002368E+002	1.3405683E+000	-2.7037677E+002
3	0	9.347744183876057E+002	1.3400118E+000	-2.7038742E+002
3	0	9.352744183749746E+002	1.3395592E+000	-2.7037326E+002
3	0	9.357744183623436E+002	1.3391371E+000	-2.7037677E+002
3	0	9.362744183497125E+002	1.3387125E+000	-2.7036972E+002
3	0	9.367744183370814E+002	1.3382888E+000	-2.7036972E+002
3	0	9.372744183244504E+002	1.3378695E+000	-2.7037677E+002
3	0	9.372748183244403E+002	1.3377156E+000	-2.7038385E+002