EC-Lab ASCII FILE
Nb header lines : 48                          

Open Circuit Voltage

Run on channel : 1 (SN 81504)
User : 
CE vs. WE compliance from -10 V to 10 V
Electrode connection : standard
Potential control : Ewe
Ewe ctrl range : min = -2.50 V, max = 2.50 V
Safety Limits :
	Do not start on E overload
Acquisition started on : 05/10/2026 02:09:52.585
Loaded Setting File :  C:\PEM-WE_measurements\2026\372_IV_IV IrOx, 5 min Pt, 30 min C, etched cathode\new station\Loopeis new\1,46 V different time gaps closed cell\Loopeis 1,46V_60s_2_PEIS from 65kHz to 10kHz.mps
Saved on :
	File : L_12_Loopeis 1,46V_60s_2_PEIS from 65kHz to 10kHz_10_OCV_C01.mpr
	Directory : C:\PEM-WE_measurements\2026\372_IV_IV IrOx, 5 min Pt, 30 min C, etched cathode\new station\Loopeis new\1,46 V different time gaps closed cell\
	Host : 192.168.0.2
Device : SP-150e (SN .005491)
Address : 192.168.0.91
EC-LAB for windows v11.71 (software)
Internet server v28.00 (firmware)
Command interpretor v14.01 (firmware)
Electrode material : 
Initial state : 
Electrolyte : 
Comments : 
Current amplifier : SP-150eB-20A
Electrode surface area : 0.001 cm²
Characteristic mass : 0.001 g
Equivalent Weight : 0.000 g/eq.
Density : 0.000 g/cm3
Volume (V) : 0.001 cm³
Record Analogic IN 1
Text export
   Mode : Standard
   Time format : Elapsed
Cycle Definition : Charge/Discharge alternance
tR (h:m:s)          0:01:0.0000         
dER/dt (mV/h)       1.0                 
record              <Ewe>               
dER (mV)            10.00               
dtR (s)             0.5000              
E range min (V)     -2.500              
E range max (V)     2.500               

mode	error	time/s	<Ewe/V>	Analog IN 1/V	
3	0	4.668523948528309E+002	1.4170510E+000	-7.2477276E-005
3	0	4.673523948401999E+002	1.4083291E+000	-5.3391734E-005
3	0	4.678523948275688E+002	1.4024941E+000	-1.2973390E-004
3	0	4.683523948149377E+002	1.3982046E+000	-9.1562819E-005
3	0	4.688523948023067E+002	1.3947935E+000	2.2950437E-005
3	0	4.693523947896756E+002	1.3919135E+000	-1.5220648E-005
3	0	4.698523947770445E+002	1.3893527E+000	2.2950437E-005
3	0	4.703523947644135E+002	1.3869934E+000	-3.4306191E-005
3	0	4.708523947517824E+002	1.3849374E+000	6.1121522E-005
3	0	4.713523947391514E+002	1.3831158E+000	-1.5220648E-005
3	0	4.718523947265203E+002	1.3814566E+000	6.1121522E-005
3	0	4.723523947138892E+002	1.3799211E+000	2.2950437E-005
3	0	4.728523947012582E+002	1.3785064E+000	-3.4306191E-005
3	0	4.733523946886271E+002	1.3771710E+000	-3.4306191E-005
3	0	4.738523946759960E+002	1.3758537E+000	-1.4881945E-004
3	0	4.743523946633650E+002	1.3745574E+000	-1.5220648E-005
3	0	4.748523946507339E+002	1.3734015E+000	-1.5220648E-005
3	0	4.753523946381029E+002	1.3723547E+000	3.8648941E-006
3	0	4.758523946254718E+002	1.3713731E+000	2.2950437E-005
3	0	4.763523946128407E+002	1.3704469E+000	3.8648941E-006
3	0	4.768523946002097E+002	1.3695868E+000	2.2950437E-005
3	0	4.773523945875786E+002	1.3687313E+000	8.0207064E-005
3	0	4.778523945749475E+002	1.3678484E+000	-3.4306191E-005
3	0	4.783523945623165E+002	1.3669337E+000	-1.6790499E-004
3	0	4.788523945496854E+002	1.3661276E+000	-7.2477276E-005
3	0	4.793523945370544E+002	1.3654141E+000	2.2950437E-005
3	0	4.798523945244233E+002	1.3647351E+000	-9.1562819E-005
3	0	4.803523945117922E+002	1.3640672E+000	-5.3391734E-005
3	0	4.808523944991612E+002	1.3634495E+000	-1.1064836E-004
3	0	4.813523944865301E+002	1.3628204E+000	-1.2973390E-004
3	0	4.818523944738990E+002	1.3621594E+000	-1.6790499E-004
3	0	4.823523944612680E+002	1.3614508E+000	4.2035979E-005
3	0	4.828523944486369E+002	1.3608429E+000	-9.1562819E-005
3	0	4.833523944360059E+002	1.3603065E+000	3.8648941E-006
3	0	4.838523944233748E+002	1.3597847E+000	-9.1562819E-005
3	0	4.843523944107437E+002	1.3592683E+000	-5.3391734E-005
3	0	4.848523943981127E+002	1.3587810E+000	3.8648941E-006
3	0	4.853523943854816E+002	1.3582810E+000	6.1121522E-005
3	0	4.858523943728505E+002	1.3577229E+000	-3.4306191E-005
3	0	4.863523943602195E+002	1.3571208E+000	-7.2477276E-005
3	0	4.868523943475884E+002	1.3566004E+000	-1.5220648E-005
3	0	4.873523943349574E+002	1.3561420E+000	-3.4306191E-005
3	0	4.878523943223263E+002	1.3557013E+000	-1.5220648E-005
3	0	4.883523943096952E+002	1.3552665E+000	-3.4306191E-005
3	0	4.888523942970642E+002	1.3548506E+000	3.8648941E-006
3	0	4.893523942844331E+002	1.3544306E+000	8.0207064E-005
3	0	4.898523942718020E+002	1.3539431E+000	-7.2477276E-005
3	0	4.903523942591710E+002	1.3534179E+000	-3.4306191E-005
3	0	4.908523942465399E+002	1.3529918E+000	-1.6790499E-004
3	0	4.913523942339089E+002	1.3526305E+000	-7.2477276E-005
3	0	4.918523942212778E+002	1.3522855E+000	-3.4306191E-005
3	0	4.923523942086467E+002	1.3519489E+000	-5.3391734E-005
3	0	4.928523941960157E+002	1.3516233E+000	3.8648941E-006
3	0	4.933523941833846E+002	1.3512932E+000	-9.1562819E-005
3	0	4.938523941707535E+002	1.3509076E+000	-5.3391734E-005
3	0	4.943523941581225E+002	1.3504598E+000	-7.2477276E-005
3	0	4.948523941454914E+002	1.3500997E+000	-5.3391734E-005
3	0	4.953523941328604E+002	1.3498037E+000	-5.3391734E-005
3	0	4.958523941202293E+002	1.3494985E+000	-1.1064836E-004
3	0	4.963523941075982E+002	1.3491915E+000	-2.0607607E-004
3	0	4.968523940949672E+002	1.3488858E+000	-1.1064836E-004
3	0	4.973523940823361E+002	1.3485664E+000	-1.1064836E-004
3	0	4.978523940697050E+002	1.3481802E+000	2.2950437E-005
3	0	4.983523940570740E+002	1.3477262E+000	-1.1064836E-004
3	0	4.988523940444429E+002	1.3473527E+000	-1.1064836E-004
3	0	4.993523940318119E+002	1.3470316E+000	-3.4306191E-005
3	0	4.998523940191808E+002	1.3466953E+000	-3.4306191E-005
3	0	5.003523940065497E+002	1.3463553E+000	-1.4881945E-004
3	0	5.008523939939187E+002	1.3460299E+000	2.2950437E-005
3	0	5.013523939812876E+002	1.3456928E+000	-7.2477276E-005
3	0	5.018523939686565E+002	1.3452773E+000	2.2950437E-005
3	0	5.023523939560255E+002	1.3448139E+000	-1.6790499E-004
3	0	5.028523939433944E+002	1.3444277E+000	-7.2477276E-005
3	0	5.033523939307634E+002	1.3440917E+000	-1.5220648E-005
3	0	5.038523939181323E+002	1.3437440E+000	-5.3391734E-005
3	0	5.043523939055012E+002	1.3433970E+000	-9.1562819E-005
3	0	5.048523938928702E+002	1.3430469E+000	2.2950437E-005
3	0	5.053523938802391E+002	1.3426821E+000	8.0207064E-005
3	0	5.058523938676080E+002	1.3422492E+000	-1.5220648E-005
3	0	5.063523938549770E+002	1.3417569E+000	-1.1064836E-004
3	0	5.068523938423459E+002	1.3413446E+000	-1.4881945E-004
3	0	5.073523938297149E+002	1.3409792E+000	-1.4881945E-004
3	0	5.078523938170838E+002	1.3406191E+000	2.2950437E-005
3	0	5.083523938044527E+002	1.3402531E+000	-5.3391734E-005
3	0	5.088523937918217E+002	1.3398937E+000	8.0207064E-005
3	0	5.093523937791906E+002	1.3395300E+000	-5.3391734E-005
3	0	5.098523937665595E+002	1.3391197E+000	-1.5220648E-005
3	0	5.103523937539285E+002	1.3386533E+000	-1.4881945E-004
3	0	5.108523937412974E+002	1.3382759E+000	4.2035979E-005
3	0	5.113523937286664E+002	1.3379580E+000	-5.3391734E-005
3	0	5.118523937160353E+002	1.3376489E+000	-1.5220648E-005
3	0	5.123523937034042E+002	1.3373454E+000	9.9292607E-005
3	0	5.128523936907732E+002	1.3370494E+000	3.8648941E-006
3	0	5.133523936781421E+002	1.3367363E+000	-3.4306191E-005
3	0	5.138523936655110E+002	1.3363616E+000	-3.4306191E-005
3	0	5.143523936528800E+002	1.3359333E+000	-5.3391734E-005
3	0	5.148523936402489E+002	1.3355905E+000	-7.2477276E-005
3	0	5.153523936276179E+002	1.3352959E+000	-1.1064836E-004
3	0	5.158523936149868E+002	1.3349987E+000	-5.3391734E-005
3	0	5.163523936023557E+002	1.3346919E+000	-7.2477276E-005
3	0	5.168523935897247E+002	1.3343964E+000	-3.4306191E-005
3	0	5.173523935770936E+002	1.3340876E+000	-1.5220648E-005
3	0	5.178523935644625E+002	1.3337060E+000	-5.3391734E-005
3	0	5.183523935518315E+002	1.3332710E+000	3.8648941E-006
3	0	5.188523935392004E+002	1.3329146E+000	8.0207064E-005
3	0	5.193523935265694E+002	1.3326033E+000	-1.4881945E-004
3	0	5.198523935139383E+002	1.3322871E+000	-1.5220648E-005
3	0	5.203523935013072E+002	1.3319609E+000	-1.2973390E-004
3	0	5.208523934886762E+002	1.3316422E+000	4.2035979E-005
3	0	5.213523934760451E+002	1.3313028E+000	2.2950437E-005
3	0	5.218523934634140E+002	1.3309001E+000	-2.0607607E-004
3	0	5.223523934507830E+002	1.3304456E+000	-5.3391734E-005
3	0	5.228523934381519E+002	1.3300501E+000	-1.2973390E-004
3	0	5.233523934255209E+002	1.3297018E+000	2.2950437E-005
3	0	5.238523934128898E+002	1.3293680E+000	-1.1064836E-004
3	0	5.243523934002587E+002	1.3290224E+000	-9.1562819E-005
3	0	5.248523933876277E+002	1.3286843E+000	-1.4881945E-004
3	0	5.253523933749966E+002	1.3283135E+000	-7.2477276E-005
3	0	5.258523933623655E+002	1.3278900E+000	-9.1562819E-005
3	0	5.263523933497345E+002	1.3274012E+000	2.2950437E-005
3	0	5.263527933497244E+002	1.3271335E+000	-1.1064836E-004