EC-Lab ASCII FILE
Nb header lines : 48                          

Open Circuit Voltage

Run on channel : 1 (SN 81504)
User : 
CE vs. WE compliance from -10 V to 10 V
Electrode connection : standard
Potential control : Ewe
Ewe ctrl range : min = -2.50 V, max = 2.50 V
Safety Limits :
	Do not start on E overload
Acquisition started on : 05/10/2026 02:09:52.585
Loaded Setting File :  C:\PEM-WE_measurements\2026\372_IV_IV IrOx, 5 min Pt, 30 min C, etched cathode\new station\Loopeis new\1,46 V different time gaps closed cell\Loopeis 1,46V_60s_2_PEIS from 65kHz to 10kHz.mps
Saved on :
	File : L_12_Loopeis 1,46V_60s_2_PEIS from 65kHz to 10kHz_18_OCV_C01.mpr
	Directory : C:\PEM-WE_measurements\2026\372_IV_IV IrOx, 5 min Pt, 30 min C, etched cathode\new station\Loopeis new\1,46 V different time gaps closed cell\
	Host : 192.168.0.2
Device : SP-150e (SN .005491)
Address : 192.168.0.91
EC-LAB for windows v11.71 (software)
Internet server v28.00 (firmware)
Command interpretor v14.01 (firmware)
Electrode material : 
Initial state : 
Electrolyte : 
Comments : 
Current amplifier : SP-150eB-20A
Electrode surface area : 0.001 cm²
Characteristic mass : 0.001 g
Equivalent Weight : 0.000 g/eq.
Density : 0.000 g/cm3
Volume (V) : 0.001 cm³
Record Analogic IN 1
Text export
   Mode : Standard
   Time format : Elapsed
Cycle Definition : Charge/Discharge alternance
tR (h:m:s)          0:01:0.0000         
dER/dt (mV/h)       1.0                 
record              <Ewe>               
dER (mV)            10.00               
dtR (s)             0.5000              
E range min (V)     -2.500              
E range max (V)     2.500               

mode	error	time/s	<Ewe/V>	Analog IN 1/V	
3	0	8.884639908673853E+002	1.4168507E+000	8.0207064E-005
3	0	8.889639908547542E+002	1.4080268E+000	1.7563478E-004
3	0	8.894639908421232E+002	1.4019959E+000	-9.1562819E-005
3	0	8.899639908294921E+002	1.3974833E+000	-1.2973390E-004
3	0	8.904639908168610E+002	1.3939483E+000	2.2950437E-005
3	0	8.909639908042300E+002	1.3909861E+000	4.2035979E-005
3	0	8.914639907915989E+002	1.3884355E+000	4.2035979E-005
3	0	8.919639907789679E+002	1.3861765E+000	-7.2477276E-005
3	0	8.924639907663368E+002	1.3841583E+000	-1.1064836E-004
3	0	8.929639907537057E+002	1.3822913E+000	-5.3391734E-005
3	0	8.934639907410747E+002	1.3805044E+000	-7.2477276E-005
3	0	8.939639907284436E+002	1.3788142E+000	-1.5220648E-005
3	0	8.944639907158125E+002	1.3773235E+000	-9.1562819E-005
3	0	8.949639907031815E+002	1.3759429E+000	-5.3391734E-005
3	0	8.954639906905504E+002	1.3746654E+000	-9.1562819E-005
3	0	8.959639906779194E+002	1.3734789E+000	-1.5220648E-005
3	0	8.964639906652883E+002	1.3723589E+000	-1.1064836E-004
3	0	8.969639906526572E+002	1.3712653E+000	-3.4306191E-005
3	0	8.974639906400262E+002	1.3701615E+000	4.2035979E-005
3	0	8.979639906273951E+002	1.3690885E+000	8.0207064E-005
3	0	8.984639906147640E+002	1.3681597E+000	-7.2477276E-005
3	0	8.989639906021330E+002	1.3672696E+000	6.1121522E-005
3	0	8.994639905895019E+002	1.3664256E+000	3.8648941E-006
3	0	8.999639905768709E+002	1.3656268E+000	-9.1562819E-005
3	0	9.004639905642398E+002	1.3648872E+000	2.2950437E-005
3	0	9.009639905516087E+002	1.3641332E+000	-2.0607607E-004
3	0	9.014639905389777E+002	1.3633450E+000	-1.8699054E-004
3	0	9.019639905263466E+002	1.3625497E+000	-9.1562819E-005
3	0	9.024639905137155E+002	1.3618885E+000	-7.2477276E-005
3	0	9.029639905010845E+002	1.3612415E+000	-7.2477276E-005
3	0	9.034639904884534E+002	1.3606341E+000	-1.4881945E-004
3	0	9.039639904758224E+002	1.3600537E+000	2.2950437E-005
3	0	9.044639904631913E+002	1.3594933E+000	-1.2973390E-004
3	0	9.049639904505602E+002	1.3589138E+000	-1.5220648E-005
3	0	9.054639904379292E+002	1.3582903E+000	-7.2477276E-005
3	0	9.059639904252981E+002	1.3576587E+000	2.2950437E-005
3	0	9.064639904126670E+002	1.3571340E+000	2.2950437E-005
3	0	9.069639904000360E+002	1.3566281E+000	-5.3391734E-005
3	0	9.074639903874049E+002	1.3561426E+000	-5.3391734E-005
3	0	9.079639903747739E+002	1.3556887E+000	-9.1562819E-005
3	0	9.084639903621428E+002	1.3552352E+000	-1.1064836E-004
3	0	9.089639903495117E+002	1.3547649E+000	-5.3391734E-005
3	0	9.094639903368807E+002	1.3542218E+000	-3.4306191E-005
3	0	9.099639903242496E+002	1.3536743E+000	-7.2477276E-005
3	0	9.104639903116185E+002	1.3532298E+000	4.2035979E-005
3	0	9.109639902989875E+002	1.3527975E+000	-1.1064836E-004
3	0	9.114639902863564E+002	1.3523924E+000	-9.1562819E-005
3	0	9.119639902737254E+002	1.3520137E+000	-1.4881945E-004
3	0	9.124639902610943E+002	1.3516525E+000	-1.2973390E-004
3	0	9.129639902484632E+002	1.3512774E+000	-3.4306191E-005
3	0	9.134639902358322E+002	1.3508520E+000	2.2950437E-005
3	0	9.139639902232011E+002	1.3504150E+000	-3.4306191E-005
3	0	9.144639902105700E+002	1.3500953E+000	6.1121522E-005
3	0	9.149639901979390E+002	1.3497856E+000	-9.1562819E-005
3	0	9.154639901853079E+002	1.3494828E+000	-3.4306191E-005
3	0	9.159639901726769E+002	1.3491921E+000	-1.5220648E-005
3	0	9.164639901600458E+002	1.3489053E+000	8.0207064E-005
3	0	9.169639901474147E+002	1.3485911E+000	-9.1562819E-005
3	0	9.174639901347837E+002	1.3482203E+000	-1.5220648E-005
3	0	9.179639901221526E+002	1.3478192E+000	-7.2477276E-005
3	0	9.184639901095215E+002	1.3475207E+000	-7.2477276E-005
3	0	9.189639900968905E+002	1.3472295E+000	3.8648941E-006
3	0	9.194639900842594E+002	1.3469447E+000	-1.1064836E-004
3	0	9.199639900716284E+002	1.3466600E+000	-1.1064836E-004
3	0	9.204639900589973E+002	1.3463751E+000	-1.5220648E-005
3	0	9.209639900463662E+002	1.3460556E+000	3.8648941E-006
3	0	9.214639900337352E+002	1.3456653E+000	-3.4306191E-005
3	0	9.219639900211041E+002	1.3452569E+000	-1.2973390E-004
3	0	9.224639900084730E+002	1.3449360E+000	-1.1064836E-004
3	0	9.229639899958420E+002	1.3446151E+000	-3.4306191E-005
3	0	9.234639899832109E+002	1.3443007E+000	-5.3391734E-005
3	0	9.239639899705799E+002	1.3439932E+000	-1.1064836E-004
3	0	9.244639899579488E+002	1.3436929E+000	-1.8699054E-004
3	0	9.249639899453177E+002	1.3433504E+000	-1.6790499E-004
3	0	9.254639899326867E+002	1.3429290E+000	-5.3391734E-005
3	0	9.259639899200556E+002	1.3424853E+000	-9.1562819E-005
3	0	9.264639899074245E+002	1.3421515E+000	-7.2477276E-005
3	0	9.269639898947935E+002	1.3418095E+000	-2.0607607E-004
3	0	9.274639898821624E+002	1.3414820E+000	-2.0607607E-004
3	0	9.279639898695314E+002	1.3411504E+000	-7.2477276E-005
3	0	9.284639898569003E+002	1.3408232E+000	-3.4306191E-005
3	0	9.289639898442692E+002	1.3404472E+000	-5.3391734E-005
3	0	9.294639898316382E+002	1.3400041E+000	-3.4306191E-005
3	0	9.299639898190071E+002	1.3395455E+000	-5.3391734E-005
3	0	9.304639898063760E+002	1.3391875E+000	-1.5220648E-005
3	0	9.309639897937450E+002	1.3388329E+000	-5.3391734E-005
3	0	9.314639897811139E+002	1.3384905E+000	-9.1562819E-005
3	0	9.319639897684829E+002	1.3381696E+000	-5.3391734E-005
3	0	9.324639897558518E+002	1.3378637E+000	3.8648941E-006
3	0	9.329639897432207E+002	1.3375272E+000	-7.2477276E-005
3	0	9.334639897305897E+002	1.3371247E+000	-1.5220648E-005
3	0	9.339639897179586E+002	1.3367225E+000	-1.5220648E-005
3	0	9.344639897053275E+002	1.3364207E+000	4.2035979E-005
3	0	9.349639896926965E+002	1.3361208E+000	4.2035979E-005
3	0	9.354639896800654E+002	1.3358424E+000	9.9292607E-005
3	0	9.359639896674344E+002	1.3355757E+000	4.2035979E-005
3	0	9.364639896548033E+002	1.3353080E+000	-9.1562819E-005
3	0	9.369639896421722E+002	1.3350151E+000	-5.3391734E-005
3	0	9.374639896295412E+002	1.3346478E+000	-5.3391734E-005
3	0	9.379639896169101E+002	1.3342589E+000	-1.1064836E-004
3	0	9.384639896042791E+002	1.3339689E+000	-1.2973390E-004
3	0	9.389639895916480E+002	1.3336699E+000	-3.4306191E-005
3	0	9.394639895790169E+002	1.3333870E+000	-7.2477276E-005
3	0	9.399639895663859E+002	1.3331095E+000	-1.6790499E-004
3	0	9.404639895537548E+002	1.3328283E+000	-1.5220648E-005
3	0	9.409639895411237E+002	1.3325057E+000	4.2035979E-005
3	0	9.414639895284927E+002	1.3321190E+000	4.2035979E-005
3	0	9.419639895158616E+002	1.3317053E+000	-1.4881945E-004
3	0	9.424639895032306E+002	1.3313906E+000	-7.2477276E-005
3	0	9.429639894905995E+002	1.3310722E+000	6.1121522E-005
3	0	9.434639894779684E+002	1.3307639E+000	-1.1064836E-004
3	0	9.439639894653374E+002	1.3304702E+000	6.1121522E-005
3	0	9.444639894527063E+002	1.3301551E+000	-1.2973390E-004
3	0	9.449639894400752E+002	1.3297993E+000	-7.2477276E-005
3	0	9.454639894274442E+002	1.3293842E+000	8.0207064E-005
3	0	9.459639894148131E+002	1.3289438E+000	8.0207064E-005
3	0	9.464639894021821E+002	1.3285985E+000	-7.2477276E-005
3	0	9.469639893895510E+002	1.3282466E+000	-1.5220648E-005
3	0	9.474639893769199E+002	1.3279114E+000	3.8648941E-006
3	0	9.479639893642889E+002	1.3275753E+000	4.2035979E-005
3	0	9.479643893642788E+002	1.3274962E+000	2.2950437E-005