EC-Lab ASCII FILE
Nb header lines : 48                          

Open Circuit Voltage

Run on channel : 1 (SN 81504)
User : 
CE vs. WE compliance from -10 V to 10 V
Electrode connection : standard
Potential control : Ewe
Ewe ctrl range : min = -2.50 V, max = 2.50 V
Safety Limits :
	Do not start on E overload
Acquisition started on : 05/10/2026 02:09:52.585
Loaded Setting File :  C:\PEM-WE_measurements\2026\372_IV_IV IrOx, 5 min Pt, 30 min C, etched cathode\new station\Loopeis new\1,46 V different time gaps closed cell\Loopeis 1,46V_60s_2_PEIS from 65kHz to 10kHz.mps
Saved on :
	File : L_12_Loopeis 1,46V_60s_2_PEIS from 65kHz to 10kHz_02_OCV_C01.mpr
	Directory : C:\PEM-WE_measurements\2026\372_IV_IV IrOx, 5 min Pt, 30 min C, etched cathode\new station\Loopeis new\1,46 V different time gaps closed cell\
	Host : 192.168.0.2
Device : SP-150e (SN .005491)
Address : 192.168.0.91
EC-LAB for windows v11.71 (software)
Internet server v28.00 (firmware)
Command interpretor v14.01 (firmware)
Electrode material : 
Initial state : 
Electrolyte : 
Comments : 
Current amplifier : SP-150eB-20A
Electrode surface area : 0.001 cm²
Characteristic mass : 0.001 g
Equivalent Weight : 0.000 g/eq.
Density : 0.000 g/cm3
Volume (V) : 0.001 cm³
Record Analogic IN 1
Text export
   Mode : Standard
   Time format : Elapsed
Cycle Definition : Charge/Discharge alternance
tR (h:m:s)          0:01:0.0000         
dER/dt (mV/h)       1.0                 
record              <Ewe>               
dER (mV)            10.00               
dtR (s)             0.5000              
E range min (V)     -2.500              
E range max (V)     2.500               

mode	error	time/s	<Ewe/V>	Analog IN 1/V	
3	0	4.549979885057837E+001	1.4177053E+000	4.2035979E-005
3	0	4.599979883794731E+001	1.4091587E+000	4.2035979E-005
3	0	4.649979882531625E+001	1.4032394E+000	3.8648941E-006
3	0	4.699979881268519E+001	1.3988186E+000	2.2950437E-005
3	0	4.749979880005412E+001	1.3953576E+000	-1.1064836E-004
3	0	4.799979878742306E+001	1.3924769E+000	-7.2477276E-005
3	0	4.849979877479200E+001	1.3899928E+000	-1.4881945E-004
3	0	4.899979876216094E+001	1.3878148E+000	2.2950437E-005
3	0	4.949979874952987E+001	1.3858527E+000	-1.2973390E-004
3	0	4.999979873689881E+001	1.3840392E+000	4.2035979E-005
3	0	5.049979872426775E+001	1.3822931E+000	-2.0607607E-004
3	0	5.099979871163669E+001	1.3806534E+000	-1.5220648E-005
3	0	5.149979869900562E+001	1.3791996E+000	-1.2973390E-004
3	0	5.199979868637456E+001	1.3778633E+000	3.8648941E-006
3	0	5.249979867374350E+001	1.3766097E+000	-3.4306191E-005
3	0	5.299979866111244E+001	1.3754362E+000	-7.2477276E-005
3	0	5.349979864848137E+001	1.3743361E+000	-1.6790499E-004
3	0	5.399979863585031E+001	1.3732502E+000	-3.4306191E-005
3	0	5.449979862321925E+001	1.3721431E+000	-1.5220648E-005
3	0	5.499979861058819E+001	1.3710778E+000	2.2950437E-005
3	0	5.549979859795712E+001	1.3701483E+000	-3.4306191E-005
3	0	5.599979858532606E+001	1.3692863E+000	-7.2477276E-005
3	0	5.649979857269500E+001	1.3684582E+000	3.8648941E-006
3	0	5.699979856006394E+001	1.3676687E+000	-1.5220648E-005
3	0	5.749979854743287E+001	1.3669094E+000	-9.1562819E-005
3	0	5.799979853480181E+001	1.3661389E+000	-2.2516162E-004
3	0	5.849979852217075E+001	1.3653299E+000	-9.1562819E-005
3	0	5.899979850953969E+001	1.3645476E+000	-3.4306191E-005
3	0	5.949979849690862E+001	1.3638635E+000	-5.3391734E-005
3	0	5.999979848427756E+001	1.3632196E+000	4.2035979E-005
3	0	6.049979847164650E+001	1.3625972E+000	3.8648941E-006
3	0	6.099979845901544E+001	1.3619974E+000	9.9292607E-005
3	0	6.149979844638438E+001	1.3614163E+000	3.8648941E-006
3	0	6.199979843375331E+001	1.3608258E+000	6.1121522E-005
3	0	6.249979842112225E+001	1.3601793E+000	-7.2477276E-005
3	0	6.299979840849119E+001	1.3595371E+000	-1.1064836E-004
3	0	6.349979839586013E+001	1.3589841E+000	-1.5220648E-005
3	0	6.399979838322906E+001	1.3584677E+000	-1.6790499E-004
3	0	6.449979837059800E+001	1.3579525E+000	-5.3391734E-005
3	0	6.499979835796694E+001	1.3574505E+000	-1.8699054E-004
3	0	6.549979834533588E+001	1.3569623E+000	4.2035979E-005
3	0	6.599979833270481E+001	1.3564417E+000	4.2035979E-005
3	0	6.649979832007375E+001	1.3558694E+000	3.8648941E-006
3	0	6.699979830744269E+001	1.3553046E+000	-5.3391734E-005
3	0	6.749979829481163E+001	1.3548487E+000	1.1837815E-004
3	0	6.799979828218056E+001	1.3544172E+000	-5.3391734E-005
3	0	6.849979826954950E+001	1.3540000E+000	8.0207064E-005
3	0	6.899979825691844E+001	1.3536042E+000	-5.3391734E-005
3	0	6.949979824428738E+001	1.3532172E+000	9.9292607E-005
3	0	6.999979823165631E+001	1.3527935E+000	3.8648941E-006
3	0	7.049979821902525E+001	1.3523147E+000	-7.2477276E-005
3	0	7.099979820639419E+001	1.3518529E+000	-5.3391734E-005
3	0	7.149979819376313E+001	1.3514758E+000	8.0207064E-005
3	0	7.199979818113206E+001	1.3511233E+000	-3.4306191E-005
3	0	7.249979816850100E+001	1.3507768E+000	6.1121522E-005
3	0	7.299979815586994E+001	1.3504441E+000	2.2950437E-005
3	0	7.349979814323888E+001	1.3501092E+000	-2.0607607E-004
3	0	7.399979813060781E+001	1.3497411E+000	2.2950437E-005
3	0	7.449979811797675E+001	1.3493007E+000	-1.1064836E-004
3	0	7.499979810534569E+001	1.3488610E+000	-9.1562819E-005
3	0	7.549979809271463E+001	1.3485078E+000	-3.4306191E-005
3	0	7.599979808008356E+001	1.3481635E+000	6.1121522E-005
3	0	7.649979806745250E+001	1.3478256E+000	8.0207064E-005
3	0	7.699979805482144E+001	1.3474802E+000	-3.4306191E-005
3	0	7.749979804219038E+001	1.3471459E+000	-1.5220648E-005
3	0	7.799979802955932E+001	1.3467611E+000	-5.3391734E-005
3	0	7.849979801692825E+001	1.3463140E+000	-1.5220648E-005
3	0	7.899979800429719E+001	1.3458643E+000	-9.1562819E-005
3	0	7.949979799166613E+001	1.3454998E+000	-9.1562819E-005
3	0	7.999979797903507E+001	1.3451525E+000	-1.5220648E-005
3	0	8.049979796640400E+001	1.3447939E+000	2.2950437E-005
3	0	8.099979795377294E+001	1.3444401E+000	4.2035979E-005
3	0	8.149979794114188E+001	1.3440804E+000	-5.3391734E-005
3	0	8.199979792851082E+001	1.3436737E+000	3.8648941E-006
3	0	8.249979791587975E+001	1.3432101E+000	4.2035979E-005
3	0	8.299979790324869E+001	1.3427414E+000	-5.3391734E-005
3	0	8.349979789061763E+001	1.3423493E+000	-1.1064836E-004
3	0	8.399979787798657E+001	1.3419768E+000	-1.1064836E-004
3	0	8.449979786535550E+001	1.3416007E+000	-1.5220648E-005
3	0	8.499979785272444E+001	1.3412367E+000	-3.4306191E-005
3	0	8.549979784009338E+001	1.3408599E+000	2.2950437E-005
3	0	8.599979782746232E+001	1.3404498E+000	-5.3391734E-005
3	0	8.649979781483125E+001	1.3399704E+000	-1.1064836E-004
3	0	8.699979780220019E+001	1.3395101E+000	1.1837815E-004
3	0	8.749979778956913E+001	1.3391311E+000	-3.4306191E-005
3	0	8.799979777693807E+001	1.3387721E+000	-1.2973390E-004
3	0	8.849979776430700E+001	1.3384285E+000	-5.3391734E-005
3	0	8.899979775167594E+001	1.3380944E+000	-7.2477276E-005
3	0	8.949979773904488E+001	1.3377653E+000	-3.4306191E-005
3	0	8.999979772641382E+001	1.3374071E+000	-1.1064836E-004
3	0	9.049979771378275E+001	1.3369924E+000	-5.3391734E-005
3	0	9.099979770115169E+001	1.3365716E+000	-7.2477276E-005
3	0	9.149979768852063E+001	1.3362418E+000	6.1121522E-005
3	0	9.199979767588957E+001	1.3359271E+000	2.2950437E-005
3	0	9.249979766325851E+001	1.3356197E+000	-3.4306191E-005
3	0	9.299979765062744E+001	1.3353158E+000	-7.2477276E-005
3	0	9.349979763799638E+001	1.3350050E+000	9.9292607E-005
3	0	9.399979762536532E+001	1.3346539E+000	3.8648941E-006
3	0	9.449979761273426E+001	1.3342288E+000	9.9292607E-005
3	0	9.499979760010319E+001	1.3337998E+000	-1.2973390E-004
3	0	9.549979758747213E+001	1.3334509E+000	2.2950437E-005
3	0	9.599979757484107E+001	1.3331152E+000	-1.5220648E-005
3	0	9.649979756221001E+001	1.3327790E+000	-7.2477276E-005
3	0	9.699979754957894E+001	1.3324413E+000	-3.4306191E-005
3	0	9.749979753694788E+001	1.3320951E+000	-1.4881945E-004
3	0	9.799979752431682E+001	1.3317131E+000	-9.1562819E-005
3	0	9.849979751168576E+001	1.3312598E+000	2.2950437E-005
3	0	9.899979749905469E+001	1.3308061E+000	-1.5220648E-005
3	0	9.949979748642363E+001	1.3304343E+000	6.1121522E-005
3	0	9.999979747379257E+001	1.3300581E+000	-1.5220648E-005
3	0	1.004997974611615E+002	1.3296793E+000	-3.4306191E-005
3	0	1.009997974485304E+002	1.3293271E+000	6.1121522E-005
3	0	1.014997974358994E+002	1.3289480E+000	3.8648941E-006
3	0	1.019997974232683E+002	1.3285342E+000	-9.1562819E-005
3	0	1.024997974106373E+002	1.3280555E+000	-5.3391734E-005
3	0	1.029997973980062E+002	1.3275791E+000	-3.4306191E-005
3	0	1.034997973853751E+002	1.3271768E+000	4.2035979E-005
3	0	1.039997973727441E+002	1.3267944E+000	-3.4306191E-005
3	0	1.044997973601130E+002	1.3264049E+000	-5.3391734E-005
3	0	1.049997973474819E+002	1.3260212E+000	-1.5220648E-005
3	0	1.050001973474718E+002	1.3258169E+000	-9.1562819E-005