EC-Lab ASCII FILE
Nb header lines : 55                          

Open Circuit Voltage

Run on channel : 1 (SN 81504)
User : 
CE vs. WE compliance from -10 V to 10 V
Electrode connection : standard
Potential control : Ewe
Ewe ctrl range : min = -2.50 V, max = 2.50 V
Safety Limits :
	Do not start on E overload
Acquisition started on : 05/10/2026 02:27:32.112
Loaded Setting File :  C:\PEM-WE_measurements\2026\372_IV_IV IrOx, 5 min Pt, 30 min C, etched cathode\new station\Loopeis new\1,46 V different time gaps closed cell\Loopeis 1,46V_60s_3_PEIS from 6500Hz to 1000Hz.mps
Saved on :
	File : L_13_Loopeis 1,46V_60s_3_PEIS from 6500Hz to 1000Hz_04_OCV_C01.mpr
	Directory : C:\PEM-WE_measurements\2026\372_IV_IV IrOx, 5 min Pt, 30 min C, etched cathode\new station\Loopeis new\1,46 V different time gaps closed cell\
	Host : 192.168.0.2
Device : SP-150e (SN .005491)
Address : 192.168.0.91
EC-LAB for windows v11.71 (software)
Internet server v28.00 (firmware)
Command interpretor v14.01 (firmware)
Electrode material : 
Initial state : 
Electrolyte : 
Comments : 
Current amplifier : SP-150eB-20A
Electrode surface area : 0.001 cm²
Characteristic mass : 0.001 g
Equivalent Weight : 0.000 g/eq.
Density : 0.000 g/cm3
Volume (V) : 0.001 cm³
Record Analogic IN 1
Text export
   Mode : Standard
   Time format : Elapsed
Cycle Definition : Charge/Discharge alternance
External device configuration :
   device type : Temperature Probe
   device name : Other
   Analog IN 1 : 
      unit : T/Â°C
      max : 100.000 at 2.000 V
      min : 0.000 at 1.460 V
tR (h:m:s)          0:01:0.0000         
dER/dt (mV/h)       1.0                 
record              <Ewe>               
dER (mV)            10.00               
dtR (s)             0.5000              
E range min (V)     -2.500              
E range max (V)     2.500               

mode	error	time/s	<Ewe/V>	Analog IN 1/V	
3	0	1.506875994829898E+002	1.1897180E+000	-2.7038742E+002
3	0	1.511875994703587E+002	1.2583760E+000	-2.7039093E+002
3	0	1.516875994577276E+002	1.2623626E+000	-2.7039801E+002
3	0	1.521875994450966E+002	1.2646930E+000	-2.7040155E+002
3	0	1.526875994324655E+002	1.2662380E+000	-2.7038742E+002
3	0	1.531875994198344E+002	1.2673385E+000	-2.7038742E+002
3	0	1.536875994072034E+002	1.2681445E+000	-2.7036972E+002
3	0	1.541875993945723E+002	1.2687075E+000	-2.7037677E+002
3	0	1.546875993819413E+002	1.2690604E+000	-2.7039447E+002
3	0	1.551875993693102E+002	1.2693353E+000	-2.7039093E+002
3	0	1.556875993566791E+002	1.2695954E+000	-2.7036972E+002
3	0	1.561875993440481E+002	1.2698030E+000	-2.7039447E+002
3	0	1.566875993314170E+002	1.2699534E+000	-2.7039093E+002
3	0	1.571875993187859E+002	1.2700673E+000	-2.7038742E+002
3	0	1.576875993061549E+002	1.2701492E+000	-2.7037326E+002
3	0	1.581875992935238E+002	1.2701581E+000	-2.7037326E+002
3	0	1.586875992808928E+002	1.2700920E+000	-2.7036972E+002
3	0	1.591875992682617E+002	1.2700377E+000	-2.7036972E+002
3	0	1.596875992556306E+002	1.2700562E+000	-2.7037677E+002
3	0	1.601875992429996E+002	1.2700723E+000	-2.7037677E+002
3	0	1.606875992303685E+002	1.2700703E+000	-2.7038742E+002
3	0	1.611875992177374E+002	1.2700684E+000	-2.7038385E+002
3	0	1.616875992051064E+002	1.2700580E+000	-2.7037677E+002
3	0	1.621875991924753E+002	1.2699960E+000	-2.7038031E+002
3	0	1.626875991798443E+002	1.2698646E+000	-2.7035205E+002
3	0	1.631875991672132E+002	1.2697567E+000	-2.7036972E+002
3	0	1.636875991545821E+002	1.2697297E+000	-2.7037677E+002
3	0	1.641875991419511E+002	1.2697082E+000	-2.7040860E+002
3	0	1.646875991293200E+002	1.2696738E+000	-2.7037326E+002
3	0	1.651875991166889E+002	1.2696390E+000	-2.7038742E+002
3	0	1.656875991040579E+002	1.2695988E+000	-2.7038031E+002
3	0	1.661875990914268E+002	1.2695208E+000	-2.7039447E+002
3	0	1.666875990787958E+002	1.2693669E+000	-2.7036972E+002
3	0	1.671875990661647E+002	1.2692339E+000	-2.7037677E+002
3	0	1.676875990535336E+002	1.2691773E+000	-2.7039093E+002
3	0	1.681875990409026E+002	1.2691314E+000	-2.7040155E+002
3	0	1.686875990282715E+002	1.2690855E+000	-2.7038742E+002
3	0	1.691875990156404E+002	1.2690337E+000	-2.7038031E+002
3	0	1.696875990030094E+002	1.2689679E+000	-2.7038031E+002
3	0	1.701875989903783E+002	1.2688618E+000	-2.7038742E+002
3	0	1.706875989777473E+002	1.2686834E+000	-2.7039093E+002
3	0	1.711875989651162E+002	1.2685204E+000	-2.7036972E+002
3	0	1.716875989524851E+002	1.2684426E+000	-2.7037326E+002
3	0	1.721875989398541E+002	1.2683712E+000	-2.7037326E+002
3	0	1.726875989272230E+002	1.2682856E+000	-2.7038385E+002
3	0	1.731875989145919E+002	1.2681992E+000	-2.7038031E+002
3	0	1.736875989019609E+002	1.2681010E+000	-2.7039447E+002
3	0	1.741875988893298E+002	1.2679638E+000	-2.7037677E+002
3	0	1.746875988766988E+002	1.2677538E+000	-2.7038385E+002
3	0	1.751875988640677E+002	1.2675875E+000	-2.7038031E+002
3	0	1.756875988514366E+002	1.2675117E+000	-2.7039093E+002
3	0	1.761875988388056E+002	1.2674525E+000	-2.7038031E+002
3	0	1.766875988261745E+002	1.2673920E+000	-2.7037677E+002
3	0	1.771875988135434E+002	1.2673380E+000	-2.7037677E+002
3	0	1.776875988009124E+002	1.2672811E+000	-2.7036267E+002
3	0	1.781875987882813E+002	1.2671745E+000	-2.7038031E+002
3	0	1.786875987756503E+002	1.2669951E+000	-2.7039447E+002
3	0	1.791875987630192E+002	1.2668427E+000	-2.7038031E+002
3	0	1.796875987503881E+002	1.2667676E+000	-2.7036972E+002
3	0	1.801875987377571E+002	1.2667011E+000	-2.7038031E+002
3	0	1.806875987251260E+002	1.2666290E+000	-2.7038031E+002
3	0	1.811875987124949E+002	1.2665441E+000	-2.7036972E+002
3	0	1.816875986998639E+002	1.2664484E+000	-2.7035913E+002
3	0	1.821875986872328E+002	1.2663069E+000	-2.7037326E+002
3	0	1.826875986746018E+002	1.2660931E+000	-2.7038385E+002
3	0	1.831875986619707E+002	1.2658932E+000	-2.7038031E+002
3	0	1.836875986493396E+002	1.2657754E+000	-2.7037677E+002
3	0	1.841875986367086E+002	1.2656611E+000	-2.7039093E+002
3	0	1.846875986240775E+002	1.2655369E+000	-2.7037326E+002
3	0	1.851875986114464E+002	1.2654083E+000	-2.7038031E+002
3	0	1.856875985988154E+002	1.2652603E+000	-2.7035559E+002
3	0	1.861875985861843E+002	1.2650554E+000	-2.7036618E+002
3	0	1.866875985735533E+002	1.2647825E+000	-2.7037326E+002
3	0	1.871875985609222E+002	1.2645270E+000	-2.7036267E+002
3	0	1.876875985482911E+002	1.2643452E+000	-2.7039093E+002
3	0	1.881875985356601E+002	1.2641705E+000	-2.7037677E+002
3	0	1.886875985230290E+002	1.2639817E+000	-2.7037677E+002
3	0	1.891875985103979E+002	1.2637959E+000	-2.7034851E+002
3	0	1.896875984977669E+002	1.2636006E+000	-2.7037326E+002
3	0	1.901875984851358E+002	1.2633533E+000	-2.7037677E+002
3	0	1.906875984725048E+002	1.2630380E+000	-2.7038031E+002
3	0	1.911875984598737E+002	1.2627358E+000	-2.7037326E+002
3	0	1.916875984472426E+002	1.2625163E+000	-2.7037326E+002
3	0	1.921875984346116E+002	1.2622992E+000	-2.7038031E+002
3	0	1.926875984219805E+002	1.2620749E+000	-2.7039801E+002
3	0	1.931875984093494E+002	1.2618521E+000	-2.7034851E+002
3	0	1.936875983967184E+002	1.2616249E+000	-2.7038385E+002
3	0	1.941875983840873E+002	1.2613603E+000	-2.7036267E+002
3	0	1.946875983714563E+002	1.2610331E+000	-2.7037677E+002
3	0	1.951875983588252E+002	1.2607329E+000	-2.7038742E+002
3	0	1.956875983461941E+002	1.2605330E+000	-2.7038031E+002
3	0	1.961875983335631E+002	1.2603459E+000	-2.7038031E+002
3	0	1.966875983209320E+002	1.2601656E+000	-2.7038385E+002
3	0	1.971875983083009E+002	1.2599995E+000	-2.7037326E+002
3	0	1.976875982956699E+002	1.2598343E+000	-2.7038385E+002
3	0	1.981875982830388E+002	1.2596133E+000	-2.7036618E+002
3	0	1.986875982704078E+002	1.2593223E+000	-2.7036972E+002
3	0	1.991875982577767E+002	1.2590624E+000	-2.7036972E+002
3	0	1.996875982451456E+002	1.2588843E+000	-2.7038031E+002
3	0	2.001875982325146E+002	1.2587128E+000	-2.7036267E+002
3	0	2.006875982198835E+002	1.2585360E+000	-2.7036972E+002
3	0	2.011875982072524E+002	1.2583622E+000	-2.7036972E+002
3	0	2.016875981946214E+002	1.2581877E+000	-2.7039093E+002
3	0	2.021875981819903E+002	1.2579508E+000	-2.7038742E+002
3	0	2.026875981693593E+002	1.2576475E+000	-2.7038385E+002
3	0	2.031875981567282E+002	1.2573595E+000	-2.7038031E+002
3	0	2.036875981440971E+002	1.2571533E+000	-2.7040860E+002
3	0	2.041875981314661E+002	1.2569498E+000	-2.7037677E+002
3	0	2.046875981188350E+002	1.2567420E+000	-2.7041568E+002
3	0	2.051875981062040E+002	1.2565266E+000	-2.7038031E+002
3	0	2.056875980935729E+002	1.2563107E+000	-2.7036618E+002
3	0	2.061875980809418E+002	1.2560331E+000	-2.7038385E+002
3	0	2.066875980683108E+002	1.2556876E+000	-2.7038031E+002
3	0	2.071875980556797E+002	1.2553622E+000	-2.7038031E+002
3	0	2.076875980430486E+002	1.2551143E+000	-2.7038742E+002
3	0	2.081875980304176E+002	1.2548777E+000	-2.7037326E+002
3	0	2.086875980177865E+002	1.2546350E+000	-2.7037326E+002
3	0	2.091875980051555E+002	1.2543898E+000	-2.7038385E+002
3	0	2.096875979925244E+002	1.2541363E+000	-2.7038385E+002
3	0	2.101875979798933E+002	1.2538213E+000	-2.7039447E+002
3	0	2.102139979792264E+002	1.2536334E+000	-2.7038031E+002