EC-Lab ASCII FILE
Nb header lines : 55                          

Open Circuit Voltage

Run on channel : 1 (SN 81504)
User : 
CE vs. WE compliance from -10 V to 10 V
Electrode connection : standard
Potential control : Ewe
Ewe ctrl range : min = -2.50 V, max = 2.50 V
Safety Limits :
	Do not start on E overload
Acquisition started on : 05/10/2026 02:27:32.112
Loaded Setting File :  C:\PEM-WE_measurements\2026\372_IV_IV IrOx, 5 min Pt, 30 min C, etched cathode\new station\Loopeis new\1,46 V different time gaps closed cell\Loopeis 1,46V_60s_3_PEIS from 6500Hz to 1000Hz.mps
Saved on :
	File : L_13_Loopeis 1,46V_60s_3_PEIS from 6500Hz to 1000Hz_06_OCV_C01.mpr
	Directory : C:\PEM-WE_measurements\2026\372_IV_IV IrOx, 5 min Pt, 30 min C, etched cathode\new station\Loopeis new\1,46 V different time gaps closed cell\
	Host : 192.168.0.2
Device : SP-150e (SN .005491)
Address : 192.168.0.91
EC-LAB for windows v11.71 (software)
Internet server v28.00 (firmware)
Command interpretor v14.01 (firmware)
Electrode material : 
Initial state : 
Electrolyte : 
Comments : 
Current amplifier : SP-150eB-20A
Electrode surface area : 0.001 cm²
Characteristic mass : 0.001 g
Equivalent Weight : 0.000 g/eq.
Density : 0.000 g/cm3
Volume (V) : 0.001 cm³
Record Analogic IN 1
Text export
   Mode : Standard
   Time format : Elapsed
Cycle Definition : Charge/Discharge alternance
External device configuration :
   device type : Temperature Probe
   device name : Other
   Analog IN 1 : 
      unit : T/Â°C
      max : 100.000 at 2.000 V
      min : 0.000 at 1.460 V
tR (h:m:s)          0:01:0.0000         
dER/dt (mV/h)       1.0                 
record              <Ewe>               
dER (mV)            10.00               
dtR (s)             0.5000              
E range min (V)     -2.500              
E range max (V)     2.500               

mode	error	time/s	<Ewe/V>	Analog IN 1/V	
3	0	2.557145968297846E+002	1.4162557E+000	-2.7038742E+002
3	0	2.562145968171535E+002	1.4073085E+000	-2.7038742E+002
3	0	2.567145968045224E+002	1.4013608E+000	-2.7040155E+002
3	0	2.572145967918914E+002	1.3970227E+000	-2.7038385E+002
3	0	2.577145967792603E+002	1.3935589E+000	-2.7036618E+002
3	0	2.582145967666293E+002	1.3905859E+000	-2.7038385E+002
3	0	2.587145967539982E+002	1.3879195E+000	-2.7039447E+002
3	0	2.592145967413671E+002	1.3855634E+000	-2.7039447E+002
3	0	2.597145967287361E+002	1.3835117E+000	-2.7038031E+002
3	0	2.602145967161050E+002	1.3816469E+000	-2.7033789E+002
3	0	2.607145967034739E+002	1.3799365E+000	-2.7036972E+002
3	0	2.612145966908429E+002	1.3783664E+000	-2.7037326E+002
3	0	2.617145966782118E+002	1.3768998E+000	-2.7037326E+002
3	0	2.622145966655808E+002	1.3754812E+000	-2.7038031E+002
3	0	2.627145966529497E+002	1.3740681E+000	-2.7038031E+002
3	0	2.632145966403186E+002	1.3727642E+000	-2.7038385E+002
3	0	2.637145966276876E+002	1.3715971E+000	-2.7038031E+002
3	0	2.642145966150565E+002	1.3705047E+000	-2.7036618E+002
3	0	2.647145966024254E+002	1.3694706E+000	-2.7038742E+002
3	0	2.652145965897944E+002	1.3684906E+000	-2.7036267E+002
3	0	2.657145965771633E+002	1.3675557E+000	-2.7037677E+002
3	0	2.662145965645323E+002	1.3666034E+000	-2.7036972E+002
3	0	2.667145965519012E+002	1.3656240E+000	-2.7035559E+002
3	0	2.672145965392701E+002	1.3647196E+000	-2.7039093E+002
3	0	2.677145965266391E+002	1.3639232E+000	-2.7037677E+002
3	0	2.682145965140080E+002	1.3631759E+000	-2.7038385E+002
3	0	2.687145965013769E+002	1.3624463E+000	-2.7039447E+002
3	0	2.692145964887459E+002	1.3617606E+000	-2.7041568E+002
3	0	2.697145964761148E+002	1.3610966E+000	-2.7038742E+002
3	0	2.702145964634838E+002	1.3604100E+000	-2.7037326E+002
3	0	2.707145964508527E+002	1.3596655E+000	-2.7036972E+002
3	0	2.712145964382216E+002	1.3589840E+000	-2.7036972E+002
3	0	2.717145964255906E+002	1.3583949E+000	-2.7038742E+002
3	0	2.722145964129595E+002	1.3578314E+000	-2.7037677E+002
3	0	2.727145964003284E+002	1.3572863E+000	-2.7036267E+002
3	0	2.732145963876974E+002	1.3567579E+000	-2.7038385E+002
3	0	2.737145963750663E+002	1.3562415E+000	-2.7039801E+002
3	0	2.742145963624353E+002	1.3556993E+000	-2.7038742E+002
3	0	2.747145963498042E+002	1.3550894E+000	-2.7038031E+002
3	0	2.752145963371731E+002	1.3545443E+000	-2.7039447E+002
3	0	2.757145963245421E+002	1.3541036E+000	-2.7037677E+002
3	0	2.762145963119110E+002	1.3536909E+000	-2.7039093E+002
3	0	2.767145962992799E+002	1.3532933E+000	-2.7036267E+002
3	0	2.772145962866489E+002	1.3529168E+000	-2.7035559E+002
3	0	2.777145962740178E+002	1.3525614E+000	-2.7038031E+002
3	0	2.782145962613868E+002	1.3521775E+000	-2.7035913E+002
3	0	2.787145962487557E+002	1.3517292E+000	-2.7038031E+002
3	0	2.792145962361246E+002	1.3513203E+000	-2.7037677E+002
3	0	2.797145962234936E+002	1.3510053E+000	-2.7036972E+002
3	0	2.802145962108625E+002	1.3507080E+000	-2.7037677E+002
3	0	2.807145961982314E+002	1.3504144E+000	-2.7036972E+002
3	0	2.812145961856004E+002	1.3501266E+000	-2.7037677E+002
3	0	2.817145961729693E+002	1.3498452E+000	-2.7039447E+002
3	0	2.822145961603383E+002	1.3494886E+000	-2.7038031E+002
3	0	2.827145961477072E+002	1.3490738E+000	-2.7036972E+002
3	0	2.832145961350761E+002	1.3486956E+000	-2.7036972E+002
3	0	2.837145961224451E+002	1.3483895E+000	-2.7038385E+002
3	0	2.842145961098140E+002	1.3480974E+000	-2.7037677E+002
3	0	2.847145960971829E+002	1.3477936E+000	-2.7038385E+002
3	0	2.852145960845519E+002	1.3475026E+000	-2.7036618E+002
3	0	2.857145960719208E+002	1.3471992E+000	-2.7036972E+002
3	0	2.862145960592898E+002	1.3468517E+000	-2.7036267E+002
3	0	2.867145960466587E+002	1.3464229E+000	-2.7039447E+002
3	0	2.872145960340276E+002	1.3460371E+000	-2.7037677E+002
3	0	2.877145960213966E+002	1.3457254E+000	-2.7038742E+002
3	0	2.882145960087655E+002	1.3454173E+000	-2.7039093E+002
3	0	2.887145959961344E+002	1.3451034E+000	-2.7037326E+002
3	0	2.892145959835034E+002	1.3447878E+000	-2.7038742E+002
3	0	2.897145959708723E+002	1.3444713E+000	-2.7036267E+002
3	0	2.902145959582413E+002	1.3440926E+000	-2.7037326E+002
3	0	2.907145959456102E+002	1.3436520E+000	-2.7036972E+002
3	0	2.912145959329791E+002	1.3432438E+000	-2.7037326E+002
3	0	2.917145959203481E+002	1.3429064E+000	-2.7035913E+002
3	0	2.922145959077170E+002	1.3425736E+000	-2.7037677E+002
3	0	2.927145958950859E+002	1.3422385E+000	-2.7036972E+002
3	0	2.932145958824549E+002	1.3419088E+000	-2.7035913E+002
3	0	2.937145958698238E+002	1.3415639E+000	-2.7037326E+002
3	0	2.942145958571928E+002	1.3411754E+000	-2.7036972E+002
3	0	2.947145958445617E+002	1.3407235E+000	-2.7036618E+002
3	0	2.952145958319306E+002	1.3403168E+000	-2.7035913E+002
3	0	2.957145958192996E+002	1.3399854E+000	-2.7039093E+002
3	0	2.962145958066685E+002	1.3396813E+000	-2.7038031E+002
3	0	2.967145957940375E+002	1.3393824E+000	-2.7038742E+002
3	0	2.972145957814064E+002	1.3391005E+000	-2.7037677E+002
3	0	2.977145957687753E+002	1.3388169E+000	-2.7034851E+002
3	0	2.982145957561443E+002	1.3384949E+000	-2.7035913E+002
3	0	2.987145957435132E+002	1.3381146E+000	-2.7035559E+002
3	0	2.992145957308821E+002	1.3377634E+000	-2.7036267E+002
3	0	2.997145957182511E+002	1.3374945E+000	-2.7035913E+002
3	0	3.002145957056200E+002	1.3372339E+000	-2.7037326E+002
3	0	3.007145956929890E+002	1.3369689E+000	-2.7038031E+002
3	0	3.012145956803579E+002	1.3367083E+000	-2.7038742E+002
3	0	3.017145956677268E+002	1.3364385E+000	-2.7036618E+002
3	0	3.022145956550958E+002	1.3361139E+000	-2.7038385E+002
3	0	3.027145956424647E+002	1.3357341E+000	-2.7036618E+002
3	0	3.032145956298336E+002	1.3353875E+000	-2.7036972E+002
3	0	3.037145956172026E+002	1.3350999E+000	-2.7037677E+002
3	0	3.042145956045715E+002	1.3348221E+000	-2.7040860E+002
3	0	3.047145955919405E+002	1.3345448E+000	-2.7036972E+002
3	0	3.052145955793094E+002	1.3342693E+000	-2.7035913E+002
3	0	3.057145955666783E+002	1.3339739E+000	-2.7038742E+002
3	0	3.062145955540473E+002	1.3336154E+000	-2.7035559E+002
3	0	3.067145955414162E+002	1.3331873E+000	-2.7036618E+002
3	0	3.072145955287851E+002	1.3328044E+000	-2.7036972E+002
3	0	3.077145955161541E+002	1.3324903E+000	-2.7037326E+002
3	0	3.082145955035230E+002	1.3321748E+000	-2.7039093E+002
3	0	3.087145954908920E+002	1.3318663E+000	-2.7037677E+002
3	0	3.092145954782609E+002	1.3315583E+000	-2.7038031E+002
3	0	3.097145954656298E+002	1.3312393E+000	-2.7037677E+002
3	0	3.102145954529988E+002	1.3308710E+000	-2.7037677E+002
3	0	3.107145954403677E+002	1.3304381E+000	-2.7038742E+002
3	0	3.112145954277366E+002	1.3300319E+000	-2.7039447E+002
3	0	3.117145954151056E+002	1.3296863E+000	-2.7039093E+002
3	0	3.122145954024745E+002	1.3293637E+000	-2.7039447E+002
3	0	3.127145953898435E+002	1.3290242E+000	-2.7038031E+002
3	0	3.132145953772124E+002	1.3286866E+000	-2.7035559E+002
3	0	3.137145953645813E+002	1.3283284E+000	-2.7037677E+002
3	0	3.142145953519503E+002	1.3279375E+000	-2.7037326E+002
3	0	3.147145953393192E+002	1.3274767E+000	-2.7038385E+002
3	0	3.152145953266881E+002	1.3270499E+000	-2.7038031E+002
3	0	3.152149953266780E+002	1.3268950E+000	-2.7038031E+002