EC-Lab ASCII FILE
Nb header lines : 55                          

Open Circuit Voltage

Run on channel : 1 (SN 81504)
User : 
CE vs. WE compliance from -10 V to 10 V
Electrode connection : standard
Potential control : Ewe
Ewe ctrl range : min = -2.50 V, max = 2.50 V
Safety Limits :
	Do not start on E overload
Acquisition started on : 05/10/2026 02:27:32.112
Loaded Setting File :  C:\PEM-WE_measurements\2026\372_IV_IV IrOx, 5 min Pt, 30 min C, etched cathode\new station\Loopeis new\1,46 V different time gaps closed cell\Loopeis 1,46V_60s_3_PEIS from 6500Hz to 1000Hz.mps
Saved on :
	File : L_13_Loopeis 1,46V_60s_3_PEIS from 6500Hz to 1000Hz_12_OCV_C01.mpr
	Directory : C:\PEM-WE_measurements\2026\372_IV_IV IrOx, 5 min Pt, 30 min C, etched cathode\new station\Loopeis new\1,46 V different time gaps closed cell\
	Host : 192.168.0.2
Device : SP-150e (SN .005491)
Address : 192.168.0.91
EC-LAB for windows v11.71 (software)
Internet server v28.00 (firmware)
Command interpretor v14.01 (firmware)
Electrode material : 
Initial state : 
Electrolyte : 
Comments : 
Current amplifier : SP-150eB-20A
Electrode surface area : 0.001 cm²
Characteristic mass : 0.001 g
Equivalent Weight : 0.000 g/eq.
Density : 0.000 g/cm3
Volume (V) : 0.001 cm³
Record Analogic IN 1
Text export
   Mode : Standard
   Time format : Elapsed
Cycle Definition : Charge/Discharge alternance
External device configuration :
   device type : Temperature Probe
   device name : Other
   Analog IN 1 : 
      unit : T/Â°C
      max : 100.000 at 2.000 V
      min : 0.000 at 1.460 V
tR (h:m:s)          0:01:0.0000         
dER/dt (mV/h)       1.0                 
record              <Ewe>               
dER (mV)            10.00               
dtR (s)             0.5000              
E range min (V)     -2.500              
E range max (V)     2.500               

mode	error	time/s	<Ewe/V>	Analog IN 1/V	
3	0	5.739279955747770E+002	1.1869580E+000	-2.7038031E+002
3	0	5.744279955621460E+002	1.2590990E+000	-2.7037326E+002
3	0	5.749279955495149E+002	1.2629900E+000	-2.7039801E+002
3	0	5.754279955368838E+002	1.2652465E+000	-2.7039093E+002
3	0	5.759279955242528E+002	1.2667174E+000	-2.7038742E+002
3	0	5.764279955116217E+002	1.2677565E+000	-2.7037326E+002
3	0	5.769279954989906E+002	1.2685151E+000	-2.7038031E+002
3	0	5.774279954863596E+002	1.2690493E+000	-2.7037326E+002
3	0	5.779279954737285E+002	1.2694100E+000	-2.7038031E+002
3	0	5.784279954610975E+002	1.2696255E+000	-2.7037326E+002
3	0	5.789279954484664E+002	1.2698402E+000	-2.7035559E+002
3	0	5.794279954358353E+002	1.2700171E+000	-2.7035913E+002
3	0	5.799279954232043E+002	1.2701417E+000	-2.7038031E+002
3	0	5.804279954105732E+002	1.2702351E+000	-2.7037677E+002
3	0	5.809279953979421E+002	1.2703032E+000	-2.7039093E+002
3	0	5.814279953853111E+002	1.2703295E+000	-2.7036267E+002
3	0	5.819279953726800E+002	1.2702888E+000	-2.7039093E+002
3	0	5.824279953600490E+002	1.2701906E+000	-2.7036972E+002
3	0	5.829279953474179E+002	1.2701745E+000	-2.7035205E+002
3	0	5.834279953347868E+002	1.2701727E+000	-2.7039801E+002
3	0	5.839279953221558E+002	1.2701496E+000	-2.7039093E+002
3	0	5.844279953095247E+002	1.2701344E+000	-2.7035559E+002
3	0	5.849279952968936E+002	1.2701298E+000	-2.7038385E+002
3	0	5.854279952842626E+002	1.2700944E+000	-2.7037326E+002
3	0	5.859279952716315E+002	1.2700042E+000	-2.7036972E+002
3	0	5.864279952590005E+002	1.2698638E+000	-2.7040506E+002
3	0	5.869279952463694E+002	1.2698152E+000	-2.7037677E+002
3	0	5.874279952337383E+002	1.2697843E+000	-2.7037677E+002
3	0	5.879279952211073E+002	1.2697487E+000	-2.7037326E+002
3	0	5.884279952084762E+002	1.2697122E+000	-2.7037326E+002
3	0	5.889279951958451E+002	1.2696866E+000	-2.7037677E+002
3	0	5.894279951832141E+002	1.2696272E+000	-2.7039447E+002
3	0	5.899279951705830E+002	1.2695267E+000	-2.7037326E+002
3	0	5.904279951579520E+002	1.2693695E+000	-2.7037326E+002
3	0	5.909279951453209E+002	1.2692910E+000	-2.7039801E+002
3	0	5.914279951326898E+002	1.2692469E+000	-2.7036972E+002
3	0	5.919279951200588E+002	1.2691849E+000	-2.7037677E+002
3	0	5.924279951074277E+002	1.2691288E+000	-2.7040860E+002
3	0	5.929279950947966E+002	1.2690765E+000	-2.7037677E+002
3	0	5.934279950821656E+002	1.2690001E+000	-2.7038385E+002
3	0	5.939279950695345E+002	1.2688547E+000	-2.7037326E+002
3	0	5.944279950569035E+002	1.2686582E+000	-2.7039093E+002
3	0	5.949279950442724E+002	1.2685490E+000	-2.7039801E+002
3	0	5.954279950316413E+002	1.2684559E+000	-2.7037677E+002
3	0	5.959279950190103E+002	1.2683622E+000	-2.7036618E+002
3	0	5.964279950063792E+002	1.2682742E+000	-2.7038031E+002
3	0	5.969279949937481E+002	1.2681943E+000	-2.7040506E+002
3	0	5.974279949811171E+002	1.2681247E+000	-2.7036972E+002
3	0	5.979279949684860E+002	1.2679965E+000	-2.7037677E+002
3	0	5.984279949558550E+002	1.2678281E+000	-2.7040155E+002
3	0	5.989279949432239E+002	1.2677547E+000	-2.7039447E+002
3	0	5.994279949305928E+002	1.2677044E+000	-2.7038742E+002
3	0	5.999279949179618E+002	1.2676570E+000	-2.7039093E+002
3	0	6.004279949053307E+002	1.2676196E+000	-2.7038742E+002
3	0	6.009279948926996E+002	1.2675823E+000	-2.7040155E+002
3	0	6.014279948800686E+002	1.2675295E+000	-2.7039447E+002
3	0	6.019279948674375E+002	1.2674155E+000	-2.7039093E+002
3	0	6.024279948548065E+002	1.2672510E+000	-2.7037326E+002
3	0	6.029279948421754E+002	1.2671638E+000	-2.7038031E+002
3	0	6.034279948295443E+002	1.2670996E+000	-2.7039093E+002
3	0	6.039279948169133E+002	1.2670289E+000	-2.7036972E+002
3	0	6.044279948042822E+002	1.2669600E+000	-2.7039801E+002
3	0	6.049279947916511E+002	1.2668869E+000	-2.7036267E+002
3	0	6.054279947790201E+002	1.2667892E+000	-2.7037677E+002
3	0	6.059279947663890E+002	1.2666216E+000	-2.7038031E+002
3	0	6.064279947537580E+002	1.2664096E+000	-2.7039801E+002
3	0	6.069279947411269E+002	1.2662761E+000	-2.7037326E+002
3	0	6.074279947284958E+002	1.2661564E+000	-2.7037677E+002
3	0	6.079279947158648E+002	1.2660261E+000	-2.7037326E+002
3	0	6.084279947032337E+002	1.2658954E+000	-2.7039447E+002
3	0	6.089279946906026E+002	1.2657633E+000	-2.7035559E+002
3	0	6.094279946779716E+002	1.2656060E+000	-2.7040860E+002
3	0	6.099279946653405E+002	1.2653849E+000	-2.7035559E+002
3	0	6.104279946527095E+002	1.2651100E+000	-2.7037677E+002
3	0	6.109279946400784E+002	1.2649255E+000	-2.7040155E+002
3	0	6.114279946274473E+002	1.2647558E+000	-2.7039093E+002
3	0	6.119279946148163E+002	1.2645754E+000	-2.7037326E+002
3	0	6.124279946021852E+002	1.2644019E+000	-2.7036972E+002
3	0	6.129279945895541E+002	1.2642233E+000	-2.7037326E+002
3	0	6.134279945769231E+002	1.2640227E+000	-2.7036267E+002
3	0	6.139279945642920E+002	1.2637575E+000	-2.7036972E+002
3	0	6.144279945516610E+002	1.2634439E+000	-2.7038385E+002
3	0	6.149279945390299E+002	1.2632080E+000	-2.7038031E+002
3	0	6.154279945263988E+002	1.2629969E+000	-2.7037326E+002
3	0	6.159279945137678E+002	1.2627807E+000	-2.7037326E+002
3	0	6.164279945011367E+002	1.2625893E+000	-2.7039093E+002
3	0	6.169279944885056E+002	1.2624015E+000	-2.7036618E+002
3	0	6.174279944758746E+002	1.2621974E+000	-2.7036618E+002
3	0	6.179279944632435E+002	1.2619470E+000	-2.7039093E+002
3	0	6.184279944506125E+002	1.2616620E+000	-2.7036267E+002
3	0	6.189279944379814E+002	1.2614785E+000	-2.7037326E+002
3	0	6.194279944253503E+002	1.2613202E+000	-2.7039093E+002
3	0	6.199279944127193E+002	1.2611557E+000	-2.7040860E+002
3	0	6.204279944000882E+002	1.2610008E+000	-2.7037677E+002
3	0	6.209279943874571E+002	1.2608527E+000	-2.7036267E+002
3	0	6.214279943748261E+002	1.2606975E+000	-2.7038385E+002
3	0	6.219279943621950E+002	1.2604780E+000	-2.7038742E+002
3	0	6.224279943495640E+002	1.2602042E+000	-2.7037326E+002
3	0	6.229279943369329E+002	1.2600166E+000	-2.7037326E+002
3	0	6.234279943243018E+002	1.2598449E+000	-2.7036972E+002
3	0	6.239279943116708E+002	1.2596707E+000	-2.7039447E+002
3	0	6.244279942990397E+002	1.2594965E+000	-2.7040860E+002
3	0	6.249279942864086E+002	1.2593251E+000	-2.7039447E+002
3	0	6.254279942737776E+002	1.2591211E+000	-2.7040155E+002
3	0	6.259279942611465E+002	1.2588629E+000	-2.7037677E+002
3	0	6.264279942485155E+002	1.2585489E+000	-2.7037326E+002
3	0	6.269279942358844E+002	1.2583153E+000	-2.7037677E+002
3	0	6.274279942232533E+002	1.2581097E+000	-2.7036972E+002
3	0	6.279279942106223E+002	1.2578955E+000	-2.7039093E+002
3	0	6.284279941979912E+002	1.2576838E+000	-2.7038742E+002
3	0	6.289279941853601E+002	1.2574835E+000	-2.7037677E+002
3	0	6.294279941727291E+002	1.2572533E+000	-2.7035559E+002
3	0	6.299279941600980E+002	1.2569551E+000	-2.7036972E+002
3	0	6.304279941474670E+002	1.2565989E+000	-2.7036618E+002
3	0	6.309279941348359E+002	1.2563381E+000	-2.7040155E+002
3	0	6.314279941222048E+002	1.2560930E+000	-2.7039801E+002
3	0	6.319279941095738E+002	1.2558419E+000	-2.7038385E+002
3	0	6.324279940969427E+002	1.2555866E+000	-2.7038031E+002
3	0	6.329279940843116E+002	1.2553513E+000	-2.7035205E+002
3	0	6.334279940716806E+002	1.2550839E+000	-2.7036972E+002
3	0	6.334525940710591E+002	1.2549165E+000	-2.7038385E+002