EC-Lab ASCII FILE
Nb header lines : 55                          

Open Circuit Voltage

Run on channel : 1 (SN 81504)
User : 
CE vs. WE compliance from -10 V to 10 V
Electrode connection : standard
Potential control : Ewe
Ewe ctrl range : min = -2.50 V, max = 2.50 V
Safety Limits :
	Do not start on E overload
Acquisition started on : 05/10/2026 02:27:32.112
Loaded Setting File :  C:\PEM-WE_measurements\2026\372_IV_IV IrOx, 5 min Pt, 30 min C, etched cathode\new station\Loopeis new\1,46 V different time gaps closed cell\Loopeis 1,46V_60s_3_PEIS from 6500Hz to 1000Hz.mps
Saved on :
	File : L_13_Loopeis 1,46V_60s_3_PEIS from 6500Hz to 1000Hz_14_OCV_C01.mpr
	Directory : C:\PEM-WE_measurements\2026\372_IV_IV IrOx, 5 min Pt, 30 min C, etched cathode\new station\Loopeis new\1,46 V different time gaps closed cell\
	Host : 192.168.0.2
Device : SP-150e (SN .005491)
Address : 192.168.0.91
EC-LAB for windows v11.71 (software)
Internet server v28.00 (firmware)
Command interpretor v14.01 (firmware)
Electrode material : 
Initial state : 
Electrolyte : 
Comments : 
Current amplifier : SP-150eB-20A
Electrode surface area : 0.001 cm²
Characteristic mass : 0.001 g
Equivalent Weight : 0.000 g/eq.
Density : 0.000 g/cm3
Volume (V) : 0.001 cm³
Record Analogic IN 1
Text export
   Mode : Standard
   Time format : Elapsed
Cycle Definition : Charge/Discharge alternance
External device configuration :
   device type : Temperature Probe
   device name : Other
   Analog IN 1 : 
      unit : T/Â°C
      max : 100.000 at 2.000 V
      min : 0.000 at 1.460 V
tR (h:m:s)          0:01:0.0000         
dER/dt (mV/h)       1.0                 
record              <Ewe>               
dER (mV)            10.00               
dtR (s)             0.5000              
E range min (V)     -2.500              
E range max (V)     2.500               

mode	error	time/s	<Ewe/V>	Analog IN 1/V	
3	0	6.789531929216173E+002	1.4158036E+000	-2.7035559E+002
3	0	6.794531929089862E+002	1.4067229E+000	-2.7035559E+002
3	0	6.799531928963552E+002	1.4006906E+000	-2.7038385E+002
3	0	6.804531928837241E+002	1.3962864E+000	-2.7039093E+002
3	0	6.809531928710931E+002	1.3927789E+000	-2.7038385E+002
3	0	6.814531928584620E+002	1.3898078E+000	-2.7038031E+002
3	0	6.819531928458309E+002	1.3871496E+000	-2.7036972E+002
3	0	6.824531928331999E+002	1.3847178E+000	-2.7038031E+002
3	0	6.829531928205688E+002	1.3825984E+000	-2.7038385E+002
3	0	6.834531928079377E+002	1.3806847E+000	-2.7038385E+002
3	0	6.839531927953067E+002	1.3789246E+000	-2.7036267E+002
3	0	6.844531927826756E+002	1.3773108E+000	-2.7038031E+002
3	0	6.849531927700446E+002	1.3758135E+000	-2.7040860E+002
3	0	6.854531927574135E+002	1.3744043E+000	-2.7038742E+002
3	0	6.859531927447824E+002	1.3730050E+000	-2.7039093E+002
3	0	6.864531927321514E+002	1.3716313E+000	-2.7037677E+002
3	0	6.869531927195203E+002	1.3704261E+000	-2.7034497E+002
3	0	6.874531927068892E+002	1.3693045E+000	-2.7037326E+002
3	0	6.879531926942582E+002	1.3682510E+000	-2.7037677E+002
3	0	6.884531926816271E+002	1.3672634E+000	-2.7035559E+002
3	0	6.889531926689961E+002	1.3663327E+000	-2.7039093E+002
3	0	6.894531926563650E+002	1.3654238E+000	-2.7038031E+002
3	0	6.899531926437339E+002	1.3644953E+000	-2.7036267E+002
3	0	6.904531926311029E+002	1.3635541E+000	-2.7037326E+002
3	0	6.909531926184718E+002	1.3627359E+000	-2.7038742E+002
3	0	6.914531926058407E+002	1.3619696E+000	-2.7036972E+002
3	0	6.919531925932097E+002	1.3612335E+000	-2.7039093E+002
3	0	6.924531925805786E+002	1.3605531E+000	-2.7036618E+002
3	0	6.929531925679476E+002	1.3599008E+000	-2.7036267E+002
3	0	6.934531925553165E+002	1.3592664E+000	-2.7037677E+002
3	0	6.939531925426854E+002	1.3585749E+000	-2.7038742E+002
3	0	6.944531925300544E+002	1.3578548E+000	-2.7036618E+002
3	0	6.949531925174233E+002	1.3572464E+000	-2.7038742E+002
3	0	6.954531925047922E+002	1.3566744E+000	-2.7036972E+002
3	0	6.959531924921612E+002	1.3561299E+000	-2.7040860E+002
3	0	6.964531924795301E+002	1.3556147E+000	-2.7038742E+002
3	0	6.969531924668991E+002	1.3551280E+000	-2.7038742E+002
3	0	6.974531924542680E+002	1.3546358E+000	-2.7036972E+002
3	0	6.979531924416369E+002	1.3540953E+000	-2.7036618E+002
3	0	6.984531924290059E+002	1.3535249E+000	-2.7036972E+002
3	0	6.989531924163748E+002	1.3530666E+000	-2.7038385E+002
3	0	6.994531924037437E+002	1.3526409E+000	-2.7036618E+002
3	0	6.999531923911127E+002	1.3522376E+000	-2.7037326E+002
3	0	7.004531923784816E+002	1.3518579E+000	-2.7035559E+002
3	0	7.009531923658506E+002	1.3514906E+000	-2.7038742E+002
3	0	7.014531923532195E+002	1.3511084E+000	-2.7038742E+002
3	0	7.019531923405884E+002	1.3506656E+000	-2.7037326E+002
3	0	7.024531923279574E+002	1.3501811E+000	-2.7038385E+002
3	0	7.029531923153263E+002	1.3498003E+000	-2.7035913E+002
3	0	7.034531923026952E+002	1.3494409E+000	-2.7036972E+002
3	0	7.039531922900642E+002	1.3490894E+000	-2.7038385E+002
3	0	7.044531922774331E+002	1.3487501E+000	-2.7039447E+002
3	0	7.049531922648021E+002	1.3484294E+000	-2.7038031E+002
3	0	7.054531922521710E+002	1.3480865E+000	-2.7035913E+002
3	0	7.059531922395399E+002	1.3476738E+000	-2.7037326E+002
3	0	7.064531922269089E+002	1.3472277E+000	-2.7036267E+002
3	0	7.069531922142778E+002	1.3468764E+000	-2.7038742E+002
3	0	7.074531922016467E+002	1.3465424E+000	-2.7037326E+002
3	0	7.079531921890157E+002	1.3462170E+000	-2.7038742E+002
3	0	7.084531921763846E+002	1.3459074E+000	-2.7036972E+002
3	0	7.089531921637536E+002	1.3455954E+000	-2.7036972E+002
3	0	7.094531921511225E+002	1.3452666E+000	-2.7036972E+002
3	0	7.099531921384914E+002	1.3448672E+000	-2.7041214E+002
3	0	7.104531921258604E+002	1.3444253E+000	-2.7038031E+002
3	0	7.109531921132293E+002	1.3440862E+000	-2.7038031E+002
3	0	7.114531921005982E+002	1.3437662E+000	-2.7037326E+002
3	0	7.119531920879672E+002	1.3434483E+000	-2.7037677E+002
3	0	7.124531920753361E+002	1.3431392E+000	-2.7038385E+002
3	0	7.129531920627051E+002	1.3428367E+000	-2.7037677E+002
3	0	7.134531920500740E+002	1.3425066E+000	-2.7039447E+002
3	0	7.139531920374429E+002	1.3421112E+000	-2.7038742E+002
3	0	7.144531920248119E+002	1.3416797E+000	-2.7037326E+002
3	0	7.149531920121808E+002	1.3413376E+000	-2.7038385E+002
3	0	7.154531919995497E+002	1.3410039E+000	-2.7037677E+002
3	0	7.159531919869187E+002	1.3406811E+000	-2.7036267E+002
3	0	7.164531919742876E+002	1.3403748E+000	-2.7036972E+002
3	0	7.169531919616566E+002	1.3400792E+000	-2.7035205E+002
3	0	7.174531919490255E+002	1.3397652E+000	-2.7038385E+002
3	0	7.179531919363944E+002	1.3393972E+000	-2.7039801E+002
3	0	7.184531919237634E+002	1.3389990E+000	-2.7038742E+002
3	0	7.189531919111323E+002	1.3387047E+000	-2.7038031E+002
3	0	7.194531918985012E+002	1.3384418E+000	-2.7037326E+002
3	0	7.199531918858702E+002	1.3382010E+000	-2.7034497E+002
3	0	7.204531918732391E+002	1.3379818E+000	-2.7037677E+002
3	0	7.209531918606081E+002	1.3377752E+000	-2.7036267E+002
3	0	7.214531918479770E+002	1.3375404E+000	-2.7038742E+002
3	0	7.219531918353459E+002	1.3372537E+000	-2.7039801E+002
3	0	7.224531918227149E+002	1.3369268E+000	-2.7039093E+002
3	0	7.229531918100838E+002	1.3366836E+000	-2.7037326E+002
3	0	7.234531917974527E+002	1.3364644E+000	-2.7036618E+002
3	0	7.239531917848217E+002	1.3362582E+000	-2.7039093E+002
3	0	7.244531917721906E+002	1.3360502E+000	-2.7037326E+002
3	0	7.249531917595596E+002	1.3358445E+000	-2.7036267E+002
3	0	7.254531917469285E+002	1.3356081E+000	-2.7035913E+002
3	0	7.259531917342974E+002	1.3353134E+000	-2.7037677E+002
3	0	7.264531917216664E+002	1.3349524E+000	-2.7039447E+002
3	0	7.269531917090353E+002	1.3346912E+000	-2.7037326E+002
3	0	7.274531916964042E+002	1.3344325E+000	-2.7038031E+002
3	0	7.279531916837732E+002	1.3341774E+000	-2.7038385E+002
3	0	7.284531916711421E+002	1.3339304E+000	-2.7039801E+002
3	0	7.289531916585111E+002	1.3336741E+000	-2.7036972E+002
3	0	7.294531916458800E+002	1.3333997E+000	-2.7037677E+002
3	0	7.299531916332489E+002	1.3330566E+000	-2.7036972E+002
3	0	7.304531916206179E+002	1.3326614E+000	-2.7039801E+002
3	0	7.309531916079868E+002	1.3323569E+000	-2.7038031E+002
3	0	7.314531915953557E+002	1.3320549E+000	-2.7037677E+002
3	0	7.319531915827247E+002	1.3317649E+000	-2.7038385E+002
3	0	7.324531915700936E+002	1.3314755E+000	-2.7039801E+002
3	0	7.329531915574626E+002	1.3311796E+000	-2.7034851E+002
3	0	7.334531915448315E+002	1.3308672E+000	-2.7037677E+002
3	0	7.339531915322004E+002	1.3304808E+000	-2.7036618E+002
3	0	7.344531915195694E+002	1.3300427E+000	-2.7038031E+002
3	0	7.349531915069383E+002	1.3296854E+000	-2.7037677E+002
3	0	7.354531914943072E+002	1.3293607E+000	-2.7037677E+002
3	0	7.359531914816762E+002	1.3290387E+000	-2.7037677E+002
3	0	7.364531914690451E+002	1.3287244E+000	-2.7036972E+002
3	0	7.369531914564141E+002	1.3284137E+000	-2.7037326E+002
3	0	7.374531914437830E+002	1.3280884E+000	-2.7036267E+002
3	0	7.379531914311519E+002	1.3276978E+000	-2.7039801E+002
3	0	7.384531914185209E+002	1.3272837E+000	-2.7038742E+002
3	0	7.384535914185108E+002	1.3270955E+000	-2.7040860E+002