EC-Lab ASCII FILE
Nb header lines : 55                          

Open Circuit Voltage

Run on channel : 1 (SN 81504)
User : 
CE vs. WE compliance from -10 V to 10 V
Electrode connection : standard
Potential control : Ewe
Ewe ctrl range : min = -2.50 V, max = 2.50 V
Safety Limits :
	Do not start on E overload
Acquisition started on : 05/10/2026 02:27:32.112
Loaded Setting File :  C:\PEM-WE_measurements\2026\372_IV_IV IrOx, 5 min Pt, 30 min C, etched cathode\new station\Loopeis new\1,46 V different time gaps closed cell\Loopeis 1,46V_60s_3_PEIS from 6500Hz to 1000Hz.mps
Saved on :
	File : L_13_Loopeis 1,46V_60s_3_PEIS from 6500Hz to 1000Hz_08_OCV_C01.mpr
	Directory : C:\PEM-WE_measurements\2026\372_IV_IV IrOx, 5 min Pt, 30 min C, etched cathode\new station\Loopeis new\1,46 V different time gaps closed cell\
	Host : 192.168.0.2
Device : SP-150e (SN .005491)
Address : 192.168.0.91
EC-LAB for windows v11.71 (software)
Internet server v28.00 (firmware)
Command interpretor v14.01 (firmware)
Electrode material : 
Initial state : 
Electrolyte : 
Comments : 
Current amplifier : SP-150eB-20A
Electrode surface area : 0.001 cm²
Characteristic mass : 0.001 g
Equivalent Weight : 0.000 g/eq.
Density : 0.000 g/cm3
Volume (V) : 0.001 cm³
Record Analogic IN 1
Text export
   Mode : Standard
   Time format : Elapsed
Cycle Definition : Charge/Discharge alternance
External device configuration :
   device type : Temperature Probe
   device name : Other
   Analog IN 1 : 
      unit : T/Â°C
      max : 100.000 at 2.000 V
      min : 0.000 at 1.460 V
tR (h:m:s)          0:01:0.0000         
dER/dt (mV/h)       1.0                 
record              <Ewe>               
dER (mV)            10.00               
dtR (s)             0.5000              
E range min (V)     -2.500              
E range max (V)     2.500               

mode	error	time/s	<Ewe/V>	Analog IN 1/V	
3	0	3.611893974756094E+002	1.1885488E+000	-2.7037326E+002
3	0	3.616893974629784E+002	1.2586550E+000	-2.7039447E+002
3	0	3.621893974503473E+002	1.2625593E+000	-2.7037326E+002
3	0	3.626893974377163E+002	1.2648157E+000	-2.7038031E+002
3	0	3.631893974250852E+002	1.2663671E+000	-2.7038742E+002
3	0	3.636893974124541E+002	1.2674792E+000	-2.7037326E+002
3	0	3.641893973998231E+002	1.2683073E+000	-2.7038385E+002
3	0	3.646893973871920E+002	1.2689164E+000	-2.7038385E+002
3	0	3.651893973745609E+002	1.2693735E+000	-2.7039801E+002
3	0	3.656893973619299E+002	1.2696931E+000	-2.7036972E+002
3	0	3.661893973492988E+002	1.2698575E+000	-2.7038385E+002
3	0	3.666893973366678E+002	1.2699416E+000	-2.7035559E+002
3	0	3.671893973240367E+002	1.2700493E+000	-2.7037326E+002
3	0	3.676893973114056E+002	1.2701319E+000	-2.7038742E+002
3	0	3.681893972987746E+002	1.2701699E+000	-2.7036267E+002
3	0	3.686893972861435E+002	1.2701836E+000	-2.7035913E+002
3	0	3.691893972735124E+002	1.2701807E+000	-2.7039447E+002
3	0	3.696893972608814E+002	1.2701364E+000	-2.7037326E+002
3	0	3.701893972482503E+002	1.2700176E+000	-2.7035913E+002
3	0	3.706893972356193E+002	1.2698714E+000	-2.7035913E+002
3	0	3.711893972229882E+002	1.2698065E+000	-2.7038742E+002
3	0	3.716893972103571E+002	1.2697494E+000	-2.7039801E+002
3	0	3.721893971977261E+002	1.2696841E+000	-2.7039093E+002
3	0	3.726893971850950E+002	1.2696118E+000	-2.7036618E+002
3	0	3.731893971724639E+002	1.2695395E+000	-2.7037326E+002
3	0	3.736893971598329E+002	1.2694337E+000	-2.7039093E+002
3	0	3.741893971472018E+002	1.2692728E+000	-2.7038031E+002
3	0	3.746893971345708E+002	1.2690914E+000	-2.7039801E+002
3	0	3.751893971219397E+002	1.2690080E+000	-2.7037326E+002
3	0	3.756893971093086E+002	1.2689551E+000	-2.7035913E+002
3	0	3.761893970966776E+002	1.2689155E+000	-2.7037326E+002
3	0	3.766893970840465E+002	1.2688893E+000	-2.7038385E+002
3	0	3.771893970714154E+002	1.2688731E+000	-2.7036618E+002
3	0	3.776893970587844E+002	1.2688332E+000	-2.7036267E+002
3	0	3.781893970461533E+002	1.2687320E+000	-2.7036972E+002
3	0	3.786893970335223E+002	1.2686214E+000	-2.7038742E+002
3	0	3.791893970208912E+002	1.2686131E+000	-2.7036618E+002
3	0	3.796893970082601E+002	1.2686263E+000	-2.7038742E+002
3	0	3.801893969956291E+002	1.2686406E+000	-2.7037326E+002
3	0	3.806893969829980E+002	1.2686589E+000	-2.7038385E+002
3	0	3.811893969703669E+002	1.2686795E+000	-2.7038385E+002
3	0	3.816893969577359E+002	1.2686608E+000	-2.7038031E+002
3	0	3.821893969451048E+002	1.2685713E+000	-2.7038031E+002
3	0	3.826893969324738E+002	1.2684604E+000	-2.7038385E+002
3	0	3.831893969198427E+002	1.2684377E+000	-2.7039093E+002
3	0	3.836893969072116E+002	1.2684256E+000	-2.7039093E+002
3	0	3.841893968945806E+002	1.2684077E+000	-2.7038742E+002
3	0	3.846893968819495E+002	1.2683823E+000	-2.7040506E+002
3	0	3.851893968693184E+002	1.2683495E+000	-2.7040155E+002
3	0	3.856893968566874E+002	1.2682726E+000	-2.7037677E+002
3	0	3.861893968440563E+002	1.2681276E+000	-2.7036972E+002
3	0	3.866893968314253E+002	1.2679545E+000	-2.7037677E+002
3	0	3.871893968187942E+002	1.2678698E+000	-2.7036267E+002
3	0	3.876893968061631E+002	1.2677962E+000	-2.7038031E+002
3	0	3.881893967935321E+002	1.2677140E+000	-2.7037326E+002
3	0	3.886893967809010E+002	1.2676377E+000	-2.7039801E+002
3	0	3.891893967682699E+002	1.2675440E+000	-2.7038742E+002
3	0	3.896893967556389E+002	1.2674191E+000	-2.7035559E+002
3	0	3.901893967430078E+002	1.2672002E+000	-2.7034851E+002
3	0	3.906893967303768E+002	1.2669626E+000	-2.7037326E+002
3	0	3.911893967177457E+002	1.2668120E+000	-2.7041214E+002
3	0	3.916893967051146E+002	1.2666711E+000	-2.7038385E+002
3	0	3.921893966924836E+002	1.2665321E+000	-2.7038031E+002
3	0	3.926893966798525E+002	1.2663884E+000	-2.7035205E+002
3	0	3.931893966672214E+002	1.2662412E+000	-2.7037326E+002
3	0	3.936893966545904E+002	1.2660533E+000	-2.7037677E+002
3	0	3.941893966419593E+002	1.2658013E+000	-2.7042627E+002
3	0	3.946893966293283E+002	1.2655222E+000	-2.7038031E+002
3	0	3.951893966166972E+002	1.2653323E+000	-2.7036618E+002
3	0	3.956893966040661E+002	1.2651716E+000	-2.7037326E+002
3	0	3.961893965914351E+002	1.2650193E+000	-2.7038031E+002
3	0	3.966893965788040E+002	1.2648776E+000	-2.7039093E+002
3	0	3.971893965661729E+002	1.2647363E+000	-2.7038385E+002
3	0	3.976893965535419E+002	1.2645689E+000	-2.7037677E+002
3	0	3.981893965409108E+002	1.2643391E+000	-2.7036972E+002
3	0	3.986893965282798E+002	1.2641002E+000	-2.7040860E+002
3	0	3.991893965156487E+002	1.2639471E+000	-2.7037326E+002
3	0	3.996893965030176E+002	1.2638239E+000	-2.7039093E+002
3	0	4.001893964903866E+002	1.2637010E+000	-2.7037326E+002
3	0	4.006893964777555E+002	1.2635725E+000	-2.7039447E+002
3	0	4.011893964651244E+002	1.2634456E+000	-2.7038385E+002
3	0	4.016893964524934E+002	1.2632734E+000	-2.7037326E+002
3	0	4.021893964398623E+002	1.2630242E+000	-2.7036267E+002
3	0	4.026893964272313E+002	1.2627590E+000	-2.7038385E+002
3	0	4.031893964146002E+002	1.2625772E+000	-2.7038385E+002
3	0	4.036893964019691E+002	1.2624159E+000	-2.7038031E+002
3	0	4.041893963893381E+002	1.2622522E+000	-2.7037677E+002
3	0	4.046893963767070E+002	1.2620839E+000	-2.7037326E+002
3	0	4.051893963640759E+002	1.2619168E+000	-2.7035559E+002
3	0	4.056893963514449E+002	1.2617089E+000	-2.7037326E+002
3	0	4.061893963388138E+002	1.2614220E+000	-2.7038742E+002
3	0	4.066893963261828E+002	1.2611151E+000	-2.7039447E+002
3	0	4.071893963135517E+002	1.2608925E+000	-2.7036267E+002
3	0	4.076893963009206E+002	1.2606863E+000	-2.7037326E+002
3	0	4.081893962882896E+002	1.2604831E+000	-2.7037326E+002
3	0	4.086893962756585E+002	1.2602654E+000	-2.7035559E+002
3	0	4.091893962630274E+002	1.2600461E+000	-2.7035913E+002
3	0	4.096893962503964E+002	1.2597917E+000	-2.7035205E+002
3	0	4.101893962377653E+002	1.2594706E+000	-2.7036972E+002
3	0	4.106893962251343E+002	1.2591221E+000	-2.7036972E+002
3	0	4.111893962125032E+002	1.2588644E+000	-2.7037326E+002
3	0	4.116893961998721E+002	1.2586310E+000	-2.7039093E+002
3	0	4.121893961872411E+002	1.2583935E+000	-2.7039447E+002
3	0	4.126893961746100E+002	1.2581578E+000	-2.7038385E+002
3	0	4.131893961619789E+002	1.2579049E+000	-2.7034497E+002
3	0	4.136893961493479E+002	1.2576239E+000	-2.7037326E+002
3	0	4.141893961367168E+002	1.2572726E+000	-2.7039801E+002
3	0	4.146893961240858E+002	1.2568976E+000	-2.7037326E+002
3	0	4.151893961114547E+002	1.2566304E+000	-2.7035913E+002
3	0	4.156893960988236E+002	1.2563823E+000	-2.7039801E+002
3	0	4.161893960861926E+002	1.2561502E+000	-2.7036267E+002
3	0	4.166893960735615E+002	1.2559255E+000	-2.7037677E+002
3	0	4.171893960609304E+002	1.2557170E+000	-2.7039801E+002
3	0	4.176893960482994E+002	1.2554845E+000	-2.7034851E+002
3	0	4.181893960356683E+002	1.2551857E+000	-2.7036618E+002
3	0	4.186893960230373E+002	1.2548729E+000	-2.7038385E+002
3	0	4.191893960104062E+002	1.2546575E+000	-2.7038742E+002
3	0	4.196893959977751E+002	1.2544652E+000	-2.7037326E+002
3	0	4.201893959851441E+002	1.2542868E+000	-2.7039801E+002
3	0	4.206893959725130E+002	1.2541057E+000	-2.7038385E+002
3	0	4.207127959719219E+002	1.2540071E+000	-2.7038385E+002