EC-Lab ASCII FILE
Nb header lines : 55                          

Open Circuit Voltage

Run on channel : 1 (SN 81504)
User : 
CE vs. WE compliance from -10 V to 10 V
Electrode connection : standard
Potential control : Ewe
Ewe ctrl range : min = -2.50 V, max = 2.50 V
Safety Limits :
	Do not start on E overload
Acquisition started on : 05/10/2026 02:45:19.470
Loaded Setting File :  C:\PEM-WE_measurements\2026\372_IV_IV IrOx, 5 min Pt, 30 min C, etched cathode\new station\Loopeis new\1,46 V different time gaps closed cell\Loopeis 1,46V_60s_4_PEIS from 650Hz to 100Hz.mps
Saved on :
	File : L_14_Loopeis 1,46V_60s_4_PEIS from 650Hz to 100Hz_16_OCV_C01.mpr
	Directory : C:\PEM-WE_measurements\2026\372_IV_IV IrOx, 5 min Pt, 30 min C, etched cathode\new station\Loopeis new\1,46 V different time gaps closed cell\
	Host : 192.168.0.2
Device : SP-150e (SN .005491)
Address : 192.168.0.91
EC-LAB for windows v11.71 (software)
Internet server v28.00 (firmware)
Command interpretor v14.01 (firmware)
Electrode material : 
Initial state : 
Electrolyte : 
Comments : 
Current amplifier : SP-150eB-20A
Electrode surface area : 0.001 cm²
Characteristic mass : 0.001 g
Equivalent Weight : 0.000 g/eq.
Density : 0.000 g/cm3
Volume (V) : 0.001 cm³
Record Analogic IN 1
Text export
   Mode : Standard
   Time format : Elapsed
Cycle Definition : Charge/Discharge alternance
External device configuration :
   device type : Temperature Probe
   device name : Other
   Analog IN 1 : 
      unit : T/Â°C
      max : 100.000 at 2.000 V
      min : 0.000 at 1.460 V
tR (h:m:s)          0:01:0.0000         
dER/dt (mV/h)       1.0                 
record              <Ewe>               
dER (mV)            10.00               
dtR (s)             0.5000              
E range min (V)     -2.500              
E range max (V)     2.500               

mode	error	time/s	<Ewe/V>	Analog IN 1/V	
3	0	7.864767936649150E+002	1.1772561E+000	-2.7038385E+002
3	0	7.869767936522840E+002	1.2597295E+000	-2.7037677E+002
3	0	7.874767936396529E+002	1.2634648E+000	-2.7036618E+002
3	0	7.879767936270218E+002	1.2655755E+000	-2.7038031E+002
3	0	7.884767936143908E+002	1.2669200E+000	-2.7036618E+002
3	0	7.889767936017597E+002	1.2678372E+000	-2.7037677E+002
3	0	7.894767935891286E+002	1.2684455E+000	-2.7039447E+002
3	0	7.899767935764976E+002	1.2688043E+000	-2.7036972E+002
3	0	7.904767935638665E+002	1.2689979E+000	-2.7037677E+002
3	0	7.909767935512355E+002	1.2691615E+000	-2.7036972E+002
3	0	7.914767935386044E+002	1.2692674E+000	-2.7037677E+002
3	0	7.919767935259733E+002	1.2693143E+000	-2.7039447E+002
3	0	7.924767935133423E+002	1.2693281E+000	-2.7038031E+002
3	0	7.929767935007112E+002	1.2693046E+000	-2.7036618E+002
3	0	7.934767934880801E+002	1.2692473E+000	-2.7035913E+002
3	0	7.939767934754491E+002	1.2690967E+000	-2.7038742E+002
3	0	7.944767934628180E+002	1.2689136E+000	-2.7036267E+002
3	0	7.949767934501870E+002	1.2688056E+000	-2.7035913E+002
3	0	7.954767934375559E+002	1.2687047E+000	-2.7039447E+002
3	0	7.959767934249248E+002	1.2685993E+000	-2.7037677E+002
3	0	7.964767934122938E+002	1.2684945E+000	-2.7038742E+002
3	0	7.969767933996627E+002	1.2683880E+000	-2.7036618E+002
3	0	7.974767933870316E+002	1.2682595E+000	-2.7038742E+002
3	0	7.979767933744006E+002	1.2680507E+000	-2.7039801E+002
3	0	7.984767933617695E+002	1.2678189E+000	-2.7041214E+002
3	0	7.989767933491385E+002	1.2676936E+000	-2.7036618E+002
3	0	7.994767933365074E+002	1.2675853E+000	-2.7036618E+002
3	0	7.999767933238763E+002	1.2674986E+000	-2.7036618E+002
3	0	8.004767933112453E+002	1.2674338E+000	-2.7037677E+002
3	0	8.009767932986142E+002	1.2673831E+000	-2.7038031E+002
3	0	8.014767932859831E+002	1.2673248E+000	-2.7036972E+002
3	0	8.019767932733521E+002	1.2672038E+000	-2.7035559E+002
3	0	8.024767932607210E+002	1.2670914E+000	-2.7038385E+002
3	0	8.029767932480900E+002	1.2670963E+000	-2.7039093E+002
3	0	8.034767932354589E+002	1.2671109E+000	-2.7036972E+002
3	0	8.039767932228278E+002	1.2671471E+000	-2.7038742E+002
3	0	8.044767932101968E+002	1.2671895E+000	-2.7039447E+002
3	0	8.049767931975657E+002	1.2672546E+000	-2.7038742E+002
3	0	8.054767931849347E+002	1.2672789E+000	-2.7038385E+002
3	0	8.059767931723036E+002	1.2672355E+000	-2.7037326E+002
3	0	8.064767931596725E+002	1.2671657E+000	-2.7037326E+002
3	0	8.069767931470415E+002	1.2672000E+000	-2.7038031E+002
3	0	8.074767931344104E+002	1.2672342E+000	-2.7038742E+002
3	0	8.079767931217793E+002	1.2672672E+000	-2.7036267E+002
3	0	8.084767931091483E+002	1.2672987E+000	-2.7035559E+002
3	0	8.089767930965172E+002	1.2673264E+000	-2.7038385E+002
3	0	8.094767930838862E+002	1.2673122E+000	-2.7036972E+002
3	0	8.099767930712551E+002	1.2672302E+000	-2.7037677E+002
3	0	8.104767930586240E+002	1.2671046E+000	-2.7038031E+002
3	0	8.109767930459930E+002	1.2670796E+000	-2.7037677E+002
3	0	8.114767930333619E+002	1.2670523E+000	-2.7039801E+002
3	0	8.119767930207308E+002	1.2670194E+000	-2.7038385E+002
3	0	8.124767930080998E+002	1.2669913E+000	-2.7039093E+002
3	0	8.129767929954687E+002	1.2669514E+000	-2.7038031E+002
3	0	8.134767929828377E+002	1.2668718E+000	-2.7040155E+002
3	0	8.139767929702066E+002	1.2667083E+000	-2.7040506E+002
3	0	8.144767929575755E+002	1.2665163E+000	-2.7036972E+002
3	0	8.149767929449445E+002	1.2664157E+000	-2.7038385E+002
3	0	8.154767929323134E+002	1.2663155E+000	-2.7036267E+002
3	0	8.159767929196823E+002	1.2662177E+000	-2.7038031E+002
3	0	8.164767929070513E+002	1.2661233E+000	-2.7039447E+002
3	0	8.169767928944202E+002	1.2660189E+000	-2.7038742E+002
3	0	8.174767928817892E+002	1.2658787E+000	-2.7038742E+002
3	0	8.179767928691581E+002	1.2656555E+000	-2.7038742E+002
3	0	8.184767928565270E+002	1.2654060E+000	-2.7040860E+002
3	0	8.189767928438960E+002	1.2652640E+000	-2.7039801E+002
3	0	8.194767928312649E+002	1.2651175E+000	-2.7037326E+002
3	0	8.199767928186338E+002	1.2649885E+000	-2.7039093E+002
3	0	8.204767928060028E+002	1.2648653E+000	-2.7038742E+002
3	0	8.209767927933717E+002	1.2647552E+000	-2.7040155E+002
3	0	8.214767927807407E+002	1.2646211E+000	-2.7038385E+002
3	0	8.219767927681096E+002	1.2644408E+000	-2.7039093E+002
3	0	8.224767927554785E+002	1.2642367E+000	-2.7039801E+002
3	0	8.229767927428475E+002	1.2641453E+000	-2.7038385E+002
3	0	8.234767927302164E+002	1.2640738E+000	-2.7038031E+002
3	0	8.239767927175853E+002	1.2640147E+000	-2.7036972E+002
3	0	8.244767927049543E+002	1.2639623E+000	-2.7038385E+002
3	0	8.249767926923232E+002	1.2639141E+000	-2.7038742E+002
3	0	8.254767926796922E+002	1.2638344E+000	-2.7036972E+002
3	0	8.259767926670611E+002	1.2636765E+000	-2.7036972E+002
3	0	8.264767926544300E+002	1.2634885E+000	-2.7036972E+002
3	0	8.269767926417990E+002	1.2634037E+000	-2.7038031E+002
3	0	8.274767926291679E+002	1.2633210E+000	-2.7037326E+002
3	0	8.279767926165368E+002	1.2632365E+000	-2.7036618E+002
3	0	8.284767926039058E+002	1.2631500E+000	-2.7037677E+002
3	0	8.289767925912747E+002	1.2630645E+000	-2.7038742E+002
3	0	8.294767925786437E+002	1.2629405E+000	-2.7039093E+002
3	0	8.299767925660126E+002	1.2627401E+000	-2.7039093E+002
3	0	8.304767925533815E+002	1.2624993E+000	-2.7039447E+002
3	0	8.309767925407505E+002	1.2623645E+000	-2.7038031E+002
3	0	8.314767925281194E+002	1.2622275E+000	-2.7038742E+002
3	0	8.319767925154883E+002	1.2620864E+000	-2.7036972E+002
3	0	8.324767925028573E+002	1.2619435E+000	-2.7037677E+002
3	0	8.329767924902262E+002	1.2617985E+000	-2.7038031E+002
3	0	8.334767924775952E+002	1.2616252E+000	-2.7038742E+002
3	0	8.339767924649641E+002	1.2613704E+000	-2.7038031E+002
3	0	8.344767924523330E+002	1.2610850E+000	-2.7037677E+002
3	0	8.349767924397020E+002	1.2608943E+000	-2.7040506E+002
3	0	8.354767924270709E+002	1.2607118E+000	-2.7039801E+002
3	0	8.359767924144398E+002	1.2605225E+000	-2.7038031E+002
3	0	8.364767924018088E+002	1.2603364E+000	-2.7037677E+002
3	0	8.369767923891777E+002	1.2601399E+000	-2.7038031E+002
3	0	8.374767923765467E+002	1.2599213E+000	-2.7038385E+002
3	0	8.379767923639156E+002	1.2596114E+000	-2.7037677E+002
3	0	8.384767923512845E+002	1.2592772E+000	-2.7035913E+002
3	0	8.389767923386535E+002	1.2590469E+000	-2.7038031E+002
3	0	8.394767923260224E+002	1.2588180E+000	-2.7036618E+002
3	0	8.399767923133913E+002	1.2586042E+000	-2.7038385E+002
3	0	8.404767923007603E+002	1.2583994E+000	-2.7035559E+002
3	0	8.409767922881292E+002	1.2582086E+000	-2.7039447E+002
3	0	8.414767922754982E+002	1.2580018E+000	-2.7038385E+002
3	0	8.419767922628671E+002	1.2577415E+000	-2.7039447E+002
3	0	8.424767922502360E+002	1.2574613E+000	-2.7039801E+002
3	0	8.429767922376050E+002	1.2573000E+000	-2.7037326E+002
3	0	8.434767922249739E+002	1.2571458E+000	-2.7039447E+002
3	0	8.439767922123428E+002	1.2570111E+000	-2.7039093E+002
3	0	8.444767921997118E+002	1.2568848E+000	-2.7036267E+002
3	0	8.449767921870807E+002	1.2567573E+000	-2.7037326E+002
3	0	8.454767921744497E+002	1.2566072E+000	-2.7036972E+002
3	0	8.459767921618186E+002	1.2563808E+000	-2.7039093E+002
3	0	8.460023921611719E+002	1.2562269E+000	-2.7036267E+002