EC-Lab ASCII FILE
Nb header lines : 55                          

Open Circuit Voltage

Run on channel : 1 (SN 81504)
User : 
CE vs. WE compliance from -10 V to 10 V
Electrode connection : standard
Potential control : Ewe
Ewe ctrl range : min = -2.50 V, max = 2.50 V
Safety Limits :
	Do not start on E overload
Acquisition started on : 05/10/2026 02:45:19.470
Loaded Setting File :  C:\PEM-WE_measurements\2026\372_IV_IV IrOx, 5 min Pt, 30 min C, etched cathode\new station\Loopeis new\1,46 V different time gaps closed cell\Loopeis 1,46V_60s_4_PEIS from 650Hz to 100Hz.mps
Saved on :
	File : L_14_Loopeis 1,46V_60s_4_PEIS from 650Hz to 100Hz_14_OCV_C01.mpr
	Directory : C:\PEM-WE_measurements\2026\372_IV_IV IrOx, 5 min Pt, 30 min C, etched cathode\new station\Loopeis new\1,46 V different time gaps closed cell\
	Host : 192.168.0.2
Device : SP-150e (SN .005491)
Address : 192.168.0.91
EC-LAB for windows v11.71 (software)
Internet server v28.00 (firmware)
Command interpretor v14.01 (firmware)
Electrode material : 
Initial state : 
Electrolyte : 
Comments : 
Current amplifier : SP-150eB-20A
Electrode surface area : 0.001 cm²
Characteristic mass : 0.001 g
Equivalent Weight : 0.000 g/eq.
Density : 0.000 g/cm3
Volume (V) : 0.001 cm³
Record Analogic IN 1
Text export
   Mode : Standard
   Time format : Elapsed
Cycle Definition : Charge/Discharge alternance
External device configuration :
   device type : Temperature Probe
   device name : Other
   Analog IN 1 : 
      unit : T/Â°C
      max : 100.000 at 2.000 V
      min : 0.000 at 1.460 V
tR (h:m:s)          0:01:0.0000         
dER/dt (mV/h)       1.0                 
record              <Ewe>               
dER (mV)            10.00               
dtR (s)             0.5000              
E range min (V)     -2.500              
E range max (V)     2.500               

mode	error	time/s	<Ewe/V>	Analog IN 1/V	
3	0	6.790061929241347E+002	1.4147320E+000	-2.7037326E+002
3	0	6.795061929115036E+002	1.4053531E+000	-2.7035559E+002
3	0	6.800061928988725E+002	1.3991317E+000	-2.7037326E+002
3	0	6.805061928862415E+002	1.3945531E+000	-2.7038031E+002
3	0	6.810061928736104E+002	1.3908721E+000	-2.7039801E+002
3	0	6.815061928609794E+002	1.3877500E+000	-2.7037326E+002
3	0	6.820061928483483E+002	1.3849269E+000	-2.7036972E+002
3	0	6.825061928357172E+002	1.3823351E+000	-2.7034851E+002
3	0	6.830061928230862E+002	1.3800585E+000	-2.7036972E+002
3	0	6.835061928104551E+002	1.3780173E+000	-2.7037326E+002
3	0	6.840061927978240E+002	1.3761510E+000	-2.7039801E+002
3	0	6.845061927851930E+002	1.3744304E+000	-2.7037326E+002
3	0	6.850061927725619E+002	1.3728311E+000	-2.7039093E+002
3	0	6.855061927599309E+002	1.3713161E+000	-2.7035205E+002
3	0	6.860061927472998E+002	1.3698334E+000	-2.7035913E+002
3	0	6.865061927346687E+002	1.3683690E+000	-2.7039447E+002
3	0	6.870061927220377E+002	1.3670815E+000	-2.7035205E+002
3	0	6.875061927094066E+002	1.3659019E+000	-2.7036618E+002
3	0	6.880061926967755E+002	1.3647907E+000	-2.7037326E+002
3	0	6.885061926841445E+002	1.3637475E+000	-2.7038385E+002
3	0	6.890061926715134E+002	1.3627609E+000	-2.7036267E+002
3	0	6.895061926588824E+002	1.3617983E+000	-2.7038031E+002
3	0	6.900061926462513E+002	1.3608129E+000	-2.7039447E+002
3	0	6.905061926336202E+002	1.3598224E+000	-2.7036618E+002
3	0	6.910061926209892E+002	1.3589560E+000	-2.7039093E+002
3	0	6.915061926083581E+002	1.3581865E+000	-2.7039093E+002
3	0	6.920061925957270E+002	1.3574494E+000	-2.7036267E+002
3	0	6.925061925830960E+002	1.3567518E+000	-2.7036972E+002
3	0	6.930061925704649E+002	1.3560858E+000	-2.7038742E+002
3	0	6.935061925578339E+002	1.3554226E+000	-2.7038385E+002
3	0	6.940061925452028E+002	1.3547204E+000	-2.7039447E+002
3	0	6.945061925325717E+002	1.3539832E+000	-2.7036972E+002
3	0	6.950061925199407E+002	1.3533674E+000	-2.7036972E+002
3	0	6.955061925073096E+002	1.3528126E+000	-2.7038031E+002
3	0	6.960061924946785E+002	1.3522823E+000	-2.7036972E+002
3	0	6.965061924820475E+002	1.3517712E+000	-2.7037677E+002
3	0	6.970061924694164E+002	1.3512820E+000	-2.7038385E+002
3	0	6.975061924567854E+002	1.3507869E+000	-2.7038385E+002
3	0	6.980061924441543E+002	1.3502252E+000	-2.7039801E+002
3	0	6.985061924315232E+002	1.3496293E+000	-2.7036972E+002
3	0	6.990061924188922E+002	1.3491467E+000	-2.7039801E+002
3	0	6.995061924062611E+002	1.3487314E+000	-2.7036618E+002
3	0	7.000061923936300E+002	1.3483415E+000	-2.7036972E+002
3	0	7.005061923809990E+002	1.3479725E+000	-2.7039801E+002
3	0	7.010061923683679E+002	1.3476281E+000	-2.7038031E+002
3	0	7.015061923557369E+002	1.3472981E+000	-2.7037677E+002
3	0	7.020061923431058E+002	1.3469067E+000	-2.7037326E+002
3	0	7.025061923304747E+002	1.3464844E+000	-2.7038031E+002
3	0	7.030061923178437E+002	1.3461709E+000	-2.7036972E+002
3	0	7.035061923052126E+002	1.3459250E+000	-2.7040506E+002
3	0	7.040061922925815E+002	1.3456953E+000	-2.7037326E+002
3	0	7.045061922799505E+002	1.3454577E+000	-2.7038385E+002
3	0	7.050061922673194E+002	1.3452336E+000	-2.7036618E+002
3	0	7.055061922546884E+002	1.3449878E+000	-2.7038742E+002
3	0	7.060061922420573E+002	1.3446664E+000	-2.7039093E+002
3	0	7.065061922294262E+002	1.3442969E+000	-2.7038385E+002
3	0	7.070061922167952E+002	1.3440195E+000	-2.7039093E+002
3	0	7.075061922041641E+002	1.3437866E+000	-2.7036618E+002
3	0	7.080061921915330E+002	1.3435525E+000	-2.7036267E+002
3	0	7.085061921789020E+002	1.3433106E+000	-2.7038742E+002
3	0	7.090061921662709E+002	1.3430762E+000	-2.7035913E+002
3	0	7.095061921536399E+002	1.3428168E+000	-2.7038031E+002
3	0	7.100061921410088E+002	1.3424845E+000	-2.7038031E+002
3	0	7.105061921283777E+002	1.3420962E+000	-2.7035913E+002
3	0	7.110061921157467E+002	1.3418012E+000	-2.7039093E+002
3	0	7.115061921031156E+002	1.3415438E+000	-2.7036267E+002
3	0	7.120061920904845E+002	1.3412782E+000	-2.7037677E+002
3	0	7.125061920778535E+002	1.3410102E+000	-2.7038742E+002
3	0	7.130061920652224E+002	1.3407460E+000	-2.7040506E+002
3	0	7.135061920525914E+002	1.3404357E+000	-2.7035913E+002
3	0	7.140061920399603E+002	1.3400609E+000	-2.7038031E+002
3	0	7.145061920273292E+002	1.3396375E+000	-2.7038742E+002
3	0	7.150061920146982E+002	1.3393027E+000	-2.7039093E+002
3	0	7.155061920020671E+002	1.3390194E+000	-2.7038385E+002
3	0	7.160061919894360E+002	1.3387281E+000	-2.7035559E+002
3	0	7.165061919768050E+002	1.3384231E+000	-2.7039801E+002
3	0	7.170061919641739E+002	1.3381308E+000	-2.7036972E+002
3	0	7.175061919515429E+002	1.3377964E+000	-2.7038031E+002
3	0	7.180061919389118E+002	1.3373929E+000	-2.7038742E+002
3	0	7.185061919262807E+002	1.3369472E+000	-2.7036267E+002
3	0	7.190061919136497E+002	1.3366109E+000	-2.7039093E+002
3	0	7.195061919010186E+002	1.3363177E+000	-2.7038385E+002
3	0	7.200061918883875E+002	1.3360311E+000	-2.7036972E+002
3	0	7.205061918757565E+002	1.3357668E+000	-2.7039447E+002
3	0	7.210061918631254E+002	1.3355167E+000	-2.7040155E+002
3	0	7.215061918504944E+002	1.3352642E+000	-2.7038385E+002
3	0	7.220061918378633E+002	1.3349543E+000	-2.7037677E+002
3	0	7.225061918252322E+002	1.3346094E+000	-2.7036972E+002
3	0	7.230061918126012E+002	1.3343743E+000	-2.7038742E+002
3	0	7.235061917999701E+002	1.3341892E+000	-2.7039801E+002
3	0	7.240061917873390E+002	1.3340083E+000	-2.7037326E+002
3	0	7.245061917747080E+002	1.3338298E+000	-2.7038031E+002
3	0	7.250061917620769E+002	1.3336632E+000	-2.7034497E+002
3	0	7.255061917494459E+002	1.3334689E+000	-2.7040860E+002
3	0	7.260061917368148E+002	1.3332306E+000	-2.7039801E+002
3	0	7.265061917241837E+002	1.3329469E+000	-2.7038742E+002
3	0	7.270061917115527E+002	1.3327380E+000	-2.7038031E+002
3	0	7.275061916989216E+002	1.3325670E+000	-2.7040860E+002
3	0	7.280061916862905E+002	1.3323864E+000	-2.7037326E+002
3	0	7.285061916736595E+002	1.3321853E+000	-2.7038742E+002
3	0	7.290061916610284E+002	1.3319937E+000	-2.7039801E+002
3	0	7.295061916483974E+002	1.3317583E+000	-2.7038742E+002
3	0	7.300061916357663E+002	1.3314446E+000	-2.7037326E+002
3	0	7.305061916231352E+002	1.3310865E+000	-2.7038385E+002
3	0	7.310061916105042E+002	1.3308108E+000	-2.7038031E+002
3	0	7.315061915978731E+002	1.3305699E+000	-2.7039093E+002
3	0	7.320061915852421E+002	1.3303269E+000	-2.7037326E+002
3	0	7.325061915726110E+002	1.3300627E+000	-2.7037677E+002
3	0	7.330061915599799E+002	1.3298001E+000	-2.7035559E+002
3	0	7.335061915473489E+002	1.3295196E+000	-2.7037326E+002
3	0	7.340061915347178E+002	1.3291727E+000	-2.7038031E+002
3	0	7.345061915220867E+002	1.3287556E+000	-2.7036618E+002
3	0	7.350061915094557E+002	1.3284305E+000	-2.7035559E+002
3	0	7.355061914968246E+002	1.3281418E+000	-2.7036267E+002
3	0	7.360061914841936E+002	1.3278676E+000	-2.7038385E+002
3	0	7.365061914715625E+002	1.3275775E+000	-2.7037677E+002
3	0	7.370061914589314E+002	1.3272896E+000	-2.7038385E+002
3	0	7.375061914463004E+002	1.3269845E+000	-2.7036618E+002
3	0	7.380061914336693E+002	1.3266122E+000	-2.7038742E+002
3	0	7.385061914210382E+002	1.3261943E+000	-2.7039093E+002
3	0	7.385065914210281E+002	1.3260649E+000	-2.7039093E+002