EC-Lab ASCII FILE
Nb header lines : 55                          

Open Circuit Voltage

Run on channel : 1 (SN 81504)
User : 
CE vs. WE compliance from -10 V to 10 V
Electrode connection : standard
Potential control : Ewe
Ewe ctrl range : min = -2.50 V, max = 2.50 V
Safety Limits :
	Do not start on E overload
Acquisition started on : 05/10/2026 02:45:19.470
Loaded Setting File :  C:\PEM-WE_measurements\2026\372_IV_IV IrOx, 5 min Pt, 30 min C, etched cathode\new station\Loopeis new\1,46 V different time gaps closed cell\Loopeis 1,46V_60s_4_PEIS from 650Hz to 100Hz.mps
Saved on :
	File : L_14_Loopeis 1,46V_60s_4_PEIS from 650Hz to 100Hz_18_OCV_C01.mpr
	Directory : C:\PEM-WE_measurements\2026\372_IV_IV IrOx, 5 min Pt, 30 min C, etched cathode\new station\Loopeis new\1,46 V different time gaps closed cell\
	Host : 192.168.0.2
Device : SP-150e (SN .005491)
Address : 192.168.0.91
EC-LAB for windows v11.71 (software)
Internet server v28.00 (firmware)
Command interpretor v14.01 (firmware)
Electrode material : 
Initial state : 
Electrolyte : 
Comments : 
Current amplifier : SP-150eB-20A
Electrode surface area : 0.001 cm²
Characteristic mass : 0.001 g
Equivalent Weight : 0.000 g/eq.
Density : 0.000 g/cm3
Volume (V) : 0.001 cm³
Record Analogic IN 1
Text export
   Mode : Standard
   Time format : Elapsed
Cycle Definition : Charge/Discharge alternance
External device configuration :
   device type : Temperature Probe
   device name : Other
   Analog IN 1 : 
      unit : T/Â°C
      max : 100.000 at 2.000 V
      min : 0.000 at 1.460 V
tR (h:m:s)          0:01:0.0000         
dER/dt (mV/h)       1.0                 
record              <Ewe>               
dER (mV)            10.00               
dtR (s)             0.5000              
E range min (V)     -2.500              
E range max (V)     2.500               

mode	error	time/s	<Ewe/V>	Analog IN 1/V	
3	0	8.915029910117300E+002	1.4147248E+000	-2.7035205E+002
3	0	8.920029909990990E+002	1.4053320E+000	-2.7035913E+002
3	0	8.925029909864679E+002	1.3991055E+000	-2.7038385E+002
3	0	8.930029909738369E+002	1.3945255E+000	-2.7038031E+002
3	0	8.935029909612058E+002	1.3907944E+000	-2.7037326E+002
3	0	8.940029909485747E+002	1.3875507E+000	-2.7038742E+002
3	0	8.945029909359437E+002	1.3846269E+000	-2.7036618E+002
3	0	8.950029909233126E+002	1.3820966E+000	-2.7036972E+002
3	0	8.955029909106815E+002	1.3798058E+000	-2.7037677E+002
3	0	8.960029908980505E+002	1.3777095E+000	-2.7038385E+002
3	0	8.965029908854194E+002	1.3757828E+000	-2.7038031E+002
3	0	8.970029908727884E+002	1.3739946E+000	-2.7036972E+002
3	0	8.975029908601573E+002	1.3722919E+000	-2.7038742E+002
3	0	8.980029908475262E+002	1.3705995E+000	-2.7037326E+002
3	0	8.985029908348952E+002	1.3689740E+000	-2.7036972E+002
3	0	8.990029908222641E+002	1.3675253E+000	-2.7038742E+002
3	0	8.995029908096330E+002	1.3661484E+000	-2.7038385E+002
3	0	9.000029907970020E+002	1.3648778E+000	-2.7039093E+002
3	0	9.005029907843709E+002	1.3636818E+000	-2.7035913E+002
3	0	9.010029907717399E+002	1.3625469E+000	-2.7038031E+002
3	0	9.015029907591088E+002	1.3614630E+000	-2.7036618E+002
3	0	9.020029907464777E+002	1.3603787E+000	-2.7038385E+002
3	0	9.025029907338467E+002	1.3593278E+000	-2.7036618E+002
3	0	9.030029907212156E+002	1.3584428E+000	-2.7039801E+002
3	0	9.035029907085845E+002	1.3576248E+000	-2.7036972E+002
3	0	9.040029906959535E+002	1.3568813E+000	-2.7037326E+002
3	0	9.045029906833224E+002	1.3561827E+000	-2.7038031E+002
3	0	9.050029906706914E+002	1.3555040E+000	-2.7038385E+002
3	0	9.055029906580603E+002	1.3547912E+000	-2.7039801E+002
3	0	9.060029906454292E+002	1.3541473E+000	-2.7035913E+002
3	0	9.065029906327982E+002	1.3535126E+000	-2.7035205E+002
3	0	9.070029906201671E+002	1.3530130E+000	-2.7038385E+002
3	0	9.075029906075360E+002	1.3525512E+000	-2.7037326E+002
3	0	9.080029905949050E+002	1.3521096E+000	-2.7038031E+002
3	0	9.085029905822739E+002	1.3516901E+000	-2.7039801E+002
3	0	9.090029905696429E+002	1.3512869E+000	-2.7036972E+002
3	0	9.095029905570118E+002	1.3508439E+000	-2.7039093E+002
3	0	9.100029905443807E+002	1.3503499E+000	-2.7038742E+002
3	0	9.105029905317497E+002	1.3498365E+000	-2.7038385E+002
3	0	9.110029905191186E+002	1.3494450E+000	-2.7037677E+002
3	0	9.115029905064875E+002	1.3490933E+000	-2.7039801E+002
3	0	9.120029904938565E+002	1.3487449E+000	-2.7036267E+002
3	0	9.125029904812254E+002	1.3484089E+000	-2.7038742E+002
3	0	9.130029904685944E+002	1.3480744E+000	-2.7037677E+002
3	0	9.135029904559633E+002	1.3477136E+000	-2.7038385E+002
3	0	9.140029904433322E+002	1.3472797E+000	-2.7038385E+002
3	0	9.145029904307012E+002	1.3468212E+000	-2.7037677E+002
3	0	9.150029904180701E+002	1.3464795E+000	-2.7036618E+002
3	0	9.155029904054391E+002	1.3461643E+000	-2.7039093E+002
3	0	9.160029903928080E+002	1.3458420E+000	-2.7038742E+002
3	0	9.165029903801769E+002	1.3455331E+000	-2.7038742E+002
3	0	9.170029903675459E+002	1.3452204E+000	-2.7036267E+002
3	0	9.175029903549148E+002	1.3448664E+000	-2.7036618E+002
3	0	9.180029903422837E+002	1.3444363E+000	-2.7035913E+002
3	0	9.185029903296527E+002	1.3439834E+000	-2.7037677E+002
3	0	9.190029903170216E+002	1.3436348E+000	-2.7038742E+002
3	0	9.195029903043906E+002	1.3433377E+000	-2.7040860E+002
3	0	9.200029902917595E+002	1.3430325E+000	-2.7035913E+002
3	0	9.205029902791284E+002	1.3427229E+000	-2.7037326E+002
3	0	9.210029902664974E+002	1.3424259E+000	-2.7035913E+002
3	0	9.215029902538663E+002	1.3421077E+000	-2.7036618E+002
3	0	9.220029902412352E+002	1.3417242E+000	-2.7038385E+002
3	0	9.225029902286042E+002	1.3413292E+000	-2.7038742E+002
3	0	9.230029902159731E+002	1.3410659E+000	-2.7039447E+002
3	0	9.235029902033421E+002	1.3408531E+000	-2.7036972E+002
3	0	9.240029901907110E+002	1.3406378E+000	-2.7038385E+002
3	0	9.245029901780799E+002	1.3404330E+000	-2.7039447E+002
3	0	9.250029901654489E+002	1.3402357E+000	-2.7038742E+002
3	0	9.255029901528178E+002	1.3400069E+000	-2.7036972E+002
3	0	9.260029901401867E+002	1.3397028E+000	-2.7040155E+002
3	0	9.265029901275557E+002	1.3393749E+000	-2.7037677E+002
3	0	9.270029901149246E+002	1.3391484E+000	-2.7037326E+002
3	0	9.275029901022936E+002	1.3389636E+000	-2.7038742E+002
3	0	9.280029900896625E+002	1.3387600E+000	-2.7039801E+002
3	0	9.285029900770314E+002	1.3385484E+000	-2.7039447E+002
3	0	9.290029900644004E+002	1.3383409E+000	-2.7038031E+002
3	0	9.295029900517693E+002	1.3380913E+000	-2.7037677E+002
3	0	9.300029900391382E+002	1.3377538E+000	-2.7038385E+002
3	0	9.305029900265072E+002	1.3373916E+000	-2.7040155E+002
3	0	9.310029900138761E+002	1.3371298E+000	-2.7036618E+002
3	0	9.315029900012451E+002	1.3369095E+000	-2.7038031E+002
3	0	9.320029899886140E+002	1.3366718E+000	-2.7037326E+002
3	0	9.325029899759829E+002	1.3364309E+000	-2.7036972E+002
3	0	9.330029899633519E+002	1.3361846E+000	-2.7038385E+002
3	0	9.335029899507208E+002	1.3358898E+000	-2.7035559E+002
3	0	9.340029899380897E+002	1.3355227E+000	-2.7036267E+002
3	0	9.345029899254587E+002	1.3351253E+000	-2.7037677E+002
3	0	9.350029899128276E+002	1.3348287E+000	-2.7037677E+002
3	0	9.355029899001966E+002	1.3345628E+000	-2.7037677E+002
3	0	9.360029898875655E+002	1.3342950E+000	-2.7038031E+002
3	0	9.365029898749344E+002	1.3340230E+000	-2.7038385E+002
3	0	9.370029898623034E+002	1.3337420E+000	-2.7034143E+002
3	0	9.375029898496723E+002	1.3334181E+000	-2.7038031E+002
3	0	9.380029898370412E+002	1.3330227E+000	-2.7036618E+002
3	0	9.385029898244102E+002	1.3325943E+000	-2.7039093E+002
3	0	9.390029898117791E+002	1.3322655E+000	-2.7035913E+002
3	0	9.395029897991481E+002	1.3319741E+000	-2.7038385E+002
3	0	9.400029897865170E+002	1.3316742E+000	-2.7037326E+002
3	0	9.405029897738859E+002	1.3313775E+000	-2.7039093E+002
3	0	9.410029897612549E+002	1.3310863E+000	-2.7039093E+002
3	0	9.415029897486238E+002	1.3307799E+000	-2.7038742E+002
3	0	9.420029897359927E+002	1.3304116E+000	-2.7037326E+002
3	0	9.425029897233617E+002	1.3300198E+000	-2.7036972E+002
3	0	9.430029897107306E+002	1.3297557E+000	-2.7038031E+002
3	0	9.435029896980996E+002	1.3295481E+000	-2.7037326E+002
3	0	9.440029896854685E+002	1.3293622E+000	-2.7039447E+002
3	0	9.445029896728374E+002	1.3291740E+000	-2.7039093E+002
3	0	9.450029896602064E+002	1.3289812E+000	-2.7037326E+002
3	0	9.455029896475753E+002	1.3287600E+000	-2.7036267E+002
3	0	9.460029896349442E+002	1.3284618E+000	-2.7036618E+002
3	0	9.465029896223132E+002	1.3281441E+000	-2.7038385E+002
3	0	9.470029896096821E+002	1.3279444E+000	-2.7037326E+002
3	0	9.475029895970511E+002	1.3277671E+000	-2.7036267E+002
3	0	9.480029895844200E+002	1.3275815E+000	-2.7038031E+002
3	0	9.485029895717889E+002	1.3274007E+000	-2.7038742E+002
3	0	9.490029895591579E+002	1.3272109E+000	-2.7038742E+002
3	0	9.495029895465268E+002	1.3269904E+000	-2.7037677E+002
3	0	9.500029895338957E+002	1.3266864E+000	-2.7038031E+002
3	0	9.505029895212647E+002	1.3263547E+000	-2.7038385E+002
3	0	9.510029895086336E+002	1.3261229E+000	-2.7038742E+002
3	0	9.510033895086235E+002	1.3259885E+000	-2.7038742E+002