EC-Lab ASCII FILE
Nb header lines : 55                          

Open Circuit Voltage

Run on channel : 1 (SN 81504)
User : 
CE vs. WE compliance from -10 V to 10 V
Electrode connection : standard
Potential control : Ewe
Ewe ctrl range : min = -2.50 V, max = 2.50 V
Safety Limits :
	Do not start on E overload
Acquisition started on : 05/10/2026 02:45:19.470
Loaded Setting File :  C:\PEM-WE_measurements\2026\372_IV_IV IrOx, 5 min Pt, 30 min C, etched cathode\new station\Loopeis new\1,46 V different time gaps closed cell\Loopeis 1,46V_60s_4_PEIS from 650Hz to 100Hz.mps
Saved on :
	File : L_14_Loopeis 1,46V_60s_4_PEIS from 650Hz to 100Hz_04_OCV_C01.mpr
	Directory : C:\PEM-WE_measurements\2026\372_IV_IV IrOx, 5 min Pt, 30 min C, etched cathode\new station\Loopeis new\1,46 V different time gaps closed cell\
	Host : 192.168.0.2
Device : SP-150e (SN .005491)
Address : 192.168.0.91
EC-LAB for windows v11.71 (software)
Internet server v28.00 (firmware)
Command interpretor v14.01 (firmware)
Electrode material : 
Initial state : 
Electrolyte : 
Comments : 
Current amplifier : SP-150eB-20A
Electrode surface area : 0.001 cm²
Characteristic mass : 0.001 g
Equivalent Weight : 0.000 g/eq.
Density : 0.000 g/cm3
Volume (V) : 0.001 cm³
Record Analogic IN 1
Text export
   Mode : Standard
   Time format : Elapsed
Cycle Definition : Charge/Discharge alternance
External device configuration :
   device type : Temperature Probe
   device name : Other
   Analog IN 1 : 
      unit : T/Â°C
      max : 100.000 at 2.000 V
      min : 0.000 at 1.460 V
tR (h:m:s)          0:01:0.0000         
dER/dt (mV/h)       1.0                 
record              <Ewe>               
dER (mV)            10.00               
dtR (s)             0.5000              
E range min (V)     -2.500              
E range max (V)     2.500               

mode	error	time/s	<Ewe/V>	Analog IN 1/V	
3	0	1.512445995092276E+002	1.1822869E+000	-2.7038385E+002
3	0	1.517445994965965E+002	1.2599528E+000	-2.7036267E+002
3	0	1.522445994839654E+002	1.2637565E+000	-2.7038742E+002
3	0	1.527445994713344E+002	1.2659283E+000	-2.7034851E+002
3	0	1.532445994587033E+002	1.2673376E+000	-2.7036267E+002
3	0	1.537445994460722E+002	1.2682914E+000	-2.7039447E+002
3	0	1.542445994334412E+002	1.2689152E+000	-2.7038031E+002
3	0	1.547445994208101E+002	1.2692775E+000	-2.7037677E+002
3	0	1.552445994081791E+002	1.2695311E+000	-2.7038031E+002
3	0	1.557445993955480E+002	1.2697353E+000	-2.7038742E+002
3	0	1.562445993829169E+002	1.2698631E+000	-2.7038385E+002
3	0	1.567445993702859E+002	1.2699335E+000	-2.7036972E+002
3	0	1.572445993576548E+002	1.2699579E+000	-2.7038031E+002
3	0	1.577445993450237E+002	1.2699502E+000	-2.7037326E+002
3	0	1.582445993323927E+002	1.2698772E+000	-2.7036267E+002
3	0	1.587445993197616E+002	1.2697240E+000	-2.7036267E+002
3	0	1.592445993071306E+002	1.2696085E+000	-2.7036618E+002
3	0	1.597445992944995E+002	1.2695591E+000	-2.7040506E+002
3	0	1.602445992818684E+002	1.2695247E+000	-2.7035205E+002
3	0	1.607445992692374E+002	1.2694889E+000	-2.7038385E+002
3	0	1.612445992566063E+002	1.2694643E+000	-2.7039801E+002
3	0	1.617445992439752E+002	1.2694360E+000	-2.7038031E+002
3	0	1.622445992313442E+002	1.2693568E+000	-2.7037677E+002
3	0	1.627445992187131E+002	1.2692233E+000	-2.7039093E+002
3	0	1.632445992060821E+002	1.2691281E+000	-2.7036972E+002
3	0	1.637445991934510E+002	1.2691137E+000	-2.7039447E+002
3	0	1.642445991808199E+002	1.2691110E+000	-2.7040155E+002
3	0	1.647445991681889E+002	1.2691091E+000	-2.7039093E+002
3	0	1.652445991555578E+002	1.2691205E+000	-2.7038031E+002
3	0	1.657445991429267E+002	1.2691206E+000	-2.7038385E+002
3	0	1.662445991302957E+002	1.2690609E+000	-2.7037326E+002
3	0	1.667445991176646E+002	1.2689267E+000	-2.7037677E+002
3	0	1.672445991050336E+002	1.2688416E+000	-2.7037677E+002
3	0	1.677445990924025E+002	1.2688268E+000	-2.7038385E+002
3	0	1.682445990797714E+002	1.2688229E+000	-2.7038031E+002
3	0	1.687445990671404E+002	1.2688110E+000	-2.7038742E+002
3	0	1.692445990545093E+002	1.2687998E+000	-2.7037677E+002
3	0	1.697445990418782E+002	1.2687689E+000	-2.7036972E+002
3	0	1.702445990292472E+002	1.2686901E+000	-2.7037677E+002
3	0	1.707445990166161E+002	1.2685305E+000	-2.7039447E+002
3	0	1.712445990039851E+002	1.2684054E+000	-2.7037677E+002
3	0	1.717445989913540E+002	1.2683498E+000	-2.7038031E+002
3	0	1.722445989787229E+002	1.2683038E+000	-2.7037677E+002
3	0	1.727445989660919E+002	1.2682509E+000	-2.7041214E+002
3	0	1.732445989534608E+002	1.2681994E+000	-2.7037677E+002
3	0	1.737445989408297E+002	1.2681328E+000	-2.7037326E+002
3	0	1.742445989281987E+002	1.2680035E+000	-2.7038385E+002
3	0	1.747445989155676E+002	1.2677985E+000	-2.7038031E+002
3	0	1.752445989029366E+002	1.2676306E+000	-2.7038742E+002
3	0	1.757445988903055E+002	1.2675430E+000	-2.7036972E+002
3	0	1.762445988776744E+002	1.2674696E+000	-2.7038385E+002
3	0	1.767445988650434E+002	1.2674035E+000	-2.7037326E+002
3	0	1.772445988524123E+002	1.2673377E+000	-2.7039447E+002
3	0	1.777445988397812E+002	1.2672787E+000	-2.7036618E+002
3	0	1.782445988271502E+002	1.2671654E+000	-2.7041568E+002
3	0	1.787445988145191E+002	1.2669832E+000	-2.7037677E+002
3	0	1.792445988018881E+002	1.2668544E+000	-2.7038742E+002
3	0	1.797445987892570E+002	1.2668126E+000	-2.7040155E+002
3	0	1.802445987766259E+002	1.2667856E+000	-2.7037326E+002
3	0	1.807445987639949E+002	1.2667642E+000	-2.7038742E+002
3	0	1.812445987513638E+002	1.2667441E+000	-2.7037677E+002
3	0	1.817445987387327E+002	1.2667180E+000	-2.7036972E+002
3	0	1.822445987261017E+002	1.2666333E+000	-2.7038031E+002
3	0	1.827445987134706E+002	1.2664763E+000	-2.7038031E+002
3	0	1.832445987008396E+002	1.2663480E+000	-2.7036618E+002
3	0	1.837445986882085E+002	1.2662947E+000	-2.7039093E+002
3	0	1.842445986755774E+002	1.2662451E+000	-2.7038031E+002
3	0	1.847445986629464E+002	1.2661843E+000	-2.7037677E+002
3	0	1.852445986503153E+002	1.2661172E+000	-2.7038031E+002
3	0	1.857445986376842E+002	1.2660269E+000	-2.7037677E+002
3	0	1.862445986250532E+002	1.2658758E+000	-2.7038385E+002
3	0	1.867445986124221E+002	1.2656620E+000	-2.7036618E+002
3	0	1.872445985997911E+002	1.2654727E+000	-2.7035913E+002
3	0	1.877445985871600E+002	1.2653500E+000	-2.7039801E+002
3	0	1.882445985745289E+002	1.2652391E+000	-2.7038031E+002
3	0	1.887445985618979E+002	1.2651241E+000	-2.7039093E+002
3	0	1.892445985492668E+002	1.2649963E+000	-2.7036267E+002
3	0	1.897445985366357E+002	1.2648555E+000	-2.7038031E+002
3	0	1.902445985240047E+002	1.2646544E+000	-2.7035913E+002
3	0	1.907445985113736E+002	1.2643878E+000	-2.7038742E+002
3	0	1.912445984987426E+002	1.2641529E+000	-2.7037677E+002
3	0	1.917445984861115E+002	1.2639867E+000	-2.7038742E+002
3	0	1.922445984734804E+002	1.2638265E+000	-2.7039447E+002
3	0	1.927445984608494E+002	1.2636601E+000	-2.7037677E+002
3	0	1.932445984482183E+002	1.2634885E+000	-2.7035913E+002
3	0	1.937445984355873E+002	1.2633157E+000	-2.7035559E+002
3	0	1.942445984229562E+002	1.2630780E+000	-2.7039447E+002
3	0	1.947445984103251E+002	1.2627739E+000	-2.7036618E+002
3	0	1.952445983976941E+002	1.2625076E+000	-2.7034851E+002
3	0	1.957445983850630E+002	1.2623006E+000	-2.7038742E+002
3	0	1.962445983724319E+002	1.2621133E+000	-2.7039447E+002
3	0	1.967445983598009E+002	1.2619210E+000	-2.7037677E+002
3	0	1.972445983471698E+002	1.2617390E+000	-2.7039093E+002
3	0	1.977445983345388E+002	1.2615533E+000	-2.7039093E+002
3	0	1.982445983219077E+002	1.2613310E+000	-2.7038031E+002
3	0	1.987445983092766E+002	1.2610538E+000	-2.7039801E+002
3	0	1.992445982966456E+002	1.2608203E+000	-2.7038742E+002
3	0	1.997445982840145E+002	1.2606708E+000	-2.7039801E+002
3	0	2.002445982713834E+002	1.2605430E+000	-2.7038742E+002
3	0	2.007445982587524E+002	1.2604263E+000	-2.7036267E+002
3	0	2.012445982461213E+002	1.2603360E+000	-2.7036618E+002
3	0	2.017445982334903E+002	1.2602671E+000	-2.7037677E+002
3	0	2.022445982208592E+002	1.2603943E+000	-2.7036618E+002
3	0	2.027445982082281E+002	1.2605549E+000	-2.7037326E+002
3	0	2.032445981955971E+002	1.2606739E+000	-2.7038742E+002
3	0	2.037445981829660E+002	1.2607932E+000	-2.7038385E+002
3	0	2.042445981703349E+002	1.2608790E+000	-2.7036618E+002
3	0	2.047445981577039E+002	1.2609183E+000	-2.7038742E+002
3	0	2.052445981450728E+002	1.2609278E+000	-2.7035559E+002
3	0	2.057445981324418E+002	1.2608988E+000	-2.7040860E+002
3	0	2.062445981198107E+002	1.2607789E+000	-2.7037677E+002
3	0	2.067445981071796E+002	1.2605712E+000	-2.7038385E+002
3	0	2.072445980945486E+002	1.2603798E+000	-2.7040506E+002
3	0	2.077445980819175E+002	1.2602299E+000	-2.7037326E+002
3	0	2.082445980692864E+002	1.2600827E+000	-2.7038742E+002
3	0	2.087445980566554E+002	1.2599190E+000	-2.7040506E+002
3	0	2.092445980440243E+002	1.2597456E+000	-2.7036972E+002
3	0	2.097445980313933E+002	1.2595534E+000	-2.7038031E+002
3	0	2.102445980187622E+002	1.2593040E+000	-2.7038031E+002
3	0	2.107445980061311E+002	1.2589829E+000	-2.7038742E+002
3	0	2.107679980055400E+002	1.2587975E+000	-2.7041214E+002