EC-Lab ASCII FILE
Nb header lines : 55                          

Open Circuit Voltage

Run on channel : 1 (SN 81504)
User : 
CE vs. WE compliance from -10 V to 10 V
Electrode connection : standard
Potential control : Ewe
Ewe ctrl range : min = -2.50 V, max = 2.50 V
Safety Limits :
	Do not start on E overload
Acquisition started on : 05/10/2026 02:45:19.470
Loaded Setting File :  C:\PEM-WE_measurements\2026\372_IV_IV IrOx, 5 min Pt, 30 min C, etched cathode\new station\Loopeis new\1,46 V different time gaps closed cell\Loopeis 1,46V_60s_4_PEIS from 650Hz to 100Hz.mps
Saved on :
	File : L_14_Loopeis 1,46V_60s_4_PEIS from 650Hz to 100Hz_20_OCV_C01.mpr
	Directory : C:\PEM-WE_measurements\2026\372_IV_IV IrOx, 5 min Pt, 30 min C, etched cathode\new station\Loopeis new\1,46 V different time gaps closed cell\
	Host : 192.168.0.2
Device : SP-150e (SN .005491)
Address : 192.168.0.91
EC-LAB for windows v11.71 (software)
Internet server v28.00 (firmware)
Command interpretor v14.01 (firmware)
Electrode material : 
Initial state : 
Electrolyte : 
Comments : 
Current amplifier : SP-150eB-20A
Electrode surface area : 0.001 cm²
Characteristic mass : 0.001 g
Equivalent Weight : 0.000 g/eq.
Density : 0.000 g/cm3
Volume (V) : 0.001 cm³
Record Analogic IN 1
Text export
   Mode : Standard
   Time format : Elapsed
Cycle Definition : Charge/Discharge alternance
External device configuration :
   device type : Temperature Probe
   device name : Other
   Analog IN 1 : 
      unit : T/Â°C
      max : 100.000 at 2.000 V
      min : 0.000 at 1.460 V
tR (h:m:s)          0:01:0.0000         
dER/dt (mV/h)       1.0                 
record              <Ewe>               
dER (mV)            10.00               
dtR (s)             0.5000              
E range min (V)     -2.500              
E range max (V)     2.500               

mode	error	time/s	<Ewe/V>	Analog IN 1/V	
3	0	9.987155917401833E+002	1.1754370E+000	-2.7038742E+002
3	0	9.992155917275522E+002	1.2598882E+000	-2.7038742E+002
3	0	9.997155917149212E+002	1.2635541E+000	-2.7037677E+002
3	0	1.000215591702290E+003	1.2655866E+000	-2.7040506E+002
3	0	1.000715591689659E+003	1.2668591E+000	-2.7038742E+002
3	0	1.001215591677028E+003	1.2676822E+000	-2.7039801E+002
3	0	1.001715591664397E+003	1.2681669E+000	-2.7038742E+002
3	0	1.002215591651766E+003	1.2684169E+000	-2.7038742E+002
3	0	1.002715591639135E+003	1.2685933E+000	-2.7036618E+002
3	0	1.003215591626504E+003	1.2687290E+000	-2.7039093E+002
3	0	1.003715591613873E+003	1.2687995E+000	-2.7034851E+002
3	0	1.004215591601242E+003	1.2688078E+000	-2.7036267E+002
3	0	1.004715591588611E+003	1.2687905E+000	-2.7040155E+002
3	0	1.005215591575979E+003	1.2687165E+000	-2.7035559E+002
3	0	1.005715591563348E+003	1.2685682E+000	-2.7038031E+002
3	0	1.006215591550717E+003	1.2683560E+000	-2.7038742E+002
3	0	1.006715591538086E+003	1.2682130E+000	-2.7038031E+002
3	0	1.007215591525455E+003	1.2681372E+000	-2.7037677E+002
3	0	1.007715591512824E+003	1.2680709E+000	-2.7036972E+002
3	0	1.008215591500193E+003	1.2679960E+000	-2.7035205E+002
3	0	1.008715591487562E+003	1.2679272E+000	-2.7038031E+002
3	0	1.009215591474931E+003	1.2678479E+000	-2.7038031E+002
3	0	1.009715591462300E+003	1.2677072E+000	-2.7037326E+002
3	0	1.010215591449669E+003	1.2675143E+000	-2.7037326E+002
3	0	1.010715591437038E+003	1.2674036E+000	-2.7040155E+002
3	0	1.011215591424407E+003	1.2673707E+000	-2.7038385E+002
3	0	1.011715591411776E+003	1.2673416E+000	-2.7037326E+002
3	0	1.012215591399145E+003	1.2673038E+000	-2.7038742E+002
3	0	1.012715591386514E+003	1.2672663E+000	-2.7036972E+002
3	0	1.013215591373882E+003	1.2672224E+000	-2.7038742E+002
3	0	1.013715591361251E+003	1.2671145E+000	-2.7038385E+002
3	0	1.014215591348620E+003	1.2669417E+000	-2.7039093E+002
3	0	1.014715591335989E+003	1.2668467E+000	-2.7038385E+002
3	0	1.015215591323358E+003	1.2668257E+000	-2.7037677E+002
3	0	1.015715591310727E+003	1.2668123E+000	-2.7036267E+002
3	0	1.016215591298096E+003	1.2667868E+000	-2.7035913E+002
3	0	1.016715591285465E+003	1.2667689E+000	-2.7038385E+002
3	0	1.017215591272834E+003	1.2667302E+000	-2.7038385E+002
3	0	1.017715591260203E+003	1.2666113E+000	-2.7038385E+002
3	0	1.018215591247572E+003	1.2664376E+000	-2.7035913E+002
3	0	1.018715591234941E+003	1.2663431E+000	-2.7036972E+002
3	0	1.019215591222310E+003	1.2663102E+000	-2.7036618E+002
3	0	1.019715591209679E+003	1.2662848E+000	-2.7036267E+002
3	0	1.020215591197048E+003	1.2662487E+000	-2.7037677E+002
3	0	1.020715591184417E+003	1.2662216E+000	-2.7035559E+002
3	0	1.021215591171785E+003	1.2661860E+000	-2.7038385E+002
3	0	1.021715591159154E+003	1.2660903E+000	-2.7038742E+002
3	0	1.022215591146523E+003	1.2659392E+000	-2.7035913E+002
3	0	1.022715591133892E+003	1.2658772E+000	-2.7037677E+002
3	0	1.023215591121261E+003	1.2659142E+000	-2.7038385E+002
3	0	1.023715591108630E+003	1.2659553E+000	-2.7039447E+002
3	0	1.024215591095999E+003	1.2659951E+000	-2.7038742E+002
3	0	1.024715591083368E+003	1.2660468E+000	-2.7035913E+002
3	0	1.025215591070737E+003	1.2660810E+000	-2.7035559E+002
3	0	1.025715591058106E+003	1.2660544E+000	-2.7036267E+002
3	0	1.026215591045475E+003	1.2659587E+000	-2.7041919E+002
3	0	1.026715591032844E+003	1.2659274E+000	-2.7040860E+002
3	0	1.027215591020213E+003	1.2659729E+000	-2.7037326E+002
3	0	1.027715591007582E+003	1.2660202E+000	-2.7037677E+002
3	0	1.028215590994951E+003	1.2660460E+000	-2.7038742E+002
3	0	1.028715590982320E+003	1.2660662E+000	-2.7040860E+002
3	0	1.029215590969688E+003	1.2660558E+000	-2.7038742E+002
3	0	1.029715590957057E+003	1.2659651E+000	-2.7037677E+002
3	0	1.030215590944426E+003	1.2658017E+000	-2.7040506E+002
3	0	1.030715590931795E+003	1.2657133E+000	-2.7039093E+002
3	0	1.031215590919164E+003	1.2656786E+000	-2.7037677E+002
3	0	1.031715590906533E+003	1.2656420E+000	-2.7036972E+002
3	0	1.032215590893902E+003	1.2655827E+000	-2.7035205E+002
3	0	1.032715590881271E+003	1.2655287E+000	-2.7037326E+002
3	0	1.033215590868640E+003	1.2654481E+000	-2.7035205E+002
3	0	1.033715590856009E+003	1.2652875E+000	-2.7036618E+002
3	0	1.034215590843378E+003	1.2650481E+000	-2.7038385E+002
3	0	1.034715590830747E+003	1.2648772E+000	-2.7038385E+002
3	0	1.035215590818116E+003	1.2647681E+000	-2.7038385E+002
3	0	1.035715590805485E+003	1.2646537E+000	-2.7039093E+002
3	0	1.036215590792854E+003	1.2645254E+000	-2.7040155E+002
3	0	1.036715590780223E+003	1.2643964E+000	-2.7038031E+002
3	0	1.037215590767591E+003	1.2642326E+000	-2.7036618E+002
3	0	1.037715590754960E+003	1.2640030E+000	-2.7038385E+002
3	0	1.038215590742329E+003	1.2637084E+000	-2.7037326E+002
3	0	1.038715590729698E+003	1.2634816E+000	-2.7037326E+002
3	0	1.039215590717067E+003	1.2633243E+000	-2.7038385E+002
3	0	1.039715590704436E+003	1.2631742E+000	-2.7035913E+002
3	0	1.040215590691805E+003	1.2630062E+000	-2.7038031E+002
3	0	1.040715590679174E+003	1.2628431E+000	-2.7038742E+002
3	0	1.041215590666543E+003	1.2626678E+000	-2.7038031E+002
3	0	1.041715590653912E+003	1.2624277E+000	-2.7040506E+002
3	0	1.042215590641281E+003	1.2621233E+000	-2.7038031E+002
3	0	1.042715590628650E+003	1.2619134E+000	-2.7036972E+002
3	0	1.043215590616019E+003	1.2618003E+000	-2.7038385E+002
3	0	1.043715590603388E+003	1.2617000E+000	-2.7039093E+002
3	0	1.044215590590757E+003	1.2615947E+000	-2.7040155E+002
3	0	1.044715590578126E+003	1.2615117E+000	-2.7039801E+002
3	0	1.045215590565494E+003	1.2614146E+000	-2.7040860E+002
3	0	1.045715590552863E+003	1.2612484E+000	-2.7039093E+002
3	0	1.046215590540232E+003	1.2610201E+000	-2.7038031E+002
3	0	1.046715590527601E+003	1.2608628E+000	-2.7040860E+002
3	0	1.047215590514970E+003	1.2607857E+000	-2.7038385E+002
3	0	1.047715590502339E+003	1.2606977E+000	-2.7040506E+002
3	0	1.048215590489708E+003	1.2605947E+000	-2.7038031E+002
3	0	1.048715590477077E+003	1.2604979E+000	-2.7040155E+002
3	0	1.049215590464446E+003	1.2603685E+000	-2.7040155E+002
3	0	1.049715590451815E+003	1.2601649E+000	-2.7037677E+002
3	0	1.050215590439184E+003	1.2598894E+000	-2.7038385E+002
3	0	1.050715590426553E+003	1.2596809E+000	-2.7036972E+002
3	0	1.051215590413922E+003	1.2595439E+000	-2.7038385E+002
3	0	1.051715590401291E+003	1.2594115E+000	-2.7039801E+002
3	0	1.052215590388660E+003	1.2592614E+000	-2.7037677E+002
3	0	1.052715590376029E+003	1.2591139E+000	-2.7036267E+002
3	0	1.053215590363398E+003	1.2589372E+000	-2.7038385E+002
3	0	1.053715590350766E+003	1.2586898E+000	-2.7038742E+002
3	0	1.054215590338135E+003	1.2583642E+000	-2.7038031E+002
3	0	1.054715590325504E+003	1.2581105E+000	-2.7038742E+002
3	0	1.055215590312873E+003	1.2579310E+000	-2.7039801E+002
3	0	1.055715590300242E+003	1.2577529E+000	-2.7039093E+002
3	0	1.056215590287611E+003	1.2575626E+000	-2.7036972E+002
3	0	1.056715590274980E+003	1.2573693E+000	-2.7040860E+002
3	0	1.057215590262349E+003	1.2571627E+000	-2.7040860E+002
3	0	1.057715590249718E+003	1.2568753E+000	-2.7038385E+002
3	0	1.058215590237087E+003	1.2565191E+000	-2.7036267E+002
3	0	1.058240190236465E+003	1.2563521E+000	-2.7036972E+002