EC-Lab ASCII FILE
Nb header lines : 55                          

Open Circuit Voltage

Run on channel : 1 (SN 81504)
User : 
CE vs. WE compliance from -10 V to 10 V
Electrode connection : standard
Potential control : Ewe
Ewe ctrl range : min = -2.50 V, max = 2.50 V
Safety Limits :
	Do not start on E overload
Acquisition started on : 05/10/2026 03:03:02.549
Loaded Setting File :  C:\PEM-WE_measurements\2026\372_IV_IV IrOx, 5 min Pt, 30 min C, etched cathode\new station\Loopeis new\1,46 V different time gaps closed cell\Loopeis 1,46V_60s_5_PEIS from 65Hz to 10Hz.mps
Saved on :
	File : L_15_Loopeis 1,46V_60s_5_PEIS from 65Hz to 10Hz_18_OCV_C01.mpr
	Directory : C:\PEM-WE_measurements\2026\372_IV_IV IrOx, 5 min Pt, 30 min C, etched cathode\new station\Loopeis new\1,46 V different time gaps closed cell\
	Host : 192.168.0.2
Device : SP-150e (SN .005491)
Address : 192.168.0.91
EC-LAB for windows v11.71 (software)
Internet server v28.00 (firmware)
Command interpretor v14.01 (firmware)
Electrode material : 
Initial state : 
Electrolyte : 
Comments : 
Current amplifier : SP-150eB-20A
Electrode surface area : 0.001 cm²
Characteristic mass : 0.001 g
Equivalent Weight : 0.000 g/eq.
Density : 0.000 g/cm3
Volume (V) : 0.001 cm³
Record Analogic IN 1
Text export
   Mode : Standard
   Time format : Elapsed
Cycle Definition : Charge/Discharge alternance
External device configuration :
   device type : Temperature Probe
   device name : Other
   Analog IN 1 : 
      unit : T/Â°C
      max : 100.000 at 2.000 V
      min : 0.000 at 1.460 V
tR (h:m:s)          0:01:0.0000         
dER/dt (mV/h)       1.0                 
record              <Ewe>               
dER (mV)            10.00               
dtR (s)             0.5000              
E range min (V)     -2.500              
E range max (V)     2.500               

mode	error	time/s	<Ewe/V>	Analog IN 1/V	
3	0	1.368645013674759E+003	1.4146335E+000	-2.7037677E+002
3	0	1.369145013662128E+003	1.4052944E+000	-2.7036972E+002
3	0	1.369645013649497E+003	1.3990772E+000	-2.7036618E+002
3	0	1.370145013636866E+003	1.3944472E+000	-2.7038385E+002
3	0	1.370645013624235E+003	1.3906090E+000	-2.7035559E+002
3	0	1.371145013611604E+003	1.3872937E+000	-2.7037677E+002
3	0	1.371645013598973E+003	1.3844681E+000	-2.7039093E+002
3	0	1.372145013586342E+003	1.3819927E+000	-2.7037677E+002
3	0	1.372645013573710E+003	1.3797497E+000	-2.7036618E+002
3	0	1.373145013561079E+003	1.3777028E+000	-2.7039801E+002
3	0	1.373645013548448E+003	1.3758208E+000	-2.7038385E+002
3	0	1.374145013535817E+003	1.3740625E+000	-2.7039801E+002
3	0	1.374645013523186E+003	1.3723255E+000	-2.7037326E+002
3	0	1.375145013510555E+003	1.3706472E+000	-2.7038031E+002
3	0	1.375645013497924E+003	1.3691701E+000	-2.7039801E+002
3	0	1.376145013485293E+003	1.3678169E+000	-2.7037326E+002
3	0	1.376645013472662E+003	1.3665210E+000	-2.7038385E+002
3	0	1.377145013460031E+003	1.3653064E+000	-2.7039801E+002
3	0	1.377645013447400E+003	1.3641642E+000	-2.7038385E+002
3	0	1.378145013434769E+003	1.3630484E+000	-2.7038742E+002
3	0	1.378645013422138E+003	1.3619145E+000	-2.7040506E+002
3	0	1.379145013409507E+003	1.3607920E+000	-2.7037677E+002
3	0	1.379645013396876E+003	1.3598310E+000	-2.7041214E+002
3	0	1.380145013384245E+003	1.3589578E+000	-2.7038742E+002
3	0	1.380645013371613E+003	1.3581233E+000	-2.7037326E+002
3	0	1.381145013358982E+003	1.3573307E+000	-2.7036972E+002
3	0	1.381645013346351E+003	1.3565787E+000	-2.7037326E+002
3	0	1.382145013333720E+003	1.3558385E+000	-2.7038385E+002
3	0	1.382645013321089E+003	1.3550473E+000	-2.7035559E+002
3	0	1.383145013308458E+003	1.3542396E+000	-2.7038031E+002
3	0	1.383645013295827E+003	1.3535748E+000	-2.7042273E+002
3	0	1.384145013283196E+003	1.3529682E+000	-2.7039447E+002
3	0	1.384645013270565E+003	1.3523844E+000	-2.7035559E+002
3	0	1.385145013257934E+003	1.3518291E+000	-2.7035913E+002
3	0	1.385645013245303E+003	1.3512993E+000	-2.7036267E+002
3	0	1.386145013232672E+003	1.3507633E+000	-2.7037677E+002
3	0	1.386645013220041E+003	1.3501641E+000	-2.7034851E+002
3	0	1.387145013207410E+003	1.3495525E+000	-2.7036618E+002
3	0	1.387645013194779E+003	1.3490756E+000	-2.7037326E+002
3	0	1.388145013182148E+003	1.3486680E+000	-2.7038742E+002
3	0	1.388645013169516E+003	1.3482820E+000	-2.7037326E+002
3	0	1.389145013156885E+003	1.3479234E+000	-2.7037326E+002
3	0	1.389645013144254E+003	1.3475919E+000	-2.7037326E+002
3	0	1.390145013131623E+003	1.3472524E+000	-2.7038031E+002
3	0	1.390645013118992E+003	1.3468451E+000	-2.7037326E+002
3	0	1.391145013106361E+003	1.3464135E+000	-2.7036618E+002
3	0	1.391645013093730E+003	1.3461066E+000	-2.7037677E+002
3	0	1.392145013081099E+003	1.3458585E+000	-2.7038031E+002
3	0	1.392645013068468E+003	1.3456100E+000	-2.7036618E+002
3	0	1.393145013055837E+003	1.3453716E+000	-2.7036267E+002
3	0	1.393645013043206E+003	1.3451195E+000	-2.7036618E+002
3	0	1.394145013030575E+003	1.3448346E+000	-2.7038385E+002
3	0	1.394645013017944E+003	1.3444685E+000	-2.7039801E+002
3	0	1.395145013005313E+003	1.3440739E+000	-2.7038031E+002
3	0	1.395645012992682E+003	1.3437935E+000	-2.7038031E+002
3	0	1.396145012980051E+003	1.3435451E+000	-2.7037677E+002
3	0	1.396645012967419E+003	1.3432860E+000	-2.7037326E+002
3	0	1.397145012954788E+003	1.3430201E+000	-2.7036618E+002
3	0	1.397645012942157E+003	1.3427646E+000	-2.7035559E+002
3	0	1.398145012929526E+003	1.3424637E+000	-2.7038742E+002
3	0	1.398645012916895E+003	1.3420882E+000	-2.7037326E+002
3	0	1.399145012904264E+003	1.3416694E+000	-2.7036267E+002
3	0	1.399645012891633E+003	1.3413635E+000	-2.7033438E+002
3	0	1.400145012879002E+003	1.3410864E+000	-2.7037326E+002
3	0	1.400645012866371E+003	1.3408167E+000	-2.7036618E+002
3	0	1.401145012853740E+003	1.3405248E+000	-2.7035559E+002
3	0	1.401645012841109E+003	1.3402421E+000	-2.7036267E+002
3	0	1.402145012828478E+003	1.3399165E+000	-2.7038742E+002
3	0	1.402645012815847E+003	1.3395199E+000	-2.7036267E+002
3	0	1.403145012803216E+003	1.3390900E+000	-2.7036618E+002
3	0	1.403645012790585E+003	1.3387597E+000	-2.7036267E+002
3	0	1.404145012777954E+003	1.3384674E+000	-2.7038031E+002
3	0	1.404645012765322E+003	1.3381741E+000	-2.7037677E+002
3	0	1.405145012752691E+003	1.3378733E+000	-2.7035913E+002
3	0	1.405645012740060E+003	1.3375667E+000	-2.7037326E+002
3	0	1.406145012727429E+003	1.3372172E+000	-2.7038385E+002
3	0	1.406645012714798E+003	1.3368067E+000	-2.7035913E+002
3	0	1.407145012702167E+003	1.3363564E+000	-2.7035559E+002
3	0	1.407645012689536E+003	1.3360288E+000	-2.7036618E+002
3	0	1.408145012676905E+003	1.3357489E+000	-2.7037677E+002
3	0	1.408645012664274E+003	1.3354785E+000	-2.7036618E+002
3	0	1.409145012651643E+003	1.3352200E+000	-2.7037677E+002
3	0	1.409645012639012E+003	1.3349817E+000	-2.7035913E+002
3	0	1.410145012626381E+003	1.3347287E+000	-2.7036618E+002
3	0	1.410645012613750E+003	1.3344091E+000	-2.7037326E+002
3	0	1.411145012601119E+003	1.3340498E+000	-2.7036972E+002
3	0	1.411645012588488E+003	1.3338075E+000	-2.7038385E+002
3	0	1.412145012575857E+003	1.3336034E+000	-2.7038031E+002
3	0	1.412645012563225E+003	1.3333976E+000	-2.7037677E+002
3	0	1.413145012550594E+003	1.3331914E+000	-2.7039447E+002
3	0	1.413645012537963E+003	1.3329850E+000	-2.7038385E+002
3	0	1.414145012525332E+003	1.3327359E+000	-2.7039801E+002
3	0	1.414645012512701E+003	1.3324139E+000	-2.7038742E+002
3	0	1.415145012500070E+003	1.3320491E+000	-2.7039447E+002
3	0	1.415645012487439E+003	1.3317924E+000	-2.7036267E+002
3	0	1.416145012474808E+003	1.3315688E+000	-2.7036618E+002
3	0	1.416645012462177E+003	1.3313477E+000	-2.7039447E+002
3	0	1.417145012449546E+003	1.3311106E+000	-2.7038031E+002
3	0	1.417645012436915E+003	1.3308730E+000	-2.7038385E+002
3	0	1.418145012424284E+003	1.3306038E+000	-2.7039447E+002
3	0	1.418645012411653E+003	1.3302480E+000	-2.7039447E+002
3	0	1.419145012399022E+003	1.3298439E+000	-2.7039447E+002
3	0	1.419645012386391E+003	1.3295523E+000	-2.7040506E+002
3	0	1.420145012373760E+003	1.3293102E+000	-2.7036972E+002
3	0	1.420645012361128E+003	1.3290554E+000	-2.7036618E+002
3	0	1.421145012348497E+003	1.3287802E+000	-2.7039801E+002
3	0	1.421645012335866E+003	1.3285133E+000	-2.7040155E+002
3	0	1.422145012323235E+003	1.3282088E+000	-2.7039447E+002
3	0	1.422645012310604E+003	1.3278288E+000	-2.7036972E+002
3	0	1.423145012297973E+003	1.3274024E+000	-2.7038031E+002
3	0	1.423645012285342E+003	1.3270850E+000	-2.7039447E+002
3	0	1.424145012272711E+003	1.3268106E+000	-2.7038385E+002
3	0	1.424645012260080E+003	1.3265258E+000	-2.7036618E+002
3	0	1.425145012247449E+003	1.3262331E+000	-2.7036267E+002
3	0	1.425645012234818E+003	1.3259438E+000	-2.7038385E+002
3	0	1.426145012222187E+003	1.3256255E+000	-2.7035559E+002
3	0	1.426645012209556E+003	1.3252172E+000	-2.7039093E+002
3	0	1.427145012196925E+003	1.3247831E+000	-2.7037677E+002
3	0	1.427645012184294E+003	1.3244610E+000	-2.7038385E+002
3	0	1.428145012171663E+003	1.3242022E+000	-2.7036972E+002
3	0	1.428145412171652E+003	1.3240706E+000	-2.7037677E+002