EC-Lab ASCII FILE
Nb header lines : 55                          

Open Circuit Voltage

Run on channel : 1 (SN 81504)
User : 
CE vs. WE compliance from -10 V to 10 V
Electrode connection : standard
Potential control : Ewe
Ewe ctrl range : min = -2.50 V, max = 2.50 V
Safety Limits :
	Do not start on E overload
Acquisition started on : 05/10/2026 03:03:02.549
Loaded Setting File :  C:\PEM-WE_measurements\2026\372_IV_IV IrOx, 5 min Pt, 30 min C, etched cathode\new station\Loopeis new\1,46 V different time gaps closed cell\Loopeis 1,46V_60s_5_PEIS from 65Hz to 10Hz.mps
Saved on :
	File : L_15_Loopeis 1,46V_60s_5_PEIS from 65Hz to 10Hz_06_OCV_C01.mpr
	Directory : C:\PEM-WE_measurements\2026\372_IV_IV IrOx, 5 min Pt, 30 min C, etched cathode\new station\Loopeis new\1,46 V different time gaps closed cell\
	Host : 192.168.0.2
Device : SP-150e (SN .005491)
Address : 192.168.0.91
EC-LAB for windows v11.71 (software)
Internet server v28.00 (firmware)
Command interpretor v14.01 (firmware)
Electrode material : 
Initial state : 
Electrolyte : 
Comments : 
Current amplifier : SP-150eB-20A
Electrode surface area : 0.001 cm²
Characteristic mass : 0.001 g
Equivalent Weight : 0.000 g/eq.
Density : 0.000 g/cm3
Volume (V) : 0.001 cm³
Record Analogic IN 1
Text export
   Mode : Standard
   Time format : Elapsed
Cycle Definition : Charge/Discharge alternance
External device configuration :
   device type : Temperature Probe
   device name : Other
   Analog IN 1 : 
      unit : T/Â°C
      max : 100.000 at 2.000 V
      min : 0.000 at 1.460 V
tR (h:m:s)          0:01:0.0000         
dER/dt (mV/h)       1.0                 
record              <Ewe>               
dER (mV)            10.00               
dtR (s)             0.5000              
E range min (V)     -2.500              
E range max (V)     2.500               

mode	error	time/s	<Ewe/V>	Analog IN 1/V	
3	0	2.557665968322544E+002	1.4142256E+000	-2.7036972E+002
3	0	2.562665968196234E+002	1.4046675E+000	-2.7035913E+002
3	0	2.567665968069923E+002	1.3983399E+000	-2.7039801E+002
3	0	2.572665967943612E+002	1.3936841E+000	-2.7036972E+002
3	0	2.577665967817302E+002	1.3899118E+000	-2.7037677E+002
3	0	2.582665967690991E+002	1.3867064E+000	-2.7038742E+002
3	0	2.587665967564681E+002	1.3838533E+000	-2.7039447E+002
3	0	2.592665967438370E+002	1.3811939E+000	-2.7037326E+002
3	0	2.597665967312059E+002	1.3786981E+000	-2.7036618E+002
3	0	2.602665967185749E+002	1.3764760E+000	-2.7035559E+002
3	0	2.607665967059438E+002	1.3744488E+000	-2.7040155E+002
3	0	2.612665966933127E+002	1.3725593E+000	-2.7038742E+002
3	0	2.617665966806817E+002	1.3708006E+000	-2.7039093E+002
3	0	2.622665966680506E+002	1.3691754E+000	-2.7038031E+002
3	0	2.627665966554196E+002	1.3676237E+000	-2.7036972E+002
3	0	2.632665966427885E+002	1.3660926E+000	-2.7035913E+002
3	0	2.637665966301574E+002	1.3646232E+000	-2.7036618E+002
3	0	2.642665966175264E+002	1.3633276E+000	-2.7036618E+002
3	0	2.647665966048953E+002	1.3621520E+000	-2.7040155E+002
3	0	2.652665965922643E+002	1.3610744E+000	-2.7038031E+002
3	0	2.657665965796332E+002	1.3600694E+000	-2.7038385E+002
3	0	2.662665965670021E+002	1.3591380E+000	-2.7039801E+002
3	0	2.667665965543711E+002	1.3582321E+000	-2.7036972E+002
3	0	2.672665965417400E+002	1.3573034E+000	-2.7040506E+002
3	0	2.677665965291089E+002	1.3563772E+000	-2.7036972E+002
3	0	2.682665965164779E+002	1.3556100E+000	-2.7037326E+002
3	0	2.687665965038468E+002	1.3549219E+000	-2.7037326E+002
3	0	2.692665964912158E+002	1.3542690E+000	-2.7037677E+002
3	0	2.697665964785847E+002	1.3536589E+000	-2.7036618E+002
3	0	2.702665964659536E+002	1.3530853E+000	-2.7037326E+002
3	0	2.707665964533226E+002	1.3525099E+000	-2.7038742E+002
3	0	2.712665964406915E+002	1.3518806E+000	-2.7035913E+002
3	0	2.717665964280604E+002	1.3512405E+000	-2.7037326E+002
3	0	2.722665964154294E+002	1.3507174E+000	-2.7035559E+002
3	0	2.727665964027983E+002	1.3502436E+000	-2.7036972E+002
3	0	2.732665963901673E+002	1.3497965E+000	-2.7038742E+002
3	0	2.737665963775362E+002	1.3493551E+000	-2.7037326E+002
3	0	2.742665963649051E+002	1.3489136E+000	-2.7036618E+002
3	0	2.747665963522741E+002	1.3484563E+000	-2.7038742E+002
3	0	2.752665963396430E+002	1.3479358E+000	-2.7038742E+002
3	0	2.757665963270119E+002	1.3473994E+000	-2.7036972E+002
3	0	2.762665963143809E+002	1.3469774E+000	-2.7038031E+002
3	0	2.767665963017498E+002	1.3465863E+000	-2.7038742E+002
3	0	2.772665962891188E+002	1.3462161E+000	-2.7038385E+002
3	0	2.777665962764877E+002	1.3458718E+000	-2.7036972E+002
3	0	2.782665962638566E+002	1.3455247E+000	-2.7038031E+002
3	0	2.787665962512256E+002	1.3451383E+000	-2.7040860E+002
3	0	2.792665962385945E+002	1.3446815E+000	-2.7037677E+002
3	0	2.797665962259634E+002	1.3442101E+000	-2.7036972E+002
3	0	2.802665962133324E+002	1.3438475E+000	-2.7038031E+002
3	0	2.807665962007013E+002	1.3435223E+000	-2.7035913E+002
3	0	2.812665961880703E+002	1.3432238E+000	-2.7039801E+002
3	0	2.817665961754392E+002	1.3429455E+000	-2.7039447E+002
3	0	2.822665961628081E+002	1.3426815E+000	-2.7036267E+002
3	0	2.827665961501771E+002	1.3424215E+000	-2.7038742E+002
3	0	2.832665961375460E+002	1.3421018E+000	-2.7036618E+002
3	0	2.837665961249149E+002	1.3417625E+000	-2.7039801E+002
3	0	2.842665961122839E+002	1.3415334E+000	-2.7036972E+002
3	0	2.847665960996528E+002	1.3413337E+000	-2.7038385E+002
3	0	2.852665960870218E+002	1.3411368E+000	-2.7036618E+002
3	0	2.857665960743907E+002	1.3409542E+000	-2.7038385E+002
3	0	2.862665960617596E+002	1.3407655E+000	-2.7038385E+002
3	0	2.867665960491286E+002	1.3405447E+000	-2.7035913E+002
3	0	2.872665960364975E+002	1.3402565E+000	-2.7036972E+002
3	0	2.877665960238664E+002	1.3399299E+000	-2.7037326E+002
3	0	2.882665960112354E+002	1.3397077E+000	-2.7036618E+002
3	0	2.887665959986043E+002	1.3395081E+000	-2.7037326E+002
3	0	2.892665959859733E+002	1.3393083E+000	-2.7039093E+002
3	0	2.897665959733422E+002	1.3391089E+000	-2.7040860E+002
3	0	2.902665959607111E+002	1.3389015E+000	-2.7036618E+002
3	0	2.907665959480801E+002	1.3386445E+000	-2.7038742E+002
3	0	2.912665959354490E+002	1.3383247E+000	-2.7038385E+002
3	0	2.917665959228179E+002	1.3379676E+000	-2.7039447E+002
3	0	2.922665959101869E+002	1.3377001E+000	-2.7037677E+002
3	0	2.927665958975558E+002	1.3374550E+000	-2.7038031E+002
3	0	2.932665958849248E+002	1.3372124E+000	-2.7035559E+002
3	0	2.937665958722937E+002	1.3369684E+000	-2.7039801E+002
3	0	2.942665958596626E+002	1.3367211E+000	-2.7038742E+002
3	0	2.947665958470316E+002	1.3364407E+000	-2.7038742E+002
3	0	2.952665958344005E+002	1.3360844E+000	-2.7038385E+002
3	0	2.957665958217694E+002	1.3357004E+000	-2.7038031E+002
3	0	2.962665958091384E+002	1.3354094E+000	-2.7038385E+002
3	0	2.967665957965073E+002	1.3351346E+000	-2.7039447E+002
3	0	2.972665957838763E+002	1.3348626E+000	-2.7036618E+002
3	0	2.977665957712452E+002	1.3345810E+000	-2.7037326E+002
3	0	2.982665957586141E+002	1.3342993E+000	-2.7036618E+002
3	0	2.987665957459831E+002	1.3339792E+000	-2.7039801E+002
3	0	2.992665957333520E+002	1.3335822E+000	-2.7038385E+002
3	0	2.997665957207209E+002	1.3331583E+000	-2.7036972E+002
3	0	3.002665957080899E+002	1.3328320E+000	-2.7037326E+002
3	0	3.007665956954588E+002	1.3325419E+000	-2.7036618E+002
3	0	3.012665956828278E+002	1.3322724E+000	-2.7039093E+002
3	0	3.017665956701967E+002	1.3320175E+000	-2.7038031E+002
3	0	3.022665956575656E+002	1.3317820E+000	-2.7035559E+002
3	0	3.027665956449346E+002	1.3315297E+000	-2.7036972E+002
3	0	3.032665956323035E+002	1.3312166E+000	-2.7039093E+002
3	0	3.037665956196724E+002	1.3308965E+000	-2.7038031E+002
3	0	3.042665956070414E+002	1.3306818E+000	-2.7036618E+002
3	0	3.047665955944103E+002	1.3305024E+000	-2.7036972E+002
3	0	3.052665955817793E+002	1.3303334E+000	-2.7038031E+002
3	0	3.057665955691482E+002	1.3301594E+000	-2.7037677E+002
3	0	3.062665955565171E+002	1.3299934E+000	-2.7039093E+002
3	0	3.067665955438861E+002	1.3297958E+000	-2.7036267E+002
3	0	3.072665955312550E+002	1.3295226E+000	-2.7038031E+002
3	0	3.077665955186239E+002	1.3292296E+000	-2.7039447E+002
3	0	3.082665955059929E+002	1.3290191E+000	-2.7040155E+002
3	0	3.087665954933618E+002	1.3288251E+000	-2.7038742E+002
3	0	3.092665954807308E+002	1.3286380E+000	-2.7037326E+002
3	0	3.097665954680997E+002	1.3284377E+000	-2.7038385E+002
3	0	3.102665954554686E+002	1.3282259E+000	-2.7039093E+002
3	0	3.107665954428376E+002	1.3279738E+000	-2.7038742E+002
3	0	3.112665954302065E+002	1.3276540E+000	-2.7035913E+002
3	0	3.117665954175754E+002	1.3273038E+000	-2.7039447E+002
3	0	3.122665954049444E+002	1.3270420E+000	-2.7037677E+002
3	0	3.127665953923133E+002	1.3268105E+000	-2.7036972E+002
3	0	3.132665953796823E+002	1.3265891E+000	-2.7038742E+002
3	0	3.137665953670512E+002	1.3263428E+000	-2.7037677E+002
3	0	3.142665953544201E+002	1.3261089E+000	-2.7038742E+002
3	0	3.147665953417891E+002	1.3258178E+000	-2.7038742E+002
3	0	3.152665953291580E+002	1.3254591E+000	-2.7036618E+002
3	0	3.152669953291479E+002	1.3253397E+000	-2.7039801E+002