EC-Lab ASCII FILE
Nb header lines : 55                          

Open Circuit Voltage

Run on channel : 1 (SN 81504)
User : 
CE vs. WE compliance from -10 V to 10 V
Electrode connection : standard
Potential control : Ewe
Ewe ctrl range : min = -2.50 V, max = 2.50 V
Safety Limits :
	Do not start on E overload
Acquisition started on : 05/10/2026 03:03:02.549
Loaded Setting File :  C:\PEM-WE_measurements\2026\372_IV_IV IrOx, 5 min Pt, 30 min C, etched cathode\new station\Loopeis new\1,46 V different time gaps closed cell\Loopeis 1,46V_60s_5_PEIS from 65Hz to 10Hz.mps
Saved on :
	File : L_15_Loopeis 1,46V_60s_5_PEIS from 65Hz to 10Hz_04_OCV_C01.mpr
	Directory : C:\PEM-WE_measurements\2026\372_IV_IV IrOx, 5 min Pt, 30 min C, etched cathode\new station\Loopeis new\1,46 V different time gaps closed cell\
	Host : 192.168.0.2
Device : SP-150e (SN .005491)
Address : 192.168.0.91
EC-LAB for windows v11.71 (software)
Internet server v28.00 (firmware)
Command interpretor v14.01 (firmware)
Electrode material : 
Initial state : 
Electrolyte : 
Comments : 
Current amplifier : SP-150eB-20A
Electrode surface area : 0.001 cm²
Characteristic mass : 0.001 g
Equivalent Weight : 0.000 g/eq.
Density : 0.000 g/cm3
Volume (V) : 0.001 cm³
Record Analogic IN 1
Text export
   Mode : Standard
   Time format : Elapsed
Cycle Definition : Charge/Discharge alternance
External device configuration :
   device type : Temperature Probe
   device name : Other
   Analog IN 1 : 
      unit : T/Â°C
      max : 100.000 at 2.000 V
      min : 0.000 at 1.460 V
tR (h:m:s)          0:01:0.0000         
dER/dt (mV/h)       1.0                 
record              <Ewe>               
dER (mV)            10.00               
dtR (s)             0.5000              
E range min (V)     -2.500              
E range max (V)     2.500               

mode	error	time/s	<Ewe/V>	Analog IN 1/V	
3	0	1.507425994853838E+002	1.1746892E+000	-2.7036618E+002
3	0	1.512425994727528E+002	1.2599356E+000	-2.7038742E+002
3	0	1.517425994601217E+002	1.2635100E+000	-2.7038385E+002
3	0	1.522425994474906E+002	1.2655319E+000	-2.7038385E+002
3	0	1.527425994348596E+002	1.2668034E+000	-2.7039093E+002
3	0	1.532425994222285E+002	1.2676336E+000	-2.7036972E+002
3	0	1.537425994095975E+002	1.2681725E+000	-2.7039447E+002
3	0	1.542425993969664E+002	1.2685097E+000	-2.7037677E+002
3	0	1.547425993843353E+002	1.2686741E+000	-2.7039447E+002
3	0	1.552425993717043E+002	1.2686762E+000	-2.7039801E+002
3	0	1.557425993590732E+002	1.2685671E+000	-2.7035913E+002
3	0	1.562425993464421E+002	1.2684792E+000	-2.7035913E+002
3	0	1.567425993338111E+002	1.2683671E+000	-2.7038385E+002
3	0	1.572425993211800E+002	1.2682211E+000	-2.7039447E+002
3	0	1.577425993085490E+002	1.2680531E+000	-2.7036618E+002
3	0	1.582425992959179E+002	1.2678609E+000	-2.7035913E+002
3	0	1.587425992832868E+002	1.2676319E+000	-2.7038031E+002
3	0	1.592425992706558E+002	1.2673264E+000	-2.7038742E+002
3	0	1.597425992580247E+002	1.2669973E+000	-2.7036972E+002
3	0	1.602425992453936E+002	1.2667791E+000	-2.7039447E+002
3	0	1.607425992327626E+002	1.2666045E+000	-2.7038742E+002
3	0	1.612425992201315E+002	1.2664571E+000	-2.7038742E+002
3	0	1.617425992075005E+002	1.2663454E+000	-2.7037326E+002
3	0	1.622425991948694E+002	1.2662697E+000	-2.7038385E+002
3	0	1.627425991822383E+002	1.2661967E+000	-2.7037677E+002
3	0	1.632425991696073E+002	1.2660766E+000	-2.7037326E+002
3	0	1.637425991569762E+002	1.2659438E+000	-2.7036972E+002
3	0	1.642425991443451E+002	1.2659370E+000	-2.7036972E+002
3	0	1.647425991317141E+002	1.2659807E+000	-2.7037677E+002
3	0	1.652425991190830E+002	1.2660326E+000	-2.7040860E+002
3	0	1.657425991064520E+002	1.2660984E+000	-2.7039093E+002
3	0	1.662425990938209E+002	1.2661786E+000	-2.7038385E+002
3	0	1.667425990811898E+002	1.2662281E+000	-2.7036267E+002
3	0	1.672425990685588E+002	1.2662033E+000	-2.7038385E+002
3	0	1.677425990559277E+002	1.2661387E+000	-2.7038385E+002
3	0	1.682425990432967E+002	1.2661773E+000	-2.7036972E+002
3	0	1.687425990306656E+002	1.2662463E+000	-2.7037677E+002
3	0	1.692425990180345E+002	1.2663108E+000	-2.7038031E+002
3	0	1.697425990054035E+002	1.2663615E+000	-2.7037326E+002
3	0	1.702425989927724E+002	1.2664154E+000	-2.7037326E+002
3	0	1.707425989801413E+002	1.2664328E+000	-2.7035913E+002
3	0	1.712425989675103E+002	1.2663561E+000	-2.7038031E+002
3	0	1.717425989548792E+002	1.2662470E+000	-2.7037677E+002
3	0	1.722425989422482E+002	1.2662305E+000	-2.7040860E+002
3	0	1.727425989296171E+002	1.2662437E+000	-2.7037326E+002
3	0	1.732425989169860E+002	1.2662486E+000	-2.7036267E+002
3	0	1.737425989043550E+002	1.2662443E+000	-2.7038385E+002
3	0	1.742425988917239E+002	1.2662398E+000	-2.7037677E+002
3	0	1.747425988790928E+002	1.2662014E+000	-2.7037326E+002
3	0	1.752425988664618E+002	1.2660743E+000	-2.7036972E+002
3	0	1.757425988538307E+002	1.2659116E+000	-2.7039093E+002
3	0	1.762425988411997E+002	1.2658466E+000	-2.7035559E+002
3	0	1.767425988285686E+002	1.2658106E+000	-2.7037326E+002
3	0	1.772425988159375E+002	1.2657603E+000	-2.7037326E+002
3	0	1.777425988033065E+002	1.2657024E+000	-2.7038385E+002
3	0	1.782425987906754E+002	1.2656382E+000	-2.7035913E+002
3	0	1.787425987780443E+002	1.2655399E+000	-2.7037677E+002
3	0	1.792425987654133E+002	1.2653648E+000	-2.7035559E+002
3	0	1.797425987527822E+002	1.2651629E+000	-2.7040860E+002
3	0	1.802425987401512E+002	1.2650670E+000	-2.7037677E+002
3	0	1.807425987275201E+002	1.2650132E+000	-2.7036972E+002
3	0	1.812425987148890E+002	1.2649647E+000	-2.7035205E+002
3	0	1.817425987022580E+002	1.2649418E+000	-2.7035913E+002
3	0	1.822425986896269E+002	1.2649164E+000	-2.7039447E+002
3	0	1.827425986769958E+002	1.2648779E+000	-2.7035559E+002
3	0	1.832425986643648E+002	1.2647600E+000	-2.7037326E+002
3	0	1.837425986517337E+002	1.2646245E+000	-2.7036267E+002
3	0	1.842425986391027E+002	1.2645811E+000	-2.7036972E+002
3	0	1.847425986264716E+002	1.2645754E+000	-2.7038031E+002
3	0	1.852425986138405E+002	1.2645569E+000	-2.7037326E+002
3	0	1.857425986012095E+002	1.2645440E+000	-2.7038031E+002
3	0	1.862425985885784E+002	1.2645397E+000	-2.7036267E+002
3	0	1.867425985759473E+002	1.2644826E+000	-2.7037677E+002
3	0	1.872425985633163E+002	1.2643510E+000	-2.7038031E+002
3	0	1.877425985506852E+002	1.2641966E+000	-2.7037326E+002
3	0	1.882425985380542E+002	1.2641160E+000	-2.7036972E+002
3	0	1.887425985254231E+002	1.2640617E+000	-2.7038742E+002
3	0	1.892425985127920E+002	1.2639978E+000	-2.7037677E+002
3	0	1.897425985001610E+002	1.2639259E+000	-2.7038385E+002
3	0	1.902425984875299E+002	1.2638386E+000	-2.7038742E+002
3	0	1.907425984748988E+002	1.2637142E+000	-2.7040155E+002
3	0	1.912425984622678E+002	1.2635123E+000	-2.7038742E+002
3	0	1.917425984496367E+002	1.2632843E+000	-2.7039801E+002
3	0	1.922425984370057E+002	1.2631347E+000	-2.7038742E+002
3	0	1.927425984243746E+002	1.2630159E+000	-2.7036972E+002
3	0	1.932425984117435E+002	1.2628863E+000	-2.7039801E+002
3	0	1.937425983991125E+002	1.2627578E+000	-2.7039447E+002
3	0	1.942425983864814E+002	1.2626172E+000	-2.7040155E+002
3	0	1.947425983738503E+002	1.2624438E+000	-2.7038385E+002
3	0	1.952425983612193E+002	1.2621977E+000	-2.7036972E+002
3	0	1.957425983485882E+002	1.2619168E+000	-2.7039447E+002
3	0	1.962425983359572E+002	1.2617304E+000	-2.7040506E+002
3	0	1.967425983233261E+002	1.2615703E+000	-2.7037326E+002
3	0	1.972425983106950E+002	1.2613938E+000	-2.7037326E+002
3	0	1.977425982980640E+002	1.2612168E+000	-2.7036972E+002
3	0	1.982425982854329E+002	1.2610424E+000	-2.7037326E+002
3	0	1.987425982728018E+002	1.2608165E+000	-2.7036972E+002
3	0	1.992425982601708E+002	1.2605373E+000	-2.7038385E+002
3	0	1.997425982475397E+002	1.2602226E+000	-2.7037326E+002
3	0	2.002425982349087E+002	1.2600139E+000	-2.7038031E+002
3	0	2.007425982222776E+002	1.2598499E+000	-2.7038385E+002
3	0	2.012425982096465E+002	1.2596892E+000	-2.7037326E+002
3	0	2.017425981970155E+002	1.2595557E+000	-2.7038031E+002
3	0	2.022425981843844E+002	1.2594377E+000	-2.7036972E+002
3	0	2.027425981717533E+002	1.2592976E+000	-2.7036267E+002
3	0	2.032425981591223E+002	1.2591029E+000	-2.7038031E+002
3	0	2.037425981464912E+002	1.2588886E+000	-2.7038742E+002
3	0	2.042425981338602E+002	1.2587683E+000	-2.7036972E+002
3	0	2.047425981212291E+002	1.2586805E+000	-2.7039447E+002
3	0	2.052425981085980E+002	1.2585968E+000	-2.7037326E+002
3	0	2.057425980959670E+002	1.2585140E+000	-2.7039801E+002
3	0	2.062425980833359E+002	1.2584386E+000	-2.7036972E+002
3	0	2.067425980707048E+002	1.2583216E+000	-2.7035913E+002
3	0	2.072425980580738E+002	1.2581255E+000	-2.7037677E+002
3	0	2.077425980454427E+002	1.2578973E+000	-2.7039447E+002
3	0	2.082425980328117E+002	1.2577506E+000	-2.7038742E+002
3	0	2.087425980201806E+002	1.2576348E+000	-2.7036618E+002
3	0	2.092425980075495E+002	1.2575152E+000	-2.7038385E+002
3	0	2.097425979949185E+002	1.2573699E+000	-2.7035559E+002
3	0	2.102425979822874E+002	1.2572436E+000	-2.7036618E+002
3	0	2.102659979816963E+002	1.2571602E+000	-2.7039093E+002