EC-Lab ASCII FILE
Nb header lines : 55                          

Open Circuit Voltage

Run on channel : 1 (SN 81504)
User : 
CE vs. WE compliance from -10 V to 10 V
Electrode connection : standard
Potential control : Ewe
Ewe ctrl range : min = -2.50 V, max = 2.50 V
Safety Limits :
	Do not start on E overload
Acquisition started on : 05/10/2026 03:03:02.549
Loaded Setting File :  C:\PEM-WE_measurements\2026\372_IV_IV IrOx, 5 min Pt, 30 min C, etched cathode\new station\Loopeis new\1,46 V different time gaps closed cell\Loopeis 1,46V_60s_5_PEIS from 65Hz to 10Hz.mps
Saved on :
	File : L_15_Loopeis 1,46V_60s_5_PEIS from 65Hz to 10Hz_16_OCV_C01.mpr
	Directory : C:\PEM-WE_measurements\2026\372_IV_IV IrOx, 5 min Pt, 30 min C, etched cathode\new station\Loopeis new\1,46 V different time gaps closed cell\
	Host : 192.168.0.2
Device : SP-150e (SN .005491)
Address : 192.168.0.91
EC-LAB for windows v11.71 (software)
Internet server v28.00 (firmware)
Command interpretor v14.01 (firmware)
Electrode material : 
Initial state : 
Electrolyte : 
Comments : 
Current amplifier : SP-150eB-20A
Electrode surface area : 0.001 cm²
Characteristic mass : 0.001 g
Equivalent Weight : 0.000 g/eq.
Density : 0.000 g/cm3
Volume (V) : 0.001 cm³
Record Analogic IN 1
Text export
   Mode : Standard
   Time format : Elapsed
Cycle Definition : Charge/Discharge alternance
External device configuration :
   device type : Temperature Probe
   device name : Other
   Analog IN 1 : 
      unit : T/Â°C
      max : 100.000 at 2.000 V
      min : 0.000 at 1.460 V
tR (h:m:s)          0:01:0.0000         
dER/dt (mV/h)       1.0                 
record              <Ewe>               
dER (mV)            10.00               
dtR (s)             0.5000              
E range min (V)     -2.500              
E range max (V)     2.500               

mode	error	time/s	<Ewe/V>	Analog IN 1/V	
3	0	1.263619816327919E+003	1.2502797E+000	-2.7040155E+002
3	0	1.264119816315288E+003	1.2597961E+000	-2.7036618E+002
3	0	1.264619816302657E+003	1.2635381E+000	-2.7036972E+002
3	0	1.265119816290025E+003	1.2656015E+000	-2.7038742E+002
3	0	1.265619816277394E+003	1.2669009E+000	-2.7040155E+002
3	0	1.266119816264763E+003	1.2677202E+000	-2.7039093E+002
3	0	1.266619816252132E+003	1.2682002E+000	-2.7039801E+002
3	0	1.267119816239501E+003	1.2684708E+000	-2.7036618E+002
3	0	1.267619816226870E+003	1.2686838E+000	-2.7035913E+002
3	0	1.268119816214239E+003	1.2688061E+000	-2.7035913E+002
3	0	1.268619816201608E+003	1.2688558E+000	-2.7039447E+002
3	0	1.269119816188977E+003	1.2688720E+000	-2.7036618E+002
3	0	1.269619816176346E+003	1.2688383E+000	-2.7036618E+002
3	0	1.270119816163715E+003	1.2687629E+000	-2.7037326E+002
3	0	1.270619816151084E+003	1.2686099E+000	-2.7036972E+002
3	0	1.271119816138453E+003	1.2684230E+000	-2.7037677E+002
3	0	1.271619816125822E+003	1.2683116E+000	-2.7036267E+002
3	0	1.272119816113191E+003	1.2682139E+000	-2.7038742E+002
3	0	1.272619816100560E+003	1.2681122E+000	-2.7037326E+002
3	0	1.273119816087928E+003	1.2680173E+000	-2.7037677E+002
3	0	1.273619816075297E+003	1.2679329E+000	-2.7038031E+002
3	0	1.274119816062666E+003	1.2678224E+000	-2.7040155E+002
3	0	1.274619816050035E+003	1.2676417E+000	-2.7036267E+002
3	0	1.275119816037404E+003	1.2674488E+000	-2.7037326E+002
3	0	1.275619816024773E+003	1.2673564E+000	-2.7041214E+002
3	0	1.276119816012142E+003	1.2672733E+000	-2.7038385E+002
3	0	1.276619815999511E+003	1.2671984E+000	-2.7035205E+002
3	0	1.277119815986880E+003	1.2671397E+000	-2.7040506E+002
3	0	1.277619815974249E+003	1.2670865E+000	-2.7038385E+002
3	0	1.278119815961618E+003	1.2670090E+000	-2.7039093E+002
3	0	1.278619815948987E+003	1.2668670E+000	-2.7037326E+002
3	0	1.279119815936356E+003	1.2666914E+000	-2.7037677E+002
3	0	1.279619815923725E+003	1.2666162E+000	-2.7038031E+002
3	0	1.280119815911094E+003	1.2665464E+000	-2.7040155E+002
3	0	1.280619815898463E+003	1.2664809E+000	-2.7038742E+002
3	0	1.281119815885831E+003	1.2664323E+000	-2.7039447E+002
3	0	1.281619815873200E+003	1.2663738E+000	-2.7036972E+002
3	0	1.282119815860569E+003	1.2662876E+000	-2.7034497E+002
3	0	1.282619815847938E+003	1.2661397E+000	-2.7038742E+002
3	0	1.283119815835307E+003	1.2659543E+000	-2.7038742E+002
3	0	1.283619815822676E+003	1.2658700E+000	-2.7037677E+002
3	0	1.284119815810045E+003	1.2657956E+000	-2.7037326E+002
3	0	1.284619815797414E+003	1.2657182E+000	-2.7039447E+002
3	0	1.285119815784783E+003	1.2656529E+000	-2.7036618E+002
3	0	1.285619815772152E+003	1.2655813E+000	-2.7038742E+002
3	0	1.286119815759521E+003	1.2654878E+000	-2.7036618E+002
3	0	1.286619815746890E+003	1.2653179E+000	-2.7036972E+002
3	0	1.287119815734259E+003	1.2651253E+000	-2.7038742E+002
3	0	1.287619815721628E+003	1.2650416E+000	-2.7038031E+002
3	0	1.288119815708997E+003	1.2649782E+000	-2.7038385E+002
3	0	1.288619815696366E+003	1.2649420E+000	-2.7036618E+002
3	0	1.289119815683734E+003	1.2649177E+000	-2.7034143E+002
3	0	1.289619815671103E+003	1.2649126E+000	-2.7039093E+002
3	0	1.290119815658472E+003	1.2648863E+000	-2.7037326E+002
3	0	1.290619815645841E+003	1.2647864E+000	-2.7036618E+002
3	0	1.291119815633210E+003	1.2646520E+000	-2.7039093E+002
3	0	1.291619815620579E+003	1.2646153E+000	-2.7038031E+002
3	0	1.292119815607948E+003	1.2645901E+000	-2.7041568E+002
3	0	1.292619815595317E+003	1.2645662E+000	-2.7037677E+002
3	0	1.293119815582686E+003	1.2645482E+000	-2.7038742E+002
3	0	1.293619815570055E+003	1.2645175E+000	-2.7036972E+002
3	0	1.294119815557424E+003	1.2644519E+000	-2.7036267E+002
3	0	1.294619815544793E+003	1.2643120E+000	-2.7038031E+002
3	0	1.295119815532162E+003	1.2641289E+000	-2.7038385E+002
3	0	1.295619815519531E+003	1.2640338E+000	-2.7036267E+002
3	0	1.296119815506900E+003	1.2639468E+000	-2.7039447E+002
3	0	1.296619815494269E+003	1.2638640E+000	-2.7039801E+002
3	0	1.297119815481637E+003	1.2637683E+000	-2.7039093E+002
3	0	1.297619815469006E+003	1.2636676E+000	-2.7038742E+002
3	0	1.298119815456375E+003	1.2635318E+000	-2.7039093E+002
3	0	1.298619815443744E+003	1.2633326E+000	-2.7037677E+002
3	0	1.299119815431113E+003	1.2630814E+000	-2.7039093E+002
3	0	1.299619815418482E+003	1.2629241E+000	-2.7035913E+002
3	0	1.300119815405851E+003	1.2627699E+000	-2.7038385E+002
3	0	1.300619815393220E+003	1.2626162E+000	-2.7036972E+002
3	0	1.301119815380589E+003	1.2624534E+000	-2.7036972E+002
3	0	1.301619815367958E+003	1.2622888E+000	-2.7036618E+002
3	0	1.302119815355327E+003	1.2621003E+000	-2.7038742E+002
3	0	1.302619815342696E+003	1.2618372E+000	-2.7040506E+002
3	0	1.303119815330065E+003	1.2615302E+000	-2.7036618E+002
3	0	1.303619815317434E+003	1.2613177E+000	-2.7037326E+002
3	0	1.304119815304803E+003	1.2611134E+000	-2.7037326E+002
3	0	1.304619815292172E+003	1.2609137E+000	-2.7037677E+002
3	0	1.305119815279540E+003	1.2607152E+000	-2.7036972E+002
3	0	1.305619815266909E+003	1.2605046E+000	-2.7038385E+002
3	0	1.306119815254278E+003	1.2602675E+000	-2.7037326E+002
3	0	1.306619815241647E+003	1.2599741E+000	-2.7038385E+002
3	0	1.307119815229016E+003	1.2596514E+000	-2.7035913E+002
3	0	1.307619815216385E+003	1.2594413E+000	-2.7037677E+002
3	0	1.308119815203754E+003	1.2592559E+000	-2.7038385E+002
3	0	1.308619815191123E+003	1.2590870E+000	-2.7037326E+002
3	0	1.309119815178492E+003	1.2589287E+000	-2.7036267E+002
3	0	1.309619815165861E+003	1.2587391E+000	-2.7038742E+002
3	0	1.310119815153230E+003	1.2585070E+000	-2.7039447E+002
3	0	1.310619815140599E+003	1.2583197E+000	-2.7036618E+002
3	0	1.311119815127968E+003	1.2581015E+000	-2.7037677E+002
3	0	1.311619815115337E+003	1.2579801E+000	-2.7038385E+002
3	0	1.312119815102706E+003	1.2578759E+000	-2.7038742E+002
3	0	1.312619815090075E+003	1.2577554E+000	-2.7040506E+002
3	0	1.313119815077443E+003	1.2576340E+000	-2.7038031E+002
3	0	1.313619815064812E+003	1.2575136E+000	-2.7038385E+002
3	0	1.314119815052181E+003	1.2573519E+000	-2.7038031E+002
3	0	1.314619815039550E+003	1.2571040E+000	-2.7038031E+002
3	0	1.315119815026919E+003	1.2568098E+000	-2.7035559E+002
3	0	1.315619815014288E+003	1.2566121E+000	-2.7038031E+002
3	0	1.316119815001657E+003	1.2564541E+000	-2.7038742E+002
3	0	1.316619814989026E+003	1.2562941E+000	-2.7037326E+002
3	0	1.317119814976395E+003	1.2561206E+000	-2.7036972E+002
3	0	1.317619814963764E+003	1.2559385E+000	-2.7039447E+002
3	0	1.318119814951133E+003	1.2557149E+000	-2.7038031E+002
3	0	1.318619814938502E+003	1.2554202E+000	-2.7040506E+002
3	0	1.319119814925871E+003	1.2550839E+000	-2.7037677E+002
3	0	1.319619814913240E+003	1.2548426E+000	-2.7037326E+002
3	0	1.320119814900609E+003	1.2546450E+000	-2.7038385E+002
3	0	1.320619814887978E+003	1.2544347E+000	-2.7036267E+002
3	0	1.321119814875346E+003	1.2542233E+000	-2.7038031E+002
3	0	1.321619814862715E+003	1.2540027E+000	-2.7037677E+002
3	0	1.322119814850084E+003	1.2537521E+000	-2.7042627E+002
3	0	1.322619814837453E+003	1.2534125E+000	-2.7037326E+002
3	0	1.323119814824822E+003	1.2530499E+000	-2.7038031E+002
3	0	1.323144414824201E+003	1.2528902E+000	-2.7038385E+002