EC-Lab ASCII FILE
Nb header lines : 55                          

Open Circuit Voltage

Run on channel : 1 (SN 81504)
User : 
CE vs. WE compliance from -10 V to 10 V
Electrode connection : standard
Potential control : Ewe
Ewe ctrl range : min = -2.50 V, max = 2.50 V
Safety Limits :
	Do not start on E overload
Acquisition started on : 05/10/2026 03:03:02.549
Loaded Setting File :  C:\PEM-WE_measurements\2026\372_IV_IV IrOx, 5 min Pt, 30 min C, etched cathode\new station\Loopeis new\1,46 V different time gaps closed cell\Loopeis 1,46V_60s_5_PEIS from 65Hz to 10Hz.mps
Saved on :
	File : L_15_Loopeis 1,46V_60s_5_PEIS from 65Hz to 10Hz_14_OCV_C01.mpr
	Directory : C:\PEM-WE_measurements\2026\372_IV_IV IrOx, 5 min Pt, 30 min C, etched cathode\new station\Loopeis new\1,46 V different time gaps closed cell\
	Host : 192.168.0.2
Device : SP-150e (SN .005491)
Address : 192.168.0.91
EC-LAB for windows v11.71 (software)
Internet server v28.00 (firmware)
Command interpretor v14.01 (firmware)
Electrode material : 
Initial state : 
Electrolyte : 
Comments : 
Current amplifier : SP-150eB-20A
Electrode surface area : 0.001 cm²
Characteristic mass : 0.001 g
Equivalent Weight : 0.000 g/eq.
Density : 0.000 g/cm3
Volume (V) : 0.001 cm³
Record Analogic IN 1
Text export
   Mode : Standard
   Time format : Elapsed
Cycle Definition : Charge/Discharge alternance
External device configuration :
   device type : Temperature Probe
   device name : Other
   Analog IN 1 : 
      unit : T/Â°C
      max : 100.000 at 2.000 V
      min : 0.000 at 1.460 V
tR (h:m:s)          0:01:0.0000         
dER/dt (mV/h)       1.0                 
record              <Ewe>               
dER (mV)            10.00               
dtR (s)             0.5000              
E range min (V)     -2.500              
E range max (V)     2.500               

mode	error	time/s	<Ewe/V>	Analog IN 1/V	
3	0	1.156717215614190E+003	1.4151891E+000	-2.7036972E+002
3	0	1.157217215601559E+003	1.4059789E+000	-2.7038031E+002
3	0	1.157717215588928E+003	1.3998302E+000	-2.7039447E+002
3	0	1.158217215576296E+003	1.3952762E+000	-2.7037326E+002
3	0	1.158717215563665E+003	1.3915123E+000	-2.7036972E+002
3	0	1.159217215551034E+003	1.3882493E+000	-2.7038385E+002
3	0	1.159717215538403E+003	1.3854665E+000	-2.7036618E+002
3	0	1.160217215525772E+003	1.3830047E+000	-2.7035559E+002
3	0	1.160717215513141E+003	1.3807650E+000	-2.7037677E+002
3	0	1.161217215500510E+003	1.3787262E+000	-2.7037677E+002
3	0	1.161717215487879E+003	1.3768445E+000	-2.7037677E+002
3	0	1.162217215475248E+003	1.3750782E+000	-2.7036972E+002
3	0	1.162717215462617E+003	1.3733693E+000	-2.7036972E+002
3	0	1.163217215449986E+003	1.3717101E+000	-2.7038742E+002
3	0	1.163717215437355E+003	1.3702362E+000	-2.7037677E+002
3	0	1.164217215424724E+003	1.3688701E+000	-2.7035559E+002
3	0	1.164717215412093E+003	1.3675789E+000	-2.7038385E+002
3	0	1.165217215399462E+003	1.3663620E+000	-2.7036618E+002
3	0	1.165717215386831E+003	1.3652329E+000	-2.7036267E+002
3	0	1.166217215374199E+003	1.3641344E+000	-2.7038385E+002
3	0	1.166717215361568E+003	1.3630236E+000	-2.7039093E+002
3	0	1.167217215348937E+003	1.3619366E+000	-2.7036972E+002
3	0	1.167717215336306E+003	1.3610141E+000	-2.7037677E+002
3	0	1.168217215323675E+003	1.3601757E+000	-2.7037326E+002
3	0	1.168717215311044E+003	1.3593843E+000	-2.7036618E+002
3	0	1.169217215298413E+003	1.3586431E+000	-2.7038742E+002
3	0	1.169717215285782E+003	1.3579665E+000	-2.7038742E+002
3	0	1.170217215273151E+003	1.3573061E+000	-2.7039093E+002
3	0	1.170717215260520E+003	1.3566155E+000	-2.7037677E+002
3	0	1.171217215247889E+003	1.3559197E+000	-2.7038385E+002
3	0	1.171717215235258E+003	1.3553576E+000	-2.7037677E+002
3	0	1.172217215222627E+003	1.3548311E+000	-2.7036972E+002
3	0	1.172717215209996E+003	1.3543304E+000	-2.7039447E+002
3	0	1.173217215197365E+003	1.3538514E+000	-2.7036618E+002
3	0	1.173717215184734E+003	1.3534021E+000	-2.7034851E+002
3	0	1.174217215172102E+003	1.3529332E+000	-2.7038031E+002
3	0	1.174717215159471E+003	1.3524133E+000	-2.7037326E+002
3	0	1.175217215146840E+003	1.3518760E+000	-2.7039093E+002
3	0	1.175717215134209E+003	1.3514402E+000	-2.7037326E+002
3	0	1.176217215121578E+003	1.3510309E+000	-2.7038742E+002
3	0	1.176717215108947E+003	1.3506371E+000	-2.7038385E+002
3	0	1.177217215096316E+003	1.3502502E+000	-2.7038742E+002
3	0	1.177717215083685E+003	1.3498862E+000	-2.7038385E+002
3	0	1.178217215071054E+003	1.3494956E+000	-2.7038385E+002
3	0	1.178717215058423E+003	1.3490252E+000	-2.7035913E+002
3	0	1.179217215045792E+003	1.3485289E+000	-2.7038742E+002
3	0	1.179717215033161E+003	1.3481402E+000	-2.7036972E+002
3	0	1.180217215020530E+003	1.3477635E+000	-2.7039093E+002
3	0	1.180717215007899E+003	1.3473952E+000	-2.7040155E+002
3	0	1.181217214995268E+003	1.3470433E+000	-2.7035913E+002
3	0	1.181717214982637E+003	1.3466984E+000	-2.7038742E+002
3	0	1.182217214970005E+003	1.3463311E+000	-2.7038031E+002
3	0	1.182717214957374E+003	1.3459156E+000	-2.7038742E+002
3	0	1.183217214944743E+003	1.3454528E+000	-2.7038742E+002
3	0	1.183717214932112E+003	1.3450893E+000	-2.7039447E+002
3	0	1.184217214919481E+003	1.3447368E+000	-2.7039447E+002
3	0	1.184717214906850E+003	1.3443869E+000	-2.7037677E+002
3	0	1.185217214894219E+003	1.3440423E+000	-2.7037326E+002
3	0	1.185717214881588E+003	1.3437111E+000	-2.7036618E+002
3	0	1.186217214868957E+003	1.3433646E+000	-2.7040506E+002
3	0	1.186717214856326E+003	1.3429611E+000	-2.7038385E+002
3	0	1.187217214843695E+003	1.3425261E+000	-2.7036267E+002
3	0	1.187717214831064E+003	1.3422140E+000	-2.7036267E+002
3	0	1.188217214818433E+003	1.3419261E+000	-2.7036972E+002
3	0	1.188717214805802E+003	1.3416563E+000	-2.7038031E+002
3	0	1.189217214793171E+003	1.3414061E+000	-2.7036618E+002
3	0	1.189717214780540E+003	1.3411671E+000	-2.7039447E+002
3	0	1.190217214767908E+003	1.3409007E+000	-2.7037677E+002
3	0	1.190717214755277E+003	1.3405740E+000	-2.7038742E+002
3	0	1.191217214742646E+003	1.3402201E+000	-2.7038385E+002
3	0	1.191717214730015E+003	1.3399590E+000	-2.7040155E+002
3	0	1.192217214717384E+003	1.3397051E+000	-2.7037326E+002
3	0	1.192717214704753E+003	1.3394672E+000	-2.7037326E+002
3	0	1.193217214692122E+003	1.3392210E+000	-2.7039801E+002
3	0	1.193717214679491E+003	1.3389820E+000	-2.7037677E+002
3	0	1.194217214666860E+003	1.3387183E+000	-2.7038385E+002
3	0	1.194717214654229E+003	1.3383887E+000	-2.7039447E+002
3	0	1.195217214641598E+003	1.3380156E+000	-2.7036972E+002
3	0	1.195717214628967E+003	1.3377342E+000	-2.7037326E+002
3	0	1.196217214616336E+003	1.3374561E+000	-2.7036618E+002
3	0	1.196717214603705E+003	1.3371743E+000	-2.7038742E+002
3	0	1.197217214591074E+003	1.3368967E+000	-2.7038031E+002
3	0	1.197717214578443E+003	1.3366270E+000	-2.7036618E+002
3	0	1.198217214565811E+003	1.3363322E+000	-2.7035559E+002
3	0	1.198717214553180E+003	1.3359665E+000	-2.7038385E+002
3	0	1.199217214540549E+003	1.3355703E+000	-2.7039093E+002
3	0	1.199717214527918E+003	1.3352669E+000	-2.7038385E+002
3	0	1.200217214515287E+003	1.3349713E+000	-2.7039447E+002
3	0	1.200717214502656E+003	1.3346690E+000	-2.7038385E+002
3	0	1.201217214490025E+003	1.3343740E+000	-2.7037326E+002
3	0	1.201717214477394E+003	1.3340857E+000	-2.7038385E+002
3	0	1.202217214464763E+003	1.3337642E+000	-2.7040506E+002
3	0	1.202717214452132E+003	1.3333712E+000	-2.7038742E+002
3	0	1.203217214439501E+003	1.3329533E+000	-2.7037326E+002
3	0	1.203717214426870E+003	1.3326248E+000	-2.7037677E+002
3	0	1.204217214414239E+003	1.3322984E+000	-2.7039801E+002
3	0	1.204717214401608E+003	1.3319732E+000	-2.7039447E+002
3	0	1.205217214388977E+003	1.3316703E+000	-2.7036267E+002
3	0	1.205717214376346E+003	1.3313636E+000	-2.7037677E+002
3	0	1.206217214363714E+003	1.3310460E+000	-2.7038031E+002
3	0	1.206717214351083E+003	1.3306651E+000	-2.7037326E+002
3	0	1.207217214338452E+003	1.3302627E+000	-2.7035913E+002
3	0	1.207717214325821E+003	1.3299618E+000	-2.7038385E+002
3	0	1.208217214313190E+003	1.3296814E+000	-2.7036972E+002
3	0	1.208717214300559E+003	1.3294394E+000	-2.7038031E+002
3	0	1.209217214287928E+003	1.3292136E+000	-2.7036618E+002
3	0	1.209717214275297E+003	1.3289829E+000	-2.7036267E+002
3	0	1.210217214262666E+003	1.3287343E+000	-2.7040860E+002
3	0	1.210717214250035E+003	1.3284326E+000	-2.7037326E+002
3	0	1.211217214237404E+003	1.3280923E+000	-2.7037677E+002
3	0	1.211717214224773E+003	1.3278531E+000	-2.7037677E+002
3	0	1.212217214212142E+003	1.3276230E+000	-2.7038031E+002
3	0	1.212717214199511E+003	1.3274024E+000	-2.7036618E+002
3	0	1.213217214186880E+003	1.3271810E+000	-2.7037677E+002
3	0	1.213717214174249E+003	1.3269696E+000	-2.7036972E+002
3	0	1.214217214161617E+003	1.3267179E+000	-2.7037677E+002
3	0	1.214717214148986E+003	1.3263941E+000	-2.7037326E+002
3	0	1.215217214136355E+003	1.3260415E+000	-2.7036618E+002
3	0	1.215717214123724E+003	1.3257772E+000	-2.7039801E+002
3	0	1.216217214111093E+003	1.3255239E+000	-2.7039093E+002
3	0	1.216217614111083E+003	1.3254352E+000	-2.7036618E+002