EC-Lab ASCII FILE
Nb header lines : 55                          

Open Circuit Voltage

Run on channel : 1 (SN 81504)
User : 
CE vs. WE compliance from -10 V to 10 V
Electrode connection : standard
Potential control : Ewe
Ewe ctrl range : min = -2.50 V, max = 2.50 V
Safety Limits :
	Do not start on E overload
Acquisition started on : 05/10/2026 03:03:02.549
Loaded Setting File :  C:\PEM-WE_measurements\2026\372_IV_IV IrOx, 5 min Pt, 30 min C, etched cathode\new station\Loopeis new\1,46 V different time gaps closed cell\Loopeis 1,46V_60s_5_PEIS from 65Hz to 10Hz.mps
Saved on :
	File : L_15_Loopeis 1,46V_60s_5_PEIS from 65Hz to 10Hz_10_OCV_C01.mpr
	Directory : C:\PEM-WE_measurements\2026\372_IV_IV IrOx, 5 min Pt, 30 min C, etched cathode\new station\Loopeis new\1,46 V different time gaps closed cell\
	Host : 192.168.0.2
Device : SP-150e (SN .005491)
Address : 192.168.0.91
EC-LAB for windows v11.71 (software)
Internet server v28.00 (firmware)
Command interpretor v14.01 (firmware)
Electrode material : 
Initial state : 
Electrolyte : 
Comments : 
Current amplifier : SP-150eB-20A
Electrode surface area : 0.001 cm²
Characteristic mass : 0.001 g
Equivalent Weight : 0.000 g/eq.
Density : 0.000 g/cm3
Volume (V) : 0.001 cm³
Record Analogic IN 1
Text export
   Mode : Standard
   Time format : Elapsed
Cycle Definition : Charge/Discharge alternance
External device configuration :
   device type : Temperature Probe
   device name : Other
   Analog IN 1 : 
      unit : T/Â°C
      max : 100.000 at 2.000 V
      min : 0.000 at 1.460 V
tR (h:m:s)          0:01:0.0000         
dER/dt (mV/h)       1.0                 
record              <Ewe>               
dER (mV)            10.00               
dtR (s)             0.5000              
E range min (V)     -2.500              
E range max (V)     2.500               

mode	error	time/s	<Ewe/V>	Analog IN 1/V	
3	0	9.445354175415559E+002	1.4159769E+000	-2.7035913E+002
3	0	9.450354175289249E+002	1.4069619E+000	-2.7037326E+002
3	0	9.455354175162938E+002	1.4009143E+000	-2.7037677E+002
3	0	9.460354175036628E+002	1.3964626E+000	-2.7039093E+002
3	0	9.465354174910317E+002	1.3928502E+000	-2.7037326E+002
3	0	9.470354174784006E+002	1.3897140E+000	-2.7037677E+002
3	0	9.475354174657696E+002	1.3869537E+000	-2.7037677E+002
3	0	9.480354174531385E+002	1.3845881E+000	-2.7038742E+002
3	0	9.485354174405074E+002	1.3824757E+000	-2.7038385E+002
3	0	9.490354174278764E+002	1.3805648E+000	-2.7036267E+002
3	0	9.495354174152453E+002	1.3788111E+000	-2.7034851E+002
3	0	9.500354174026143E+002	1.3771932E+000	-2.7035205E+002
3	0	9.505354173899832E+002	1.3756412E+000	-2.7036618E+002
3	0	9.510354173773521E+002	1.3741190E+000	-2.7036267E+002
3	0	9.515354173647211E+002	1.3726771E+000	-2.7036618E+002
3	0	9.520354173520900E+002	1.3714027E+000	-2.7034851E+002
3	0	9.525354173394589E+002	1.3702235E+000	-2.7037677E+002
3	0	9.530354173268279E+002	1.3691149E+000	-2.7038385E+002
3	0	9.535354173141968E+002	1.3680753E+000	-2.7040155E+002
3	0	9.540354173015658E+002	1.3670907E+000	-2.7037677E+002
3	0	9.545354172889347E+002	1.3661013E+000	-2.7037326E+002
3	0	9.550354172763036E+002	1.3651031E+000	-2.7034143E+002
3	0	9.555354172636726E+002	1.3641458E+000	-2.7038385E+002
3	0	9.560354172510415E+002	1.3633127E+000	-2.7036618E+002
3	0	9.565354172384104E+002	1.3625340E+000	-2.7040506E+002
3	0	9.570354172257794E+002	1.3617966E+000	-2.7041568E+002
3	0	9.575354172131483E+002	1.3610951E+000	-2.7038385E+002
3	0	9.580354172005173E+002	1.3604187E+000	-2.7038385E+002
3	0	9.585354171878862E+002	1.3597240E+000	-2.7039447E+002
3	0	9.590354171752551E+002	1.3589804E+000	-2.7039801E+002
3	0	9.595354171626241E+002	1.3582679E+000	-2.7036972E+002
3	0	9.600354171499930E+002	1.3576604E+000	-2.7036267E+002
3	0	9.605354171373619E+002	1.3570976E+000	-2.7039801E+002
3	0	9.610354171247309E+002	1.3565599E+000	-2.7036618E+002
3	0	9.615354171120998E+002	1.3560395E+000	-2.7038031E+002
3	0	9.620354170994688E+002	1.3555362E+000	-2.7036972E+002
3	0	9.625354170868377E+002	1.3549993E+000	-2.7036972E+002
3	0	9.630354170742066E+002	1.3543973E+000	-2.7037677E+002
3	0	9.635354170615756E+002	1.3538160E+000	-2.7038742E+002
3	0	9.640354170489445E+002	1.3533340E+000	-2.7036972E+002
3	0	9.645354170363134E+002	1.3528845E+000	-2.7039801E+002
3	0	9.650354170236824E+002	1.3524718E+000	-2.7038031E+002
3	0	9.655354170110513E+002	1.3520813E+000	-2.7038742E+002
3	0	9.660354169984203E+002	1.3517011E+000	-2.7039801E+002
3	0	9.665354169857892E+002	1.3512994E+000	-2.7040860E+002
3	0	9.670354169731581E+002	1.3508414E+000	-2.7038742E+002
3	0	9.675354169605271E+002	1.3504096E+000	-2.7037677E+002
3	0	9.680354169478960E+002	1.3500775E+000	-2.7036267E+002
3	0	9.685354169352649E+002	1.3497710E+000	-2.7039447E+002
3	0	9.690354169226339E+002	1.3494782E+000	-2.7038031E+002
3	0	9.695354169100028E+002	1.3491833E+000	-2.7039093E+002
3	0	9.700354168973718E+002	1.3488858E+000	-2.7034497E+002
3	0	9.705354168847407E+002	1.3485498E+000	-2.7040506E+002
3	0	9.710354168721096E+002	1.3481492E+000	-2.7035913E+002
3	0	9.715354168594786E+002	1.3477535E+000	-2.7034851E+002
3	0	9.720354168468475E+002	1.3474461E+000	-2.7039447E+002
3	0	9.725354168342164E+002	1.3471638E+000	-2.7038742E+002
3	0	9.730354168215854E+002	1.3468753E+000	-2.7039447E+002
3	0	9.735354168089543E+002	1.3465855E+000	-2.7036618E+002
3	0	9.740354167963233E+002	1.3462909E+000	-2.7039447E+002
3	0	9.745354167836922E+002	1.3459545E+000	-2.7037326E+002
3	0	9.750354167710611E+002	1.3455563E+000	-2.7036972E+002
3	0	9.755354167584301E+002	1.3451692E+000	-2.7037326E+002
3	0	9.760354167457990E+002	1.3448608E+000	-2.7038742E+002
3	0	9.765354167331679E+002	1.3445715E+000	-2.7036972E+002
3	0	9.770354167205369E+002	1.3442839E+000	-2.7038385E+002
3	0	9.775354167079058E+002	1.3439842E+000	-2.7038031E+002
3	0	9.780354166952748E+002	1.3436918E+000	-2.7034497E+002
3	0	9.785354166826437E+002	1.3433456E+000	-2.7038031E+002
3	0	9.790354166700126E+002	1.3429352E+000	-2.7037677E+002
3	0	9.795354166573816E+002	1.3425299E+000	-2.7038031E+002
3	0	9.800354166447505E+002	1.3422066E+000	-2.7036267E+002
3	0	9.805354166321195E+002	1.3418982E+000	-2.7038031E+002
3	0	9.810354166194884E+002	1.3415861E+000	-2.7038031E+002
3	0	9.815354166068573E+002	1.3412744E+000	-2.7039447E+002
3	0	9.820354165942263E+002	1.3409587E+000	-2.7036972E+002
3	0	9.825354165815952E+002	1.3406032E+000	-2.7037326E+002
3	0	9.830354165689641E+002	1.3401690E+000	-2.7036267E+002
3	0	9.835354165563331E+002	1.3397331E+000	-2.7036267E+002
3	0	9.840354165437020E+002	1.3393890E+000	-2.7038742E+002
3	0	9.845354165310710E+002	1.3390527E+000	-2.7038031E+002
3	0	9.850354165184399E+002	1.3387189E+000	-2.7037326E+002
3	0	9.855354165058088E+002	1.3383995E+000	-2.7035559E+002
3	0	9.860354164931778E+002	1.3380809E+000	-2.7036267E+002
3	0	9.865354164805467E+002	1.3377141E+000	-2.7038385E+002
3	0	9.870354164679156E+002	1.3372946E+000	-2.7041214E+002
3	0	9.875354164552846E+002	1.3368926E+000	-2.7036972E+002
3	0	9.880354164426535E+002	1.3365853E+000	-2.7040155E+002
3	0	9.885354164300225E+002	1.3362960E+000	-2.7037677E+002
3	0	9.890354164173914E+002	1.3360170E+000	-2.7038031E+002
3	0	9.895354164047603E+002	1.3357465E+000	-2.7037677E+002
3	0	9.900354163921293E+002	1.3354782E+000	-2.7034851E+002
3	0	9.905354163794982E+002	1.3351526E+000	-2.7037677E+002
3	0	9.910354163668671E+002	1.3347499E+000	-2.7036972E+002
3	0	9.915354163542361E+002	1.3343675E+000	-2.7038031E+002
3	0	9.920354163416050E+002	1.3340758E+000	-2.7038031E+002
3	0	9.925354163289740E+002	1.3337876E+000	-2.7037326E+002
3	0	9.930354163163429E+002	1.3334942E+000	-2.7038031E+002
3	0	9.935354163037118E+002	1.3332090E+000	-2.7040860E+002
3	0	9.940354162910808E+002	1.3329172E+000	-2.7039093E+002
3	0	9.945354162784497E+002	1.3325734E+000	-2.7039801E+002
3	0	9.950354162658186E+002	1.3321580E+000	-2.7037326E+002
3	0	9.955354162531876E+002	1.3317572E+000	-2.7037326E+002
3	0	9.960354162405565E+002	1.3314359E+000	-2.7037326E+002
3	0	9.965354162279255E+002	1.3311323E+000	-2.7038031E+002
3	0	9.970354162152944E+002	1.3308280E+000	-2.7039447E+002
3	0	9.975354162026633E+002	1.3305291E+000	-2.7038031E+002
3	0	9.980354161900323E+002	1.3302132E+000	-2.7036618E+002
3	0	9.985354161774012E+002	1.3298463E+000	-2.7038742E+002
3	0	9.990354161647701E+002	1.3294109E+000	-2.7036618E+002
3	0	9.995354161521391E+002	1.3289946E+000	-2.7037677E+002
3	0	1.000035416139508E+003	1.3286521E+000	-2.7038031E+002
3	0	1.000535416126877E+003	1.3283230E+000	-2.7039801E+002
3	0	1.001035416114246E+003	1.3280021E+000	-2.7037677E+002
3	0	1.001535416101615E+003	1.3276834E+000	-2.7038385E+002
3	0	1.002035416088984E+003	1.3273696E+000	-2.7035559E+002
3	0	1.002535416076353E+003	1.3270116E+000	-2.7038742E+002
3	0	1.003035416063722E+003	1.3265833E+000	-2.7040506E+002
3	0	1.003535416051091E+003	1.3261663E+000	-2.7037326E+002
3	0	1.004035416038460E+003	1.3258253E+000	-2.7038031E+002
3	0	1.004035816038449E+003	1.3256928E+000	-2.7039093E+002