EC-Lab ASCII FILE
Nb header lines : 55                          

Open Circuit Voltage

Run on channel : 1 (SN 81504)
User : 
CE vs. WE compliance from -10 V to 10 V
Electrode connection : standard
Potential control : Ewe
Ewe ctrl range : min = -2.50 V, max = 2.50 V
Safety Limits :
	Do not start on E overload
Acquisition started on : 05/10/2026 03:03:02.549
Loaded Setting File :  C:\PEM-WE_measurements\2026\372_IV_IV IrOx, 5 min Pt, 30 min C, etched cathode\new station\Loopeis new\1,46 V different time gaps closed cell\Loopeis 1,46V_60s_5_PEIS from 65Hz to 10Hz.mps
Saved on :
	File : L_15_Loopeis 1,46V_60s_5_PEIS from 65Hz to 10Hz_20_OCV_C01.mpr
	Directory : C:\PEM-WE_measurements\2026\372_IV_IV IrOx, 5 min Pt, 30 min C, etched cathode\new station\Loopeis new\1,46 V different time gaps closed cell\
	Host : 192.168.0.2
Device : SP-150e (SN .005491)
Address : 192.168.0.91
EC-LAB for windows v11.71 (software)
Internet server v28.00 (firmware)
Command interpretor v14.01 (firmware)
Electrode material : 
Initial state : 
Electrolyte : 
Comments : 
Current amplifier : SP-150eB-20A
Electrode surface area : 0.001 cm²
Characteristic mass : 0.001 g
Equivalent Weight : 0.000 g/eq.
Density : 0.000 g/cm3
Volume (V) : 0.001 cm³
Record Analogic IN 1
Text export
   Mode : Standard
   Time format : Elapsed
Cycle Definition : Charge/Discharge alternance
External device configuration :
   device type : Temperature Probe
   device name : Other
   Analog IN 1 : 
      unit : T/Â°C
      max : 100.000 at 2.000 V
      min : 0.000 at 1.460 V
tR (h:m:s)          0:01:0.0000         
dER/dt (mV/h)       1.0                 
record              <Ewe>               
dER (mV)            10.00               
dtR (s)             0.5000              
E range min (V)     -2.500              
E range max (V)     2.500               

mode	error	time/s	<Ewe/V>	Analog IN 1/V	
3	0	1.475547614388488E+003	1.2530943E+000	-2.7036267E+002
3	0	1.476047614375857E+003	1.2625161E+000	-2.7036972E+002
3	0	1.476547614363226E+003	1.2661591E+000	-2.7035205E+002
3	0	1.477047614350595E+003	1.2681490E+000	-2.7035913E+002
3	0	1.477547614337964E+003	1.2693726E+000	-2.7038742E+002
3	0	1.478047614325333E+003	1.2701313E+000	-2.7038385E+002
3	0	1.478547614312702E+003	1.2705610E+000	-2.7037677E+002
3	0	1.479047614300071E+003	1.2707499E+000	-2.7037326E+002
3	0	1.479547614287440E+003	1.2708868E+000	-2.7036618E+002
3	0	1.480047614274808E+003	1.2709384E+000	-2.7038031E+002
3	0	1.480547614262177E+003	1.2708989E+000	-2.7037326E+002
3	0	1.481047614249546E+003	1.2708100E+000	-2.7037326E+002
3	0	1.481547614236915E+003	1.2706842E+000	-2.7036972E+002
3	0	1.482047614224284E+003	1.2704972E+000	-2.7039093E+002
3	0	1.482547614211653E+003	1.2702035E+000	-2.7036972E+002
3	0	1.483047614199022E+003	1.2698749E+000	-2.7038385E+002
3	0	1.483547614186391E+003	1.2696276E+000	-2.7038385E+002
3	0	1.484047614173760E+003	1.2694030E+000	-2.7036267E+002
3	0	1.484547614161129E+003	1.2691590E+000	-2.7038742E+002
3	0	1.485047614148498E+003	1.2689198E+000	-2.7036267E+002
3	0	1.485547614135867E+003	1.2686827E+000	-2.7039447E+002
3	0	1.486047614123236E+003	1.2684267E+000	-2.7038385E+002
3	0	1.486547614110605E+003	1.2681077E+000	-2.7041214E+002
3	0	1.487047614097974E+003	1.2677765E+000	-2.7038031E+002
3	0	1.487547614085343E+003	1.2675644E+000	-2.7039801E+002
3	0	1.488047614072711E+003	1.2674137E+000	-2.7037677E+002
3	0	1.488547614060080E+003	1.2672842E+000	-2.7036267E+002
3	0	1.489047614047449E+003	1.2671740E+000	-2.7037677E+002
3	0	1.489547614034818E+003	1.2670984E+000	-2.7038385E+002
3	0	1.490047614022187E+003	1.2670109E+000	-2.7037677E+002
3	0	1.490547614009556E+003	1.2668778E+000	-2.7036618E+002
3	0	1.491047613996925E+003	1.2667379E+000	-2.7037326E+002
3	0	1.491547613984294E+003	1.2667238E+000	-2.7038385E+002
3	0	1.492047613971663E+003	1.2667576E+000	-2.7038385E+002
3	0	1.492547613959032E+003	1.2667929E+000	-2.7037326E+002
3	0	1.493047613946401E+003	1.2668301E+000	-2.7036618E+002
3	0	1.493547613933770E+003	1.2668769E+000	-2.7040155E+002
3	0	1.494047613921139E+003	1.2668827E+000	-2.7040506E+002
3	0	1.494547613908508E+003	1.2668272E+000	-2.7038031E+002
3	0	1.495047613895877E+003	1.2667274E+000	-2.7038742E+002
3	0	1.495547613883246E+003	1.2667375E+000	-2.7039093E+002
3	0	1.496047613870614E+003	1.2667769E+000	-2.7039093E+002
3	0	1.496547613857983E+003	1.2667980E+000	-2.7039447E+002
3	0	1.497047613845352E+003	1.2668145E+000	-2.7036267E+002
3	0	1.497547613832721E+003	1.2668214E+000	-2.7036618E+002
3	0	1.498047613820090E+003	1.2667909E+000	-2.7038742E+002
3	0	1.498547613807459E+003	1.2666796E+000	-2.7038031E+002
3	0	1.499047613794828E+003	1.2665329E+000	-2.7041568E+002
3	0	1.499547613782197E+003	1.2664841E+000	-2.7036618E+002
3	0	1.500047613769566E+003	1.2664640E+000	-2.7036972E+002
3	0	1.500547613756935E+003	1.2664284E+000	-2.7037677E+002
3	0	1.501047613744304E+003	1.2663810E+000	-2.7039447E+002
3	0	1.501547613731673E+003	1.2663300E+000	-2.7038031E+002
3	0	1.502047613719042E+003	1.2662340E+000	-2.7038742E+002
3	0	1.502547613706411E+003	1.2660525E+000	-2.7037677E+002
3	0	1.503047613693780E+003	1.2658365E+000	-2.7036267E+002
3	0	1.503547613681149E+003	1.2657236E+000	-2.7036267E+002
3	0	1.504047613668517E+003	1.2656423E+000	-2.7037677E+002
3	0	1.504547613655886E+003	1.2655450E+000	-2.7036972E+002
3	0	1.505047613643255E+003	1.2654372E+000	-2.7038031E+002
3	0	1.505547613630624E+003	1.2653315E+000	-2.7039093E+002
3	0	1.506047613617993E+003	1.2651762E+000	-2.7036972E+002
3	0	1.506547613605362E+003	1.2649438E+000	-2.7036618E+002
3	0	1.507047613592731E+003	1.2646810E+000	-2.7039093E+002
3	0	1.507547613580100E+003	1.2645345E+000	-2.7039447E+002
3	0	1.508047613567469E+003	1.2644235E+000	-2.7036267E+002
3	0	1.508547613554838E+003	1.2643123E+000	-2.7034143E+002
3	0	1.509047613542207E+003	1.2642092E+000	-2.7037677E+002
3	0	1.509547613529576E+003	1.2641119E+000	-2.7039447E+002
3	0	1.510047613516945E+003	1.2640005E+000	-2.7038742E+002
3	0	1.510547613504314E+003	1.2638329E+000	-2.7037677E+002
3	0	1.511047613491683E+003	1.2636340E+000	-2.7035913E+002
3	0	1.511547613479052E+003	1.2635531E+000	-2.7038031E+002
3	0	1.512047613466420E+003	1.2635211E+000	-2.7036972E+002
3	0	1.512547613453789E+003	1.2634712E+000	-2.7037326E+002
3	0	1.513047613441158E+003	1.2634166E+000	-2.7033789E+002
3	0	1.513547613428527E+003	1.2633702E+000	-2.7038385E+002
3	0	1.514047613415896E+003	1.2632781E+000	-2.7035205E+002
3	0	1.514547613403265E+003	1.2631142E+000	-2.7038031E+002
3	0	1.515047613390634E+003	1.2629100E+000	-2.7037326E+002
3	0	1.515547613378003E+003	1.2628069E+000	-2.7036267E+002
3	0	1.516047613365372E+003	1.2627275E+000	-2.7037677E+002
3	0	1.516547613352741E+003	1.2626390E+000	-2.7035913E+002
3	0	1.517047613340110E+003	1.2625380E+000	-2.7038031E+002
3	0	1.517547613327479E+003	1.2624253E+000	-2.7036267E+002
3	0	1.518047613314848E+003	1.2622789E+000	-2.7041568E+002
3	0	1.518547613302217E+003	1.2620509E+000	-2.7034497E+002
3	0	1.519047613289586E+003	1.2617830E+000	-2.7037326E+002
3	0	1.519547613276955E+003	1.2616075E+000	-2.7038742E+002
3	0	1.520047613264323E+003	1.2614560E+000	-2.7036267E+002
3	0	1.520547613251692E+003	1.2612917E+000	-2.7038031E+002
3	0	1.521047613239061E+003	1.2611135E+000	-2.7037326E+002
3	0	1.521547613226430E+003	1.2609396E+000	-2.7038742E+002
3	0	1.522047613213799E+003	1.2607334E+000	-2.7038385E+002
3	0	1.522547613201168E+003	1.2604378E+000	-2.7039093E+002
3	0	1.523047613188537E+003	1.2600992E+000	-2.7037677E+002
3	0	1.523547613175906E+003	1.2598610E+000	-2.7040506E+002
3	0	1.524047613163275E+003	1.2596614E+000	-2.7038742E+002
3	0	1.524547613150644E+003	1.2594577E+000	-2.7038742E+002
3	0	1.525047613138013E+003	1.2592425E+000	-2.7036267E+002
3	0	1.525547613125382E+003	1.2590184E+000	-2.7039093E+002
3	0	1.526047613112751E+003	1.2587510E+000	-2.7038742E+002
3	0	1.526547613100120E+003	1.2584049E+000	-2.7036618E+002
3	0	1.527047613087489E+003	1.2580348E+000	-2.7039801E+002
3	0	1.527547613074858E+003	1.2577688E+000	-2.7039447E+002
3	0	1.528047613062226E+003	1.2575551E+000	-2.7037326E+002
3	0	1.528547613049595E+003	1.2573380E+000	-2.7038031E+002
3	0	1.529047613036964E+003	1.2571303E+000	-2.7040860E+002
3	0	1.529547613024333E+003	1.2569411E+000	-2.7037677E+002
3	0	1.530047613011702E+003	1.2567370E+000	-2.7037677E+002
3	0	1.530547612999071E+003	1.2564652E+000	-2.7039447E+002
3	0	1.531047612986440E+003	1.2561755E+000	-2.7037677E+002
3	0	1.531547612973809E+003	1.2560090E+000	-2.7036618E+002
3	0	1.532047612961178E+003	1.2558845E+000	-2.7037326E+002
3	0	1.532547612948547E+003	1.2557572E+000	-2.7038031E+002
3	0	1.533047612935916E+003	1.2556291E+000	-2.7039447E+002
3	0	1.533547612923285E+003	1.2555085E+000	-2.7037326E+002
3	0	1.534047612910654E+003	1.2553383E+000	-2.7039447E+002
3	0	1.534547612898023E+003	1.2550981E+000	-2.7038385E+002
3	0	1.535047612885392E+003	1.2548304E+000	-2.7039447E+002
3	0	1.535072212884770E+003	1.2547288E+000	-2.7035913E+002