EC-Lab ASCII FILE
Nb header lines : 48                          

Open Circuit Voltage

Run on channel : 1 (SN 81504)
User : 
CE vs. WE compliance from -10 V to 10 V
Electrode connection : standard
Potential control : Ewe
Ewe ctrl range : min = -2.50 V, max = 2.50 V
Safety Limits :
	Do not start on E overload
Acquisition started on : 05/10/2026 03:53:31.165
Loaded Setting File :  C:\PEM-WE_measurements\2026\372_IV_IV IrOx, 5 min Pt, 30 min C, etched cathode\new station\Loopeis new\1,46 V different time gaps closed cell\Loopeis 1,46V_90s_2_PEIS from 65kHz to 10kHz.mps
Saved on :
	File : L_17_Loopeis 1,46V_90s_2_PEIS from 65kHz to 10kHz_06_OCV_C01.mpr
	Directory : C:\PEM-WE_measurements\2026\372_IV_IV IrOx, 5 min Pt, 30 min C, etched cathode\new station\Loopeis new\1,46 V different time gaps closed cell\
	Host : 192.168.0.2
Device : SP-150e (SN .005491)
Address : 192.168.0.91
EC-LAB for windows v11.71 (software)
Internet server v28.00 (firmware)
Command interpretor v14.01 (firmware)
Electrode material : 
Initial state : 
Electrolyte : 
Comments : 
Current amplifier : SP-150eB-20A
Electrode surface area : 0.001 cm²
Characteristic mass : 0.001 g
Equivalent Weight : 0.000 g/eq.
Density : 0.000 g/cm3
Volume (V) : 0.001 cm³
Record Analogic IN 1
Text export
   Mode : Standard
   Time format : Elapsed
Cycle Definition : Charge/Discharge alternance
tR (h:m:s)          0:01:30.0000        
dER/dt (mV/h)       1.0                 
record              <Ewe>               
dER (mV)            10.00               
dtR (s)             0.5000              
E range min (V)     -2.500              
E range max (V)     2.500               

mode	error	time/s	<Ewe/V>	Analog IN 1/V	
3	0	3.160595953304437E+002	1.2771201E+000	8.0207064E-005
3	0	3.165595953178126E+002	1.2842299E+000	-1.2973390E-004
3	0	3.170595953051816E+002	1.2860926E+000	3.8648941E-006
3	0	3.175595952925505E+002	1.2866008E+000	-1.4881945E-004
3	0	3.180595952799194E+002	1.2863992E+000	-3.4306191E-005
3	0	3.185595952672884E+002	1.2857099E+000	-1.1064836E-004
3	0	3.190595952546573E+002	1.2846942E+000	-5.3391734E-005
3	0	3.195595952420263E+002	1.2834879E+000	8.0207064E-005
3	0	3.200595952293952E+002	1.2820210E+000	3.8648941E-006
3	0	3.205595952167641E+002	1.2802337E+000	-1.1064836E-004
3	0	3.210595952041331E+002	1.2780554E+000	-7.2477276E-005
3	0	3.215595951915020E+002	1.2753332E+000	3.8648941E-006
3	0	3.220595951788710E+002	1.2717459E+000	-7.2477276E-005
3	0	3.225595951662399E+002	1.2669687E+000	2.2950437E-005
3	0	3.230595951536088E+002	1.2607708E+000	-1.5220648E-005
3	0	3.235595951409778E+002	1.2528384E+000	-1.2973390E-004
3	0	3.240595951283467E+002	1.2424006E+000	2.2950437E-005
3	0	3.245595951157156E+002	1.2287101E+000	4.2035979E-005
3	0	3.250595951030846E+002	1.2110784E+000	-1.6790499E-004
3	0	3.255595950904535E+002	1.1889465E+000	-1.2973390E-004
3	0	3.260595950778225E+002	1.1619003E+000	3.8648941E-006
3	0	3.265595950651914E+002	1.1300613E+000	-7.2477276E-005
3	0	3.270595950525603E+002	1.0947976E+000	-9.1562819E-005
3	0	3.275595950399293E+002	1.0583940E+000	-1.1064836E-004
3	0	3.280595950272982E+002	1.0223678E+000	2.2950437E-005
3	0	3.285595950146671E+002	9.8750287E-001	-1.2973390E-004
3	0	3.290595950020361E+002	9.5421839E-001	-9.1562819E-005
3	0	3.295595949894050E+002	9.2320091E-001	3.8648941E-006
3	0	3.300595949767740E+002	8.9527380E-001	-5.3391734E-005
3	0	3.305595949641429E+002	8.7145406E-001	-1.5220648E-005
3	0	3.310595949515118E+002	8.5293609E-001	-1.5220648E-005
3	0	3.315595949388808E+002	8.4118032E-001	-9.1562819E-005
3	0	3.320595949262497E+002	8.3580816E-001	2.2950437E-005
3	0	3.325595949136186E+002	8.3550727E-001	-9.1562819E-005
3	0	3.330595949009876E+002	8.3908296E-001	3.8648941E-006
3	0	3.335595948883565E+002	8.4567094E-001	-3.4306191E-005
3	0	3.340595948757255E+002	8.5439944E-001	4.2035979E-005
3	0	3.345595948630944E+002	8.6461306E-001	-5.3391734E-005
3	0	3.350595948504633E+002	8.7635052E-001	8.0207064E-005
3	0	3.355595948378323E+002	8.8986361E-001	3.8648941E-006
3	0	3.360595948252012E+002	9.0430814E-001	-5.3391734E-005
3	0	3.365595948125701E+002	9.1864055E-001	-1.4881945E-004
3	0	3.370595947999391E+002	9.3214738E-001	-1.2973390E-004
3	0	3.375595947873080E+002	9.4456130E-001	-1.1064836E-004
3	0	3.380595947746770E+002	9.5572698E-001	-1.5220648E-005
3	0	3.385595947620459E+002	9.6572208E-001	-5.3391734E-005
3	0	3.390595947494148E+002	9.7511500E-001	-1.5220648E-005
3	0	3.395595947367838E+002	9.8433030E-001	-3.4306191E-005
3	0	3.400595947241527E+002	9.9305952E-001	3.8648941E-006
3	0	3.405595947115216E+002	1.0008608E+000	-5.3391734E-005
3	0	3.410595946988906E+002	1.0075408E+000	-1.4881945E-004
3	0	3.415595946862595E+002	1.0130918E+000	-3.4306191E-005
3	0	3.420595946736285E+002	1.0176049E+000	-1.5220648E-005
3	0	3.425595946609974E+002	1.0213552E+000	-1.2973390E-004
3	0	3.430595946483663E+002	1.0248417E+000	-1.2973390E-004
3	0	3.435595946357353E+002	1.0283271E+000	-9.1562819E-005
3	0	3.440595946231042E+002	1.0315056E+000	3.8648941E-006
3	0	3.445595946104731E+002	1.0340923E+000	-1.6790499E-004
3	0	3.450595945978421E+002	1.0360160E+000	3.8648941E-006
3	0	3.455595945852110E+002	1.0372467E+000	3.8648941E-006
3	0	3.460595945725800E+002	1.0378203E+000	3.8648941E-006
3	0	3.465595945599489E+002	1.0379820E+000	-3.4306191E-005
3	0	3.470595945473178E+002	1.0381852E+000	3.8648941E-006
3	0	3.475595945346868E+002	1.0386602E+000	4.2035979E-005
3	0	3.480595945220557E+002	1.0390882E+000	-1.5220648E-005
3	0	3.485595945094246E+002	1.0391947E+000	-1.4881945E-004
3	0	3.490595944967936E+002	1.0388651E+000	-5.3391734E-005
3	0	3.495595944841625E+002	1.0380815E+000	3.8648941E-006
3	0	3.500595944715315E+002	1.0368613E+000	-7.2477276E-005
3	0	3.505595944589004E+002	1.0354896E+000	-1.5220648E-005
3	0	3.510595944462693E+002	1.0345539E+000	6.1121522E-005
3	0	3.515595944336383E+002	1.0345078E+000	-9.1562819E-005
3	0	3.520595944210072E+002	1.0352029E+000	-1.2973390E-004
3	0	3.525595944083761E+002	1.0365220E+000	-1.8699054E-004
3	0	3.530595943957451E+002	1.0384283E+000	-9.1562819E-005
3	0	3.535595943831140E+002	1.0409038E+000	-9.1562819E-005
3	0	3.540595943704830E+002	1.0437734E+000	-1.1064836E-004
3	0	3.545595943578519E+002	1.0469960E+000	-1.5220648E-005
3	0	3.550595943452208E+002	1.0506784E+000	-9.1562819E-005
3	0	3.555595943325898E+002	1.0547379E+000	-7.2477276E-005
3	0	3.560595943199587E+002	1.0586779E+000	-3.4306191E-005
3	0	3.565595943073276E+002	1.0621246E+000	-1.2973390E-004
3	0	3.570595942946966E+002	1.0649537E+000	1.1837815E-004
3	0	3.575595942820655E+002	1.0671871E+000	3.8648941E-006
3	0	3.580595942694345E+002	1.0688632E+000	-9.1562819E-005
3	0	3.585595942568034E+002	1.0701520E+000	4.2035979E-005
3	0	3.590595942441723E+002	1.0713714E+000	2.2950437E-005
3	0	3.595595942315413E+002	1.0725949E+000	-9.1562819E-005
3	0	3.600595942189102E+002	1.0735694E+000	-1.1064836E-004
3	0	3.605595942062791E+002	1.0741754E+000	-5.3391734E-005
3	0	3.610595941936481E+002	1.0744351E+000	-2.0607607E-004
3	0	3.615595941810170E+002	1.0743634E+000	-3.4306191E-005
3	0	3.620595941683860E+002	1.0740120E+000	1.3746369E-004
3	0	3.625595941557549E+002	1.0735021E+000	-1.4881945E-004
3	0	3.630595941431238E+002	1.0730515E+000	-1.8699054E-004
3	0	3.635595941304928E+002	1.0727804E+000	8.0207064E-005
3	0	3.640595941178617E+002	1.0723821E+000	-1.5220648E-005
3	0	3.645595941052306E+002	1.0717355E+000	-3.4306191E-005
3	0	3.650595940925996E+002	1.0707895E+000	2.2950437E-005
3	0	3.655595940799685E+002	1.0695771E+000	2.2950437E-005
3	0	3.660595940673375E+002	1.0680863E+000	-3.4306191E-005
3	0	3.665595940547064E+002	1.0663942E+000	-1.5220648E-005
3	0	3.670595940420753E+002	1.0647830E+000	-5.3391734E-005
3	0	3.675595940294443E+002	1.0634046E+000	9.9292607E-005
3	0	3.680595940168132E+002	1.0619810E+000	-7.2477276E-005
3	0	3.685595940041821E+002	1.0602776E+000	-1.2973390E-004
3	0	3.690595939915511E+002	1.0582068E+000	-1.1064836E-004
3	0	3.695595939789200E+002	1.0557460E+000	-9.1562819E-005
3	0	3.700595939662890E+002	1.0529008E+000	3.8648941E-006
3	0	3.705595939536579E+002	1.0499368E+000	3.8648941E-006
3	0	3.710595939410268E+002	1.0473493E+000	2.2950437E-005
3	0	3.715595939283958E+002	1.0455219E+000	-1.5220648E-005
3	0	3.720595939157647E+002	1.0443538E+000	-1.5220648E-005
3	0	3.725595939031336E+002	1.0437591E+000	-7.2477276E-005
3	0	3.730595938905026E+002	1.0437413E+000	-1.6790499E-004
3	0	3.735595938778715E+002	1.0443155E+000	-3.4306191E-005
3	0	3.740595938652405E+002	1.0453827E+000	-1.2973390E-004
3	0	3.745595938526094E+002	1.0470030E+000	-1.2973390E-004
3	0	3.750595938399783E+002	1.0493470E+000	3.8648941E-006
3	0	3.755595938273473E+002	1.0523505E+000	-1.1064836E-004
3	0	3.760595938147162E+002	1.0554928E+000	-1.5220648E-005
3	0	3.765595938020851E+002	1.0583675E+000	2.2950437E-005
3	0	3.770595937894541E+002	1.0608294E+000	-1.2973390E-004
3	0	3.775595937768230E+002	1.0627954E+000	-1.2973390E-004
3	0	3.780595937641920E+002	1.0642817E+000	-9.1562819E-005
3	0	3.785595937515609E+002	1.0653943E+000	-5.3391734E-005
3	0	3.790595937389298E+002	1.0664320E+000	-3.4306191E-005
3	0	3.795595937262988E+002	1.0675149E+000	-1.5220648E-005
3	0	3.800595937136677E+002	1.0683734E+000	1.5654923E-004
3	0	3.805595937010366E+002	1.0688519E+000	-1.5220648E-005
3	0	3.810595936884056E+002	1.0689225E+000	2.2950437E-005
3	0	3.815595936757745E+002	1.0685877E+000	-1.2973390E-004
3	0	3.820595936631435E+002	1.0678813E+000	1.1837815E-004
3	0	3.825595936505124E+002	1.0669014E+000	-1.1064836E-004
3	0	3.830595936378813E+002	1.0659378E+000	1.1837815E-004
3	0	3.835595936252503E+002	1.0651129E+000	-3.4306191E-005
3	0	3.840595936126192E+002	1.0641732E+000	-1.8699054E-004
3	0	3.845595935999881E+002	1.0629376E+000	-3.4306191E-005
3	0	3.850595935873571E+002	1.0613221E+000	1.3746369E-004
3	0	3.855595935747260E+002	1.0593036E+000	-3.4306191E-005
3	0	3.860595935620950E+002	1.0568457E+000	-5.3391734E-005
3	0	3.865595935494639E+002	1.0540380E+000	-3.4306191E-005
3	0	3.870595935368328E+002	1.0512087E+000	3.8648941E-006
3	0	3.875595935242018E+002	1.0485256E+000	-7.2477276E-005
3	0	3.880595935115707E+002	1.0457001E+000	-3.4306191E-005
3	0	3.885595934989396E+002	1.0424979E+000	-1.2973390E-004
3	0	3.890595934863086E+002	1.0387949E+000	-1.5220648E-005
3	0	3.895595934736775E+002	1.0345161E+000	-1.2973390E-004
3	0	3.900595934610465E+002	1.0296158E+000	2.2950437E-005
3	0	3.905595934484154E+002	1.0243100E+000	-1.5220648E-005
3	0	3.910595934357843E+002	1.0191721E+000	3.8648941E-006
3	0	3.915595934231533E+002	1.0147247E+000	-1.2973390E-004
3	0	3.920595934105222E+002	1.0109968E+000	-1.4881945E-004
3	0	3.925595933978911E+002	1.0079612E+000	-7.2477276E-005
3	0	3.930595933852601E+002	1.0056484E+000	-1.5220648E-005
3	0	3.935595933726290E+002	1.0041240E+000	-5.3391734E-005
3	0	3.940595933599980E+002	1.0034070E+000	-1.5220648E-005
3	0	3.945595933473669E+002	1.0035297E+000	2.2950437E-005
3	0	3.950595933347358E+002	1.0047443E+000	-9.1562819E-005
3	0	3.955595933221048E+002	1.0071063E+000	2.2950437E-005
3	0	3.960595933094737E+002	1.0100911E+000	-1.2973390E-004
3	0	3.965595932968427E+002	1.0132025E+000	-7.2477276E-005
3	0	3.970595932842116E+002	1.0160949E+000	-7.2477276E-005
3	0	3.975595932715805E+002	1.0185593E+000	-1.5220648E-005
3	0	3.980595932589495E+002	1.0205005E+000	-9.1562819E-005
3	0	3.985595932463184E+002	1.0220082E+000	3.8648941E-006
3	0	3.990595932336873E+002	1.0233822E+000	-9.1562819E-005
3	0	3.995595932210563E+002	1.0248173E+000	-3.4306191E-005
3	0	4.000595932084252E+002	1.0260240E+000	1.3746369E-004
3	0	4.005595931957942E+002	1.0267576E+000	-5.3391734E-005
3	0	4.010595931831631E+002	1.0268774E+000	2.2950437E-005
3	0	4.015595931705320E+002	1.0263606E+000	-3.4306191E-005
3	0	4.020595931579010E+002	1.0251790E+000	-5.3391734E-005
3	0	4.025595931452699E+002	1.0234801E+000	-2.0607607E-004
3	0	4.030595931326388E+002	1.0216094E+000	-9.1562819E-005
3	0	4.035595931200078E+002	1.0198001E+000	3.8648941E-006
3	0	4.040595931073767E+002	1.0178238E+000	3.8648941E-006
3	0	4.045595930947457E+002	1.0153928E+000	-7.2477276E-005
3	0	4.050595930821146E+002	1.0123214E+000	-1.1064836E-004
3	0	4.055595930694835E+002	1.0084540E+000	-1.6790499E-004
3	0	4.055599930694734E+002	1.0062578E+000	-1.6790499E-004