EC-Lab ASCII FILE
Nb header lines : 48                          

Open Circuit Voltage

Run on channel : 1 (SN 81504)
User : 
CE vs. WE compliance from -10 V to 10 V
Electrode connection : standard
Potential control : Ewe
Ewe ctrl range : min = -2.50 V, max = 2.50 V
Safety Limits :
	Do not start on E overload
Acquisition started on : 05/10/2026 03:53:31.165
Loaded Setting File :  C:\PEM-WE_measurements\2026\372_IV_IV IrOx, 5 min Pt, 30 min C, etched cathode\new station\Loopeis new\1,46 V different time gaps closed cell\Loopeis 1,46V_90s_2_PEIS from 65kHz to 10kHz.mps
Saved on :
	File : L_17_Loopeis 1,46V_90s_2_PEIS from 65kHz to 10kHz_20_OCV_C01.mpr
	Directory : C:\PEM-WE_measurements\2026\372_IV_IV IrOx, 5 min Pt, 30 min C, etched cathode\new station\Loopeis new\1,46 V different time gaps closed cell\
	Host : 192.168.0.2
Device : SP-150e (SN .005491)
Address : 192.168.0.91
EC-LAB for windows v11.71 (software)
Internet server v28.00 (firmware)
Command interpretor v14.01 (firmware)
Electrode material : 
Initial state : 
Electrolyte : 
Comments : 
Current amplifier : SP-150eB-20A
Electrode surface area : 0.001 cm²
Characteristic mass : 0.001 g
Equivalent Weight : 0.000 g/eq.
Density : 0.000 g/cm3
Volume (V) : 0.001 cm³
Record Analogic IN 1
Text export
   Mode : Standard
   Time format : Elapsed
Cycle Definition : Charge/Discharge alternance
tR (h:m:s)          0:01:30.0000        
dER/dt (mV/h)       1.0                 
record              <Ewe>               
dER (mV)            10.00               
dtR (s)             0.5000              
E range min (V)     -2.500              
E range max (V)     2.500               

mode	error	time/s	<Ewe/V>	Analog IN 1/V	
3	0	1.264463184718115E+003	1.1427649E+000	-9.1562819E-005
3	0	1.264963184705484E+003	1.2612990E+000	-5.3391734E-005
3	0	1.265463184692853E+003	1.2633547E+000	-1.5220648E-005
3	0	1.265963184680222E+003	1.2637006E+000	-1.2973390E-004
3	0	1.266463184667591E+003	1.2632095E+000	4.2035979E-005
3	0	1.266963184654960E+003	1.2620243E+000	-5.3391734E-005
3	0	1.267463184642329E+003	1.2601467E+000	3.8648941E-006
3	0	1.267963184629698E+003	1.2573668E+000	-1.4881945E-004
3	0	1.268463184617067E+003	1.2531940E+000	1.1837815E-004
3	0	1.268963184604436E+003	1.2466559E+000	-1.1064836E-004
3	0	1.269463184591805E+003	1.2362165E+000	8.0207064E-005
3	0	1.269963184579174E+003	1.2199700E+000	-5.3391734E-005
3	0	1.270463184566543E+003	1.1950531E+000	3.8648941E-006
3	0	1.270963184553912E+003	1.1554303E+000	-7.2477276E-005
3	0	1.271463184541281E+003	1.0891992E+000	-3.4306191E-005
3	0	1.271963184528649E+003	9.7495794E-001	-7.2477276E-005
3	0	1.272463184516018E+003	7.9765803E-001	-9.1562819E-005
3	0	1.272963184503387E+003	6.6645551E-001	9.9292607E-005
3	0	1.273463184490756E+003	6.2714881E-001	6.1121522E-005
3	0	1.273963184478125E+003	6.1240989E-001	-1.8699054E-004
3	0	1.274463184465494E+003	6.0865700E-001	-1.5220648E-005
3	0	1.274963184452863E+003	6.0931271E-001	6.1121522E-005
3	0	1.275463184440232E+003	6.1171043E-001	-1.1064836E-004
3	0	1.275963184427601E+003	6.1496753E-001	-1.2973390E-004
3	0	1.276463184414970E+003	6.1865413E-001	-1.1064836E-004
3	0	1.276963184402339E+003	6.2228215E-001	-3.4306191E-005
3	0	1.277463184389708E+003	6.2552303E-001	-1.5220648E-005
3	0	1.277963184377077E+003	6.2905705E-001	3.8648941E-006
3	0	1.278463184364446E+003	6.3431090E-001	-5.3391734E-005
3	0	1.278963184351815E+003	6.3984334E-001	-5.3391734E-005
3	0	1.279463184339184E+003	6.4517713E-001	3.8648941E-006
3	0	1.279963184326552E+003	6.5042388E-001	-1.4881945E-004
3	0	1.280463184313921E+003	6.5561777E-001	-9.1562819E-005
3	0	1.280963184301290E+003	6.6030264E-001	-3.4306191E-005
3	0	1.281463184288659E+003	6.6429168E-001	-1.4881945E-004
3	0	1.281963184276028E+003	6.6825897E-001	3.8648941E-006
3	0	1.282463184263397E+003	6.7390978E-001	8.0207064E-005
3	0	1.282963184250766E+003	6.7977053E-001	-2.2516162E-004
3	0	1.283463184238135E+003	6.8531024E-001	6.1121522E-005
3	0	1.283963184225504E+003	6.9052118E-001	9.9292607E-005
3	0	1.284463184212873E+003	6.9539911E-001	-1.2973390E-004
3	0	1.284963184200242E+003	6.9951499E-001	-3.4306191E-005
3	0	1.285463184187611E+003	7.0247281E-001	3.8648941E-006
3	0	1.285963184174980E+003	7.0507556E-001	-1.6790499E-004
3	0	1.286463184162349E+003	7.0922387E-001	-5.3391734E-005
3	0	1.286963184149718E+003	7.1359074E-001	-1.2973390E-004
3	0	1.287463184137087E+003	7.1721405E-001	-1.8699054E-004
3	0	1.287963184124455E+003	7.2009164E-001	-7.2477276E-005
3	0	1.288463184111824E+003	7.2194654E-001	-1.2973390E-004
3	0	1.288963184099193E+003	7.2249413E-001	-1.5220648E-005
3	0	1.289463184086562E+003	7.2170734E-001	-1.1064836E-004
3	0	1.289963184073931E+003	7.2051638E-001	-1.1064836E-004
3	0	1.290463184061300E+003	7.2064674E-001	-5.3391734E-005
3	0	1.290963184048669E+003	7.2134680E-001	-1.2973390E-004
3	0	1.291463184036038E+003	7.2143012E-001	-1.5220648E-005
3	0	1.291963184023407E+003	7.2072107E-001	-9.1562819E-005
3	0	1.292463184010776E+003	7.1906501E-001	-3.4306191E-005
3	0	1.292963183998145E+003	7.1622020E-001	-5.3391734E-005
3	0	1.293463183985514E+003	7.1227801E-001	-9.1562819E-005
3	0	1.293963183972883E+003	7.0817763E-001	-1.2973390E-004
3	0	1.294463183960252E+003	7.0568651E-001	6.1121522E-005
3	0	1.294963183947621E+003	7.0411205E-001	-7.2477276E-005
3	0	1.295463183934990E+003	7.0277929E-001	-7.2477276E-005
3	0	1.295963183922358E+003	7.0203120E-001	3.8648941E-006
3	0	1.296463183909727E+003	7.0201164E-001	-1.4881945E-004
3	0	1.296963183897096E+003	7.0264411E-001	2.2950437E-005
3	0	1.297463183884465E+003	7.0399231E-001	-5.3391734E-005
3	0	1.297963183871834E+003	7.0698112E-001	-1.4881945E-004
3	0	1.298463183859203E+003	7.1326292E-001	-3.4306191E-005
3	0	1.298963183846572E+003	7.2184801E-001	-9.1562819E-005
3	0	1.299463183833941E+003	7.3139954E-001	-3.4306191E-005
3	0	1.299963183821310E+003	7.4129450E-001	-7.2477276E-005
3	0	1.300463183808679E+003	7.5093216E-001	4.2035979E-005
3	0	1.300963183796048E+003	7.5974923E-001	-1.1064836E-004
3	0	1.301463183783417E+003	7.6743293E-001	-3.4306191E-005
3	0	1.301963183770786E+003	7.7450293E-001	-7.2477276E-005
3	0	1.302463183758155E+003	7.8219455E-001	-5.3391734E-005
3	0	1.302963183745524E+003	7.9003990E-001	-9.1562819E-005
3	0	1.303463183732893E+003	7.9710811E-001	-3.4306191E-005
3	0	1.303963183720261E+003	8.0295473E-001	-9.1562819E-005
3	0	1.304463183707630E+003	8.0723006E-001	4.2035979E-005
3	0	1.304963183694999E+003	8.0967396E-001	-9.1562819E-005
3	0	1.305463183682368E+003	8.1035471E-001	-5.3391734E-005
3	0	1.305963183669737E+003	8.1013948E-001	-1.6790499E-004
3	0	1.306463183657106E+003	8.1016338E-001	3.8648941E-006
3	0	1.306963183644475E+003	8.1008929E-001	4.2035979E-005
3	0	1.307463183631844E+003	8.0920327E-001	8.0207064E-005
3	0	1.307963183619213E+003	8.0720192E-001	4.2035979E-005
3	0	1.308463183606582E+003	8.0385745E-001	-1.5220648E-005
3	0	1.308963183593951E+003	7.9890561E-001	-1.2973390E-004
3	0	1.309463183581320E+003	7.9237068E-001	1.1837815E-004
3	0	1.309963183568689E+003	7.8506756E-001	-7.2477276E-005
3	0	1.310463183556058E+003	7.7833903E-001	9.9292607E-005
3	0	1.310963183543427E+003	7.7187234E-001	-1.1064836E-004
3	0	1.311463183530796E+003	7.6495129E-001	-1.8699054E-004
3	0	1.311963183518164E+003	7.5728059E-001	-1.1064836E-004
3	0	1.312463183505533E+003	7.4869239E-001	6.1121522E-005
3	0	1.312963183492902E+003	7.3925728E-001	-1.2973390E-004
3	0	1.313463183480271E+003	7.2902280E-001	9.9292607E-005
3	0	1.313963183467640E+003	7.1890980E-001	9.9292607E-005
3	0	1.314463183455009E+003	7.1050602E-001	-3.4306191E-005
3	0	1.314963183442378E+003	7.0361209E-001	-3.4306191E-005
3	0	1.315463183429747E+003	6.9756204E-001	-1.5220648E-005
3	0	1.315963183417116E+003	6.9247901E-001	-1.1064836E-004
3	0	1.316463183404485E+003	6.8839788E-001	4.2035979E-005
3	0	1.316963183391854E+003	6.8524212E-001	-5.3391734E-005
3	0	1.317463183379223E+003	6.8302608E-001	-3.4306191E-005
3	0	1.317963183366592E+003	6.8252587E-001	3.8648941E-006
3	0	1.318463183353961E+003	6.8524182E-001	3.8648941E-006
3	0	1.318963183341330E+003	6.9055015E-001	-7.2477276E-005
3	0	1.319463183328699E+003	6.9732952E-001	-5.3391734E-005
3	0	1.319963183316067E+003	7.0500517E-001	2.2950437E-005
3	0	1.320463183303436E+003	7.1289301E-001	6.1121522E-005
3	0	1.320963183290805E+003	7.2039229E-001	3.8648941E-006
3	0	1.321463183278174E+003	7.2695166E-001	2.2950437E-005
3	0	1.321963183265543E+003	7.3301494E-001	8.0207064E-005
3	0	1.322463183252912E+003	7.3976725E-001	-1.1064836E-004
3	0	1.322963183240281E+003	7.4660325E-001	-7.2477276E-005
3	0	1.323463183227650E+003	7.5263762E-001	-3.4306191E-005
3	0	1.323963183215019E+003	7.5748885E-001	-1.2973390E-004
3	0	1.324463183202388E+003	7.6077867E-001	-5.3391734E-005
3	0	1.324963183189757E+003	7.6231575E-001	-5.3391734E-005
3	0	1.325463183177126E+003	7.6202512E-001	3.8648941E-006
3	0	1.325963183164495E+003	7.6063073E-001	-1.1064836E-004
3	0	1.326463183151864E+003	7.5938874E-001	-9.1562819E-005
3	0	1.326963183139233E+003	7.5799495E-001	-9.1562819E-005
3	0	1.327463183126602E+003	7.5569922E-001	-1.6790499E-004
3	0	1.327963183113970E+003	7.5222033E-001	-5.3391734E-005
3	0	1.328463183101339E+003	7.4727708E-001	-1.5220648E-005
3	0	1.328963183088708E+003	7.4060374E-001	-7.2477276E-005
3	0	1.329463183076077E+003	7.3217291E-001	-1.5220648E-005
3	0	1.329963183063446E+003	7.2315156E-001	-1.2973390E-004
3	0	1.330463183050815E+003	7.1532726E-001	-3.4306191E-005
3	0	1.330963183038184E+003	7.0822978E-001	-3.4306191E-005
3	0	1.331463183025553E+003	7.0113337E-001	-2.0607607E-004
3	0	1.331963183012922E+003	6.9377112E-001	-1.2973390E-004
3	0	1.332463183000291E+003	6.8601167E-001	6.1121522E-005
3	0	1.332963182987660E+003	6.7765766E-001	-7.2477276E-005
3	0	1.333463182975029E+003	6.6877300E-001	-9.1562819E-005
3	0	1.333963182962398E+003	6.6027510E-001	-5.3391734E-005
3	0	1.334463182949767E+003	6.5372521E-001	2.2950437E-005
3	0	1.334963182937136E+003	6.4841729E-001	-7.2477276E-005
3	0	1.335463182924505E+003	6.4373130E-001	-7.2477276E-005
3	0	1.335963182911873E+003	6.3958973E-001	-7.2477276E-005
3	0	1.336463182899242E+003	6.3596272E-001	-1.2973390E-004
3	0	1.336963182886611E+003	6.3294667E-001	-2.0607607E-004
3	0	1.337463182873980E+003	6.3059920E-001	-1.1064836E-004
3	0	1.337963182861349E+003	6.2971687E-001	-1.5220648E-005
3	0	1.338463182848718E+003	6.3174403E-001	9.9292607E-005
3	0	1.338963182836087E+003	6.3596159E-001	-3.4306191E-005
3	0	1.339463182823456E+003	6.4137256E-001	-5.3391734E-005
3	0	1.339963182810825E+003	6.4749956E-001	-1.6790499E-004
3	0	1.340463182798194E+003	6.5372622E-001	3.8648941E-006
3	0	1.340963182785563E+003	6.5951663E-001	-5.3391734E-005
3	0	1.341463182772932E+003	6.6445482E-001	-5.3391734E-005
3	0	1.341963182760301E+003	6.6904712E-001	3.8648941E-006
3	0	1.342463182747670E+003	6.7460799E-001	-5.3391734E-005
3	0	1.342963182735039E+003	6.8036580E-001	-1.5220648E-005
3	0	1.343463182722408E+003	6.8539971E-001	-1.1064836E-004
3	0	1.343963182709776E+003	6.8940490E-001	2.2950437E-005
3	0	1.344463182697145E+003	6.9203770E-001	-7.2477276E-005
3	0	1.344963182684514E+003	6.9294387E-001	4.2035979E-005
3	0	1.345463182671883E+003	6.9188577E-001	4.2035979E-005
3	0	1.345963182659252E+003	6.8976212E-001	6.1121522E-005
3	0	1.346463182646621E+003	6.8818218E-001	-5.3391734E-005
3	0	1.346963182633990E+003	6.8660891E-001	3.8648941E-006
3	0	1.347463182621359E+003	6.8428582E-001	-1.2973390E-004
3	0	1.347963182608728E+003	6.8103909E-001	-1.1064836E-004
3	0	1.348463182596097E+003	6.7665344E-001	-3.4306191E-005
3	0	1.348963182583466E+003	6.7107314E-001	4.2035979E-005
3	0	1.349463182570835E+003	6.6439724E-001	8.0207064E-005
3	0	1.349963182558204E+003	6.5737945E-001	-5.3391734E-005
3	0	1.350463182545573E+003	6.5170777E-001	-3.4306191E-005
3	0	1.350963182532942E+003	6.4684695E-001	-7.2477276E-005
3	0	1.351463182520311E+003	6.4188433E-001	-2.2516162E-004
3	0	1.351963182507679E+003	6.3666540E-001	-9.1562819E-005
3	0	1.352463182495048E+003	6.3096863E-001	-9.1562819E-005
3	0	1.352963182482417E+003	6.2459850E-001	6.1121522E-005
3	0	1.353463182469786E+003	6.1748546E-001	-5.3391734E-005
3	0	1.353963182457155E+003	6.1032468E-001	-3.4306191E-005
3	0	1.353997182456296E+003	6.0705775E-001	2.2950437E-005