EC-Lab ASCII FILE
Nb header lines : 48                          

Open Circuit Voltage

Run on channel : 1 (SN 81504)
User : 
CE vs. WE compliance from -10 V to 10 V
Electrode connection : standard
Potential control : Ewe
Ewe ctrl range : min = -2.50 V, max = 2.50 V
Safety Limits :
	Do not start on E overload
Acquisition started on : 05/10/2026 03:53:31.165
Loaded Setting File :  C:\PEM-WE_measurements\2026\372_IV_IV IrOx, 5 min Pt, 30 min C, etched cathode\new station\Loopeis new\1,46 V different time gaps closed cell\Loopeis 1,46V_90s_2_PEIS from 65kHz to 10kHz.mps
Saved on :
	File : L_17_Loopeis 1,46V_90s_2_PEIS from 65kHz to 10kHz_04_OCV_C01.mpr
	Directory : C:\PEM-WE_measurements\2026\372_IV_IV IrOx, 5 min Pt, 30 min C, etched cathode\new station\Loopeis new\1,46 V different time gaps closed cell\
	Host : 192.168.0.2
Device : SP-150e (SN .005491)
Address : 192.168.0.91
EC-LAB for windows v11.71 (software)
Internet server v28.00 (firmware)
Command interpretor v14.01 (firmware)
Electrode material : 
Initial state : 
Electrolyte : 
Comments : 
Current amplifier : SP-150eB-20A
Electrode surface area : 0.001 cm²
Characteristic mass : 0.001 g
Equivalent Weight : 0.000 g/eq.
Density : 0.000 g/cm3
Volume (V) : 0.001 cm³
Record Analogic IN 1
Text export
   Mode : Standard
   Time format : Elapsed
Cycle Definition : Charge/Discharge alternance
tR (h:m:s)          0:01:30.0000        
dER/dt (mV/h)       1.0                 
record              <Ewe>               
dER (mV)            10.00               
dtR (s)             0.5000              
E range min (V)     -2.500              
E range max (V)     2.500               

mode	error	time/s	<Ewe/V>	Analog IN 1/V	
3	0	1.810243987417198E+002	1.1527750E+000	-1.2973390E-004
3	0	1.815243987290887E+002	1.2626952E+000	-9.1562819E-005
3	0	1.820243987164577E+002	1.2653315E+000	2.2950437E-005
3	0	1.825243987038266E+002	1.2662880E+000	-1.5220648E-005
3	0	1.830243986911955E+002	1.2664479E+000	-3.4306191E-005
3	0	1.835243986785645E+002	1.2662040E+000	-1.4881945E-004
3	0	1.840243986659334E+002	1.2656094E+000	-1.2973390E-004
3	0	1.845243986533023E+002	1.2646930E+000	3.8648941E-006
3	0	1.850243986406713E+002	1.2634691E+000	-5.3391734E-005
3	0	1.855243986280402E+002	1.2619416E+000	-7.2477276E-005
3	0	1.860243986154092E+002	1.2600042E+000	-1.2973390E-004
3	0	1.865243986027781E+002	1.2575890E+000	6.1121522E-005
3	0	1.870243985901470E+002	1.2546757E+000	-5.3391734E-005
3	0	1.875243985775160E+002	1.2511314E+000	-9.1562819E-005
3	0	1.880243985648849E+002	1.2464467E+000	3.8648941E-006
3	0	1.885243985522538E+002	1.2400939E+000	-7.2477276E-005
3	0	1.890243985396228E+002	1.2316616E+000	-2.0607607E-004
3	0	1.895243985269917E+002	1.2208656E+000	-1.1064836E-004
3	0	1.900243985143607E+002	1.2076085E+000	-3.4306191E-005
3	0	1.905243985017296E+002	1.1923167E+000	-3.4306191E-005
3	0	1.910243984890985E+002	1.1761413E+000	-9.1562819E-005
3	0	1.915243984764675E+002	1.1606240E+000	-1.2973390E-004
3	0	1.920243984638364E+002	1.1466557E+000	9.9292607E-005
3	0	1.925243984512053E+002	1.1347716E+000	-3.4306191E-005
3	0	1.930243984385743E+002	1.1253430E+000	3.8648941E-006
3	0	1.935243984259432E+002	1.1184483E+000	1.1837815E-004
3	0	1.940243984133122E+002	1.1139054E+000	-1.6790499E-004
3	0	1.945243984006811E+002	1.1115488E+000	-1.4881945E-004
3	0	1.950243983880500E+002	1.1115479E+000	2.2950437E-005
3	0	1.955243983754190E+002	1.1139390E+000	2.2950437E-005
3	0	1.960243983627879E+002	1.1179119E+000	-1.1064836E-004
3	0	1.965243983501568E+002	1.1225712E+000	3.8648941E-006
3	0	1.970243983375258E+002	1.1273272E+000	-5.3391734E-005
3	0	1.975243983248947E+002	1.1318477E+000	-1.2973390E-004
3	0	1.980243983122637E+002	1.1359283E+000	-1.5220648E-005
3	0	1.985243982996326E+002	1.1395756E+000	-7.2477276E-005
3	0	1.990243982870015E+002	1.1431434E+000	-1.1064836E-004
3	0	1.995243982743705E+002	1.1469125E+000	-1.6790499E-004
3	0	2.000243982617394E+002	1.1504762E+000	-3.4306191E-005
3	0	2.005243982491083E+002	1.1534556E+000	-5.3391734E-005
3	0	2.010243982364773E+002	1.1557895E+000	-7.2477276E-005
3	0	2.015243982238462E+002	1.1576034E+000	-5.3391734E-005
3	0	2.020243982112152E+002	1.1588855E+000	4.2035979E-005
3	0	2.025243981985841E+002	1.1598589E+000	6.1121522E-005
3	0	2.030243981859530E+002	1.1608852E+000	-1.2973390E-004
3	0	2.035243981733220E+002	1.1621408E+000	-9.1562819E-005
3	0	2.040243981606909E+002	1.1632638E+000	-3.4306191E-005
3	0	2.045243981480598E+002	1.1640488E+000	-7.2477276E-005
3	0	2.050243981354288E+002	1.1645136E+000	6.1121522E-005
3	0	2.055243981227977E+002	1.1647115E+000	-1.1064836E-004
3	0	2.060243981101667E+002	1.1646423E+000	-3.4306191E-005
3	0	2.065243980975356E+002	1.1644237E+000	-1.5220648E-005
3	0	2.070243980849045E+002	1.1643674E+000	-1.5220648E-005
3	0	2.075243980722735E+002	1.1646495E+000	4.2035979E-005
3	0	2.080243980596424E+002	1.1648903E+000	3.8648941E-006
3	0	2.085243980470113E+002	1.1648721E+000	-7.2477276E-005
3	0	2.090243980343803E+002	1.1646290E+000	-7.2477276E-005
3	0	2.095243980217492E+002	1.1642764E+000	-1.4881945E-004
3	0	2.100243980091182E+002	1.1639304E+000	-3.4306191E-005
3	0	2.105243979964871E+002	1.1638707E+000	-7.2477276E-005
3	0	2.110243979838560E+002	1.1645068E+000	6.1121522E-005
3	0	2.115243979712250E+002	1.1660290E+000	-7.2477276E-005
3	0	2.120243979585939E+002	1.1680387E+000	-1.8699054E-004
3	0	2.125243979459628E+002	1.1701901E+000	-1.2973390E-004
3	0	2.130243979333318E+002	1.1723253E+000	-1.5220648E-005
3	0	2.135243979207007E+002	1.1743324E+000	8.0207064E-005
3	0	2.140243979080697E+002	1.1761051E+000	-1.1064836E-004
3	0	2.145243978954386E+002	1.1776346E+000	-5.3391734E-005
3	0	2.150243978828075E+002	1.1790591E+000	-9.1562819E-005
3	0	2.155243978701765E+002	1.1804103E+000	4.2035979E-005
3	0	2.160243978575454E+002	1.1814682E+000	-1.1064836E-004
3	0	2.165243978449143E+002	1.1822414E+000	-7.2477276E-005
3	0	2.170243978322833E+002	1.1828308E+000	-3.4306191E-005
3	0	2.175243978196522E+002	1.1832647E+000	-3.4306191E-005
3	0	2.180243978070212E+002	1.1835538E+000	2.2950437E-005
3	0	2.185243977943901E+002	1.1837398E+000	-7.2477276E-005
3	0	2.190243977817590E+002	1.1839279E+000	3.8648941E-006
3	0	2.195243977691280E+002	1.1841905E+000	4.2035979E-005
3	0	2.200243977564969E+002	1.1843643E+000	-9.1562819E-005
3	0	2.205243977438658E+002	1.1844202E+000	-7.2477276E-005
3	0	2.210243977312348E+002	1.1843930E+000	2.2950437E-005
3	0	2.215243977186037E+002	1.1842878E+000	-1.4881945E-004
3	0	2.220243977059727E+002	1.1840745E+000	-1.5220648E-005
3	0	2.225243976933416E+002	1.1838039E+000	2.2950437E-005
3	0	2.230243976807105E+002	1.1835769E+000	4.2035979E-005
3	0	2.235243976680795E+002	1.1834720E+000	-3.4306191E-005
3	0	2.240243976554484E+002	1.1833009E+000	-1.2973390E-004
3	0	2.245243976428173E+002	1.1829853E+000	-1.5220648E-005
3	0	2.250243976301863E+002	1.1825610E+000	-9.1562819E-005
3	0	2.255243976175552E+002	1.1820266E+000	-1.5220648E-005
3	0	2.260243976049242E+002	1.1813656E+000	-1.1064836E-004
3	0	2.265243975922931E+002	1.1806359E+000	-7.2477276E-005
3	0	2.270243975796620E+002	1.1800092E+000	-7.2477276E-005
3	0	2.275243975670310E+002	1.1795706E+000	-1.1064836E-004
3	0	2.280243975543999E+002	1.1790829E+000	-9.1562819E-005
3	0	2.285243975417688E+002	1.1784426E+000	-3.4306191E-005
3	0	2.290243975291378E+002	1.1777133E+000	-1.1064836E-004
3	0	2.295243975165067E+002	1.1769247E+000	6.1121522E-005
3	0	2.300243975038757E+002	1.1761349E+000	-9.1562819E-005
3	0	2.305243974912446E+002	1.1754760E+000	-7.2477276E-005
3	0	2.310243974786135E+002	1.1752378E+000	2.2950437E-005
3	0	2.315243974659825E+002	1.1755412E+000	-9.1562819E-005
3	0	2.320243974533514E+002	1.1760906E+000	1.1837815E-004
3	0	2.325243974407204E+002	1.1766917E+000	-9.1562819E-005
3	0	2.330243974280893E+002	1.1773031E+000	-1.6790499E-004
3	0	2.335243974154582E+002	1.1779052E+000	-1.5220648E-005
3	0	2.340243974028272E+002	1.1784482E+000	-3.4306191E-005
3	0	2.345243973901961E+002	1.1789579E+000	-1.2973390E-004
3	0	2.350243973775650E+002	1.1794994E+000	4.2035979E-005
3	0	2.355243973649340E+002	1.1801020E+000	-7.2477276E-005
3	0	2.360243973523029E+002	1.1805531E+000	-5.3391734E-005
3	0	2.365243973396719E+002	1.1808215E+000	-3.4306191E-005
3	0	2.370243973270408E+002	1.1809419E+000	-1.5220648E-005
3	0	2.375243973144097E+002	1.1809436E+000	4.2035979E-005
3	0	2.380243973017787E+002	1.1808168E+000	-1.2973390E-004
3	0	2.385243972891476E+002	1.1806186E+000	-1.2973390E-004
3	0	2.390243972765165E+002	1.1804872E+000	-1.6790499E-004
3	0	2.395243972638855E+002	1.1804632E+000	-3.4306191E-005
3	0	2.400243972512544E+002	1.1803360E+000	-1.5220648E-005
3	0	2.405243972386234E+002	1.1800562E+000	-1.5220648E-005
3	0	2.410243972259923E+002	1.1796548E+000	-7.2477276E-005
3	0	2.415243972133612E+002	1.1791563E+000	2.2950437E-005
3	0	2.420243972007302E+002	1.1785030E+000	6.1121522E-005
3	0	2.425243971880991E+002	1.1777763E+000	9.9292607E-005
3	0	2.430243971754680E+002	1.1771383E+000	-1.4881945E-004
3	0	2.435243971628370E+002	1.1766418E+000	-7.2477276E-005
3	0	2.440243971502059E+002	1.1760378E+000	-5.3391734E-005
3	0	2.445243971375749E+002	1.1752372E+000	-1.5220648E-005
3	0	2.450243971249438E+002	1.1742527E+000	3.8648941E-006
3	0	2.455243971123127E+002	1.1731091E+000	4.2035979E-005
3	0	2.460243970996817E+002	1.1717606E+000	-9.1562819E-005
3	0	2.465243970870506E+002	1.1702690E+000	-9.1562819E-005
3	0	2.470243970744195E+002	1.1688536E+000	-3.4306191E-005
3	0	2.475243970617885E+002	1.1676484E+000	-7.2477276E-005
3	0	2.480243970491574E+002	1.1663288E+000	-1.4881945E-004
3	0	2.485243970365264E+002	1.1646878E+000	4.2035979E-005
3	0	2.490243970238953E+002	1.1627115E+000	-5.3391734E-005
3	0	2.495243970112642E+002	1.1604282E+000	-9.1562819E-005
3	0	2.500243969986332E+002	1.1579469E+000	-7.2477276E-005
3	0	2.505243969860021E+002	1.1555476E+000	-1.6790499E-004
3	0	2.510243969733710E+002	1.1537977E+000	-7.2477276E-005
3	0	2.515243969607400E+002	1.1529989E+000	-9.1562819E-005
3	0	2.520243969481089E+002	1.1529107E+000	4.2035979E-005
3	0	2.525243969354779E+002	1.1533687E+000	2.2950437E-005
3	0	2.530243969228468E+002	1.1542659E+000	-7.2477276E-005
3	0	2.535243969102157E+002	1.1554929E+000	-1.5220648E-005
3	0	2.540243968975847E+002	1.1568767E+000	4.2035979E-005
3	0	2.545243968849536E+002	1.1583598E+000	-3.4306191E-005
3	0	2.550243968723225E+002	1.1600937E+000	-5.3391734E-005
3	0	2.555243968596915E+002	1.1619964E+000	-3.4306191E-005
3	0	2.560243968470604E+002	1.1636494E+000	-5.3391734E-005
3	0	2.565243968344294E+002	1.1648991E+000	2.2950437E-005
3	0	2.570243968217983E+002	1.1657704E+000	-9.1562819E-005
3	0	2.575243968091672E+002	1.1663244E+000	-7.2477276E-005
3	0	2.580243967965362E+002	1.1665833E+000	-2.2516162E-004
3	0	2.585243967839051E+002	1.1666744E+000	-5.3391734E-005
3	0	2.590243967712740E+002	1.1668196E+000	2.2950437E-005
3	0	2.595243967586430E+002	1.1670798E+000	-1.2973390E-004
3	0	2.600243967460119E+002	1.1671821E+000	-5.3391734E-005
3	0	2.605243967333809E+002	1.1670073E+000	-1.6790499E-004
3	0	2.610243967207498E+002	1.1665863E+000	4.2035979E-005
3	0	2.615243967081187E+002	1.1659322E+000	-1.5220648E-005
3	0	2.620243966954877E+002	1.1650493E+000	-1.8699054E-004
3	0	2.625243966828566E+002	1.1640295E+000	-7.2477276E-005
3	0	2.630243966702255E+002	1.1631247E+000	-1.4881945E-004
3	0	2.635243966575945E+002	1.1623884E+000	-3.4306191E-005
3	0	2.640243966449634E+002	1.1615525E+000	4.2035979E-005
3	0	2.645243966323324E+002	1.1604635E+000	-3.4306191E-005
3	0	2.650243966197013E+002	1.1591241E+000	8.0207064E-005
3	0	2.655243966070702E+002	1.1575117E+000	-1.4881945E-004
3	0	2.660243965944392E+002	1.1555521E+000	-1.4881945E-004
3	0	2.665243965818081E+002	1.1533018E+000	-5.3391734E-005
3	0	2.670243965691770E+002	1.1510385E+000	-5.3391734E-005
3	0	2.675243965565460E+002	1.1489185E+000	-3.4306191E-005
3	0	2.680243965439149E+002	1.1466343E+000	-9.1562819E-005
3	0	2.685243965312839E+002	1.1439250E+000	-1.2973390E-004
3	0	2.690243965186528E+002	1.1406991E+000	-5.3391734E-005
3	0	2.695243965060217E+002	1.1369840E+000	-1.4881945E-004
3	0	2.700243964933907E+002	1.1328589E+000	-5.3391734E-005
3	0	2.705243964807596E+002	1.1285729E+000	2.2950437E-005
3	0	2.705589964798855E+002	1.1263752E+000	-1.5220648E-005