EC-Lab ASCII FILE
Nb header lines : 48                          

Open Circuit Voltage

Run on channel : 1 (SN 81504)
User : 
CE vs. WE compliance from -10 V to 10 V
Electrode connection : standard
Potential control : Ewe
Ewe ctrl range : min = -2.50 V, max = 2.50 V
Safety Limits :
	Do not start on E overload
Acquisition started on : 05/10/2026 03:53:31.165
Loaded Setting File :  C:\PEM-WE_measurements\2026\372_IV_IV IrOx, 5 min Pt, 30 min C, etched cathode\new station\Loopeis new\1,46 V different time gaps closed cell\Loopeis 1,46V_90s_2_PEIS from 65kHz to 10kHz.mps
Saved on :
	File : L_17_Loopeis 1,46V_90s_2_PEIS from 65kHz to 10kHz_12_OCV_C01.mpr
	Directory : C:\PEM-WE_measurements\2026\372_IV_IV IrOx, 5 min Pt, 30 min C, etched cathode\new station\Loopeis new\1,46 V different time gaps closed cell\
	Host : 192.168.0.2
Device : SP-150e (SN .005491)
Address : 192.168.0.91
EC-LAB for windows v11.71 (software)
Internet server v28.00 (firmware)
Command interpretor v14.01 (firmware)
Electrode material : 
Initial state : 
Electrolyte : 
Comments : 
Current amplifier : SP-150eB-20A
Electrode surface area : 0.001 cm²
Characteristic mass : 0.001 g
Equivalent Weight : 0.000 g/eq.
Density : 0.000 g/cm3
Volume (V) : 0.001 cm³
Record Analogic IN 1
Text export
   Mode : Standard
   Time format : Elapsed
Cycle Definition : Charge/Discharge alternance
tR (h:m:s)          0:01:30.0000        
dER/dt (mV/h)       1.0                 
record              <Ewe>               
dER (mV)            10.00               
dtR (s)             0.5000              
E range min (V)     -2.500              
E range max (V)     2.500               

mode	error	time/s	<Ewe/V>	Analog IN 1/V	
3	0	7.206365916298091E+002	1.1441530E+000	-1.1064836E-004
3	0	7.211365916171781E+002	1.2615774E+000	-1.8699054E-004
3	0	7.216365916045470E+002	1.2638168E+000	-1.1064836E-004
3	0	7.221365915919159E+002	1.2643458E+000	4.2035979E-005
3	0	7.226365915792849E+002	1.2640336E+000	8.0207064E-005
3	0	7.231365915666538E+002	1.2632300E+000	-5.3391734E-005
3	0	7.236365915540227E+002	1.2619207E+000	-9.1562819E-005
3	0	7.241365915413917E+002	1.2600484E+000	-1.5220648E-005
3	0	7.246365915287606E+002	1.2574697E+000	-3.4306191E-005
3	0	7.251365915161296E+002	1.2538253E+000	4.2035979E-005
3	0	7.256365915034985E+002	1.2484589E+000	-1.5220648E-005
3	0	7.261365914908674E+002	1.2403871E+000	6.1121522E-005
3	0	7.266365914782364E+002	1.2284257E+000	-1.2973390E-004
3	0	7.271365914656053E+002	1.2109673E+000	1.5654923E-004
3	0	7.276365914529742E+002	1.1852496E+000	-5.3391734E-005
3	0	7.281365914403432E+002	1.1467361E+000	3.8648941E-006
3	0	7.286365914277121E+002	1.0888963E+000	-1.6790499E-004
3	0	7.291365914150811E+002	1.0040591E+000	-1.2973390E-004
3	0	7.296365914024500E+002	8.8583034E-001	-5.3391734E-005
3	0	7.301365913898189E+002	7.5877839E-001	6.1121522E-005
3	0	7.306365913771879E+002	6.8703836E-001	-3.4306191E-005
3	0	7.311365913645568E+002	6.6515654E-001	-7.2477276E-005
3	0	7.316365913519257E+002	6.5508914E-001	-1.1064836E-004
3	0	7.321365913392947E+002	6.5072405E-001	-1.5220648E-005
3	0	7.326365913266636E+002	6.4950758E-001	2.2950437E-005
3	0	7.331365913140326E+002	6.5024036E-001	-1.2973390E-004
3	0	7.336365913014015E+002	6.5162736E-001	2.2950437E-005
3	0	7.341365912887704E+002	6.5306574E-001	-1.5220648E-005
3	0	7.346365912761394E+002	6.5586990E-001	-7.2477276E-005
3	0	7.351365912635083E+002	6.6154039E-001	-7.2477276E-005
3	0	7.356365912508772E+002	6.6843522E-001	2.2950437E-005
3	0	7.361365912382462E+002	6.7562443E-001	-7.2477276E-005
3	0	7.366365912256151E+002	6.8294019E-001	4.2035979E-005
3	0	7.371365912129841E+002	6.9050741E-001	8.0207064E-005
3	0	7.376365912003530E+002	6.9791573E-001	-5.3391734E-005
3	0	7.381365911877219E+002	7.0505565E-001	2.2950437E-005
3	0	7.386365911750909E+002	7.1298736E-001	-7.2477276E-005
3	0	7.391365911624598E+002	7.2360498E-001	-9.1562819E-005
3	0	7.396365911498287E+002	7.3570335E-001	-1.5220648E-005
3	0	7.401365911371977E+002	7.4776185E-001	-1.5220648E-005
3	0	7.406365911245666E+002	7.5883561E-001	3.8648941E-006
3	0	7.411365911119356E+002	7.6884377E-001	-9.1562819E-005
3	0	7.416365910993045E+002	7.7728021E-001	-7.2477276E-005
3	0	7.421365910866734E+002	7.8402478E-001	-1.8699054E-004
3	0	7.426365910740424E+002	7.9021657E-001	-3.4306191E-005
3	0	7.431365910614113E+002	7.9723167E-001	-7.2477276E-005
3	0	7.436365910487802E+002	8.0421704E-001	-1.2973390E-004
3	0	7.441365910361492E+002	8.0998629E-001	4.2035979E-005
3	0	7.446365910235181E+002	8.1400371E-001	-9.1562819E-005
3	0	7.451365910108871E+002	8.1641036E-001	-2.0607607E-004
3	0	7.456365909982560E+002	8.1708384E-001	3.8648941E-006
3	0	7.461365909856249E+002	8.1619012E-001	-1.1064836E-004
3	0	7.466365909729939E+002	8.1494612E-001	-1.5220648E-005
3	0	7.471365909603628E+002	8.1466430E-001	-5.3391734E-005
3	0	7.476365909477317E+002	8.1481159E-001	3.8648941E-006
3	0	7.481365909351007E+002	8.1435901E-001	-1.1064836E-004
3	0	7.486365909224696E+002	8.1275219E-001	-7.2477276E-005
3	0	7.491365909098386E+002	8.0993545E-001	-1.5220648E-005
3	0	7.496365908972075E+002	8.0585080E-001	6.1121522E-005
3	0	7.501365908845764E+002	8.0074137E-001	-1.5220648E-005
3	0	7.506365908719454E+002	7.9567707E-001	2.2950437E-005
3	0	7.511365908593143E+002	7.9191887E-001	-7.2477276E-005
3	0	7.516365908466832E+002	7.8911000E-001	3.8648941E-006
3	0	7.521365908340522E+002	7.8643090E-001	8.0207064E-005
3	0	7.526365908214211E+002	7.8369129E-001	-9.1562819E-005
3	0	7.531365908087901E+002	7.8168172E-001	6.1121522E-005
3	0	7.536365907961590E+002	7.8202194E-001	4.2035979E-005
3	0	7.541365907835279E+002	7.8650719E-001	-3.4306191E-005
3	0	7.546365907708969E+002	7.9650038E-001	4.2035979E-005
3	0	7.551365907582658E+002	8.1201237E-001	-1.5220648E-005
3	0	7.556365907456347E+002	8.3056849E-001	-5.3391734E-005
3	0	7.561365907330037E+002	8.4880024E-001	3.8648941E-006
3	0	7.566365907203726E+002	8.6487180E-001	-5.3391734E-005
3	0	7.571365907077416E+002	8.7838167E-001	-3.4306191E-005
3	0	7.576365906951105E+002	8.8947302E-001	-3.4306191E-005
3	0	7.581365906824794E+002	8.9872682E-001	2.2950437E-005
3	0	7.586365906698484E+002	9.0704662E-001	-1.2973390E-004
3	0	7.591365906572173E+002	9.1502649E-001	-7.2477276E-005
3	0	7.596365906445862E+002	9.2232019E-001	2.2950437E-005
3	0	7.601365906319552E+002	9.2854017E-001	2.2950437E-005
3	0	7.606365906193241E+002	9.3353021E-001	9.9292607E-005
3	0	7.611365906066931E+002	9.3725699E-001	-1.5220648E-005
3	0	7.616365905940620E+002	9.3976575E-001	-1.6790499E-004
3	0	7.621365905814309E+002	9.4135112E-001	-9.1562819E-005
3	0	7.626365905687999E+002	9.4258815E-001	-9.1562819E-005
3	0	7.631365905561688E+002	9.4384468E-001	-5.3391734E-005
3	0	7.636365905435378E+002	9.4475287E-001	-1.2973390E-004
3	0	7.641365905309067E+002	9.4488597E-001	-7.2477276E-005
3	0	7.646365905182756E+002	9.4410199E-001	4.2035979E-005
3	0	7.651365905056446E+002	9.4239038E-001	-7.2477276E-005
3	0	7.656365904930135E+002	9.3986589E-001	-5.3391734E-005
3	0	7.661365904803824E+002	9.3677592E-001	-3.4306191E-005
3	0	7.666365904677514E+002	9.3361294E-001	2.2950437E-005
3	0	7.671365904551203E+002	9.3066293E-001	-1.2973390E-004
3	0	7.676365904424893E+002	9.2752075E-001	6.1121522E-005
3	0	7.681365904298582E+002	9.2374760E-001	-9.1562819E-005
3	0	7.686365904172271E+002	9.1918355E-001	-9.1562819E-005
3	0	7.691365904045961E+002	9.1372299E-001	-1.5220648E-005
3	0	7.696365903919650E+002	9.0728384E-001	-5.3391734E-005
3	0	7.701365903793339E+002	9.0006578E-001	-3.4306191E-005
3	0	7.706365903667029E+002	8.9261872E-001	-1.5220648E-005
3	0	7.711365903540718E+002	8.8538498E-001	-3.4306191E-005
3	0	7.716365903414408E+002	8.7801236E-001	-9.1562819E-005
3	0	7.721365903288097E+002	8.7006956E-001	-7.2477276E-005
3	0	7.726365903161786E+002	8.6152619E-001	-1.5220648E-005
3	0	7.731365903035476E+002	8.5269654E-001	4.2035979E-005
3	0	7.736365902909165E+002	8.4409106E-001	4.2035979E-005
3	0	7.741365902782854E+002	8.3652282E-001	3.8648941E-006
3	0	7.746365902656544E+002	8.3105856E-001	6.1121522E-005
3	0	7.751365902530233E+002	8.2859534E-001	-1.5220648E-005
3	0	7.756365902403923E+002	8.2883567E-001	-9.1562819E-005
3	0	7.761365902277612E+002	8.3093774E-001	4.2035979E-005
3	0	7.766365902151301E+002	8.3423299E-001	-9.1562819E-005
3	0	7.771365902024991E+002	8.3821881E-001	-1.1064836E-004
3	0	7.776365901898680E+002	8.4248161E-001	-5.3391734E-005
3	0	7.781365901772369E+002	8.4687358E-001	-3.4306191E-005
3	0	7.786365901646059E+002	8.5180163E-001	-9.1562819E-005
3	0	7.791365901519748E+002	8.5743737E-001	2.2950437E-005
3	0	7.796365901393438E+002	8.6311948E-001	-3.4306191E-005
3	0	7.801365901267127E+002	8.6815727E-001	3.8648941E-006
3	0	7.806365901140816E+002	8.7216765E-001	-3.4306191E-005
3	0	7.811365901014506E+002	8.7500387E-001	6.1121522E-005
3	0	7.816365900888195E+002	8.7658119E-001	4.2035979E-005
3	0	7.821365900761884E+002	8.7708920E-001	2.2950437E-005
3	0	7.826365900635574E+002	8.7716717E-001	-7.2477276E-005
3	0	7.831365900509263E+002	8.7724602E-001	-5.3391734E-005
3	0	7.836365900382953E+002	8.7694752E-001	-1.5220648E-005
3	0	7.841365900256642E+002	8.7575120E-001	-5.3391734E-005
3	0	7.846365900130331E+002	8.7343717E-001	-5.3391734E-005
3	0	7.851365900004021E+002	8.6994380E-001	3.8648941E-006
3	0	7.856365899877710E+002	8.6525500E-001	-9.1562819E-005
3	0	7.861365899751399E+002	8.5957122E-001	2.2950437E-005
3	0	7.866365899625089E+002	8.5352689E-001	-1.5220648E-005
3	0	7.871365899498778E+002	8.4771734E-001	4.2035979E-005
3	0	7.876365899372468E+002	8.4183609E-001	-3.4306191E-005
3	0	7.881365899246157E+002	8.3528715E-001	-1.2973390E-004
3	0	7.886365899119846E+002	8.2775187E-001	3.8648941E-006
3	0	7.891365898993536E+002	8.1916189E-001	-1.8699054E-004
3	0	7.896365898867225E+002	8.0935830E-001	-1.1064836E-004
3	0	7.901365898740914E+002	7.9863322E-001	-7.2477276E-005
3	0	7.906365898614604E+002	7.8793579E-001	1.1837815E-004
3	0	7.911365898488293E+002	7.7819782E-001	-3.4306191E-005
3	0	7.916365898361983E+002	7.6906246E-001	-1.2973390E-004
3	0	7.921365898235672E+002	7.5997442E-001	8.0207064E-005
3	0	7.926365898109361E+002	7.5091410E-001	-3.4306191E-005
3	0	7.931365897983051E+002	7.4207634E-001	-1.2973390E-004
3	0	7.936365897856740E+002	7.3373002E-001	-5.3391734E-005
3	0	7.941365897730429E+002	7.2644615E-001	-3.4306191E-005
3	0	7.946365897604119E+002	7.2133279E-001	-1.4881945E-004
3	0	7.951365897477808E+002	7.1964014E-001	3.8648941E-006
3	0	7.956365897351498E+002	7.2092742E-001	4.2035979E-005
3	0	7.961365897225187E+002	7.2420800E-001	-2.0607607E-004
3	0	7.966365897098876E+002	7.2875303E-001	-3.4306191E-005
3	0	7.971365896972566E+002	7.3402679E-001	6.1121522E-005
3	0	7.976365896846255E+002	7.3948365E-001	8.0207064E-005
3	0	7.981365896719944E+002	7.4475640E-001	2.2950437E-005
3	0	7.986365896593634E+002	7.5027359E-001	-5.3391734E-005
3	0	7.991365896467323E+002	7.5666618E-001	-2.0607607E-004
3	0	7.996365896341013E+002	7.6331681E-001	-7.2477276E-005
3	0	8.001365896214702E+002	7.6929063E-001	6.1121522E-005
3	0	8.006365896088391E+002	7.7405471E-001	4.2035979E-005
3	0	8.011365895962081E+002	7.7738827E-001	-1.5220648E-005
3	0	8.016365895835770E+002	7.7914399E-001	-5.3391734E-005
3	0	8.021365895709459E+002	7.7948380E-001	-3.4306191E-005
3	0	8.026365895583149E+002	7.7915603E-001	-7.2477276E-005
3	0	8.031365895456838E+002	7.7898020E-001	-5.3391734E-005
3	0	8.036365895330528E+002	7.7855366E-001	-7.2477276E-005
3	0	8.041365895204217E+002	7.7720815E-001	-1.4881945E-004
3	0	8.046365895077906E+002	7.7460402E-001	-7.2477276E-005
3	0	8.051365894951596E+002	7.7054411E-001	-1.2973390E-004
3	0	8.056365894825285E+002	7.6475209E-001	-3.4306191E-005
3	0	8.061365894698974E+002	7.5760698E-001	-1.5220648E-005
3	0	8.066365894572664E+002	7.5021845E-001	-7.2477276E-005
3	0	8.071365894446353E+002	7.4367452E-001	-7.2477276E-005
3	0	8.076365894320043E+002	7.3742896E-001	-3.4306191E-005
3	0	8.081365894193732E+002	7.3062027E-001	-1.5220648E-005
3	0	8.086365894067421E+002	7.2286630E-001	-1.5220648E-005
3	0	8.091365893941111E+002	7.1414280E-001	2.2950437E-005
3	0	8.096365893814800E+002	7.0446897E-001	-2.8241824E-004
3	0	8.101365893688489E+002	6.9416159E-001	3.8648941E-006
3	0	8.101705893679900E+002	6.8871033E-001	-1.1064836E-004