EC-Lab ASCII FILE
Nb header lines : 48                          

Open Circuit Voltage

Run on channel : 1 (SN 81504)
User : 
CE vs. WE compliance from -10 V to 10 V
Electrode connection : standard
Potential control : Ewe
Ewe ctrl range : min = -2.50 V, max = 2.50 V
Safety Limits :
	Do not start on E overload
Acquisition started on : 05/10/2026 03:53:31.165
Loaded Setting File :  C:\PEM-WE_measurements\2026\372_IV_IV IrOx, 5 min Pt, 30 min C, etched cathode\new station\Loopeis new\1,46 V different time gaps closed cell\Loopeis 1,46V_90s_2_PEIS from 65kHz to 10kHz.mps
Saved on :
	File : L_17_Loopeis 1,46V_90s_2_PEIS from 65kHz to 10kHz_10_OCV_C01.mpr
	Directory : C:\PEM-WE_measurements\2026\372_IV_IV IrOx, 5 min Pt, 30 min C, etched cathode\new station\Loopeis new\1,46 V different time gaps closed cell\
	Host : 192.168.0.2
Device : SP-150e (SN .005491)
Address : 192.168.0.91
EC-LAB for windows v11.71 (software)
Internet server v28.00 (firmware)
Command interpretor v14.01 (firmware)
Electrode material : 
Initial state : 
Electrolyte : 
Comments : 
Current amplifier : SP-150eB-20A
Electrode surface area : 0.001 cm²
Characteristic mass : 0.001 g
Equivalent Weight : 0.000 g/eq.
Density : 0.000 g/cm3
Volume (V) : 0.001 cm³
Record Analogic IN 1
Text export
   Mode : Standard
   Time format : Elapsed
Cycle Definition : Charge/Discharge alternance
tR (h:m:s)          0:01:30.0000        
dER/dt (mV/h)       1.0                 
record              <Ewe>               
dER (mV)            10.00               
dtR (s)             0.5000              
E range min (V)     -2.500              
E range max (V)     2.500               

mode	error	time/s	<Ewe/V>	Analog IN 1/V	
3	0	5.866123918099765E+002	1.2802234E+000	-1.5220648E-005
3	0	5.871123917973455E+002	1.2869972E+000	9.9292607E-005
3	0	5.876123917847144E+002	1.2884669E+000	-9.1562819E-005
3	0	5.881123917720834E+002	1.2885605E+000	-1.4881945E-004
3	0	5.886123917594523E+002	1.2879130E+000	-1.5220648E-005
3	0	5.891123917468212E+002	1.2867333E+000	-9.1562819E-005
3	0	5.896123917341902E+002	1.2850293E+000	-1.6790499E-004
3	0	5.901123917215591E+002	1.2827047E+000	-1.2973390E-004
3	0	5.906123917089280E+002	1.2795829E+000	-1.1064836E-004
3	0	5.911123916962970E+002	1.2753975E+000	-7.2477276E-005
3	0	5.916123916836659E+002	1.2693275E+000	-9.1562819E-005
3	0	5.921123916710349E+002	1.2603254E+000	-5.3391734E-005
3	0	5.926123916584038E+002	1.2472140E+000	2.2950437E-005
3	0	5.931123916457727E+002	1.2284929E+000	-1.5220648E-005
3	0	5.936123916331417E+002	1.2023036E+000	2.2950437E-005
3	0	5.941123916205106E+002	1.1661878E+000	4.2035979E-005
3	0	5.946123916078795E+002	1.1178485E+000	3.8648941E-006
3	0	5.951123915952485E+002	1.0570153E+000	4.2035979E-005
3	0	5.956123915826174E+002	9.8575854E-001	-9.1562819E-005
3	0	5.961123915699864E+002	9.0905309E-001	-1.6790499E-004
3	0	5.966123915573553E+002	8.3869720E-001	8.0207064E-005
3	0	5.971123915447242E+002	7.8482497E-001	-1.1064836E-004
3	0	5.976123915320932E+002	7.4921572E-001	-1.1064836E-004
3	0	5.981123915194621E+002	7.2799087E-001	-1.1064836E-004
3	0	5.986123915068310E+002	7.1699357E-001	-3.4306191E-005
3	0	5.991123914942000E+002	7.1447110E-001	-2.2516162E-004
3	0	5.996123914815689E+002	7.1786910E-001	-5.3391734E-005
3	0	6.001123914689379E+002	7.2356564E-001	-1.2973390E-004
3	0	6.006123914563068E+002	7.3024869E-001	-1.2973390E-004
3	0	6.011123914436757E+002	7.3680532E-001	2.2950437E-005
3	0	6.016123914310447E+002	7.4265325E-001	-1.5220648E-005
3	0	6.021123914184136E+002	7.4727595E-001	3.8648941E-006
3	0	6.026123914057825E+002	7.5103933E-001	-1.4881945E-004
3	0	6.031123913931515E+002	7.5555593E-001	2.2950437E-005
3	0	6.036123913805204E+002	7.6128513E-001	8.0207064E-005
3	0	6.041123913678894E+002	7.6697475E-001	-3.4306191E-005
3	0	6.046123913552583E+002	7.7208948E-001	-2.0607607E-004
3	0	6.051123913426272E+002	7.7614832E-001	3.8648941E-006
3	0	6.056123913299962E+002	7.7889013E-001	-5.3391734E-005
3	0	6.061123913173651E+002	7.8019851E-001	-3.4306191E-005
3	0	6.066123913047340E+002	7.8064942E-001	3.8648941E-006
3	0	6.071123912921030E+002	7.8146911E-001	-2.0607607E-004
3	0	6.076123912794719E+002	7.8306085E-001	-1.2973390E-004
3	0	6.081123912668409E+002	7.8442711E-001	-2.0607607E-004
3	0	6.086123912542098E+002	7.8515136E-001	3.8648941E-006
3	0	6.091123912415787E+002	7.8493685E-001	-5.3391734E-005
3	0	6.096123912289477E+002	7.8370398E-001	-5.3391734E-005
3	0	6.101123912163166E+002	7.8134054E-001	-7.2477276E-005
3	0	6.106123912036855E+002	7.7844369E-001	-1.1064836E-004
3	0	6.111123911910545E+002	7.7632922E-001	-1.5220648E-005
3	0	6.116123911784234E+002	7.7554792E-001	-5.3391734E-005
3	0	6.121123911657924E+002	7.7565402E-001	-9.1562819E-005
3	0	6.126123911531613E+002	7.7661443E-001	4.2035979E-005
3	0	6.131123911405302E+002	7.7855515E-001	2.2950437E-005
3	0	6.136123911278992E+002	7.8156525E-001	-1.1064836E-004
3	0	6.141123911152681E+002	7.8584856E-001	-3.4306191E-005
3	0	6.146123911026370E+002	7.9186749E-001	-1.6790499E-004
3	0	6.151123910900060E+002	8.0048007E-001	6.1121522E-005
3	0	6.156123910773749E+002	8.1161636E-001	-3.4306191E-005
3	0	6.161123910647439E+002	8.2417834E-001	-9.1562819E-005
3	0	6.166123910521128E+002	8.3734465E-001	-9.1562819E-005
3	0	6.171123910394817E+002	8.5034758E-001	4.2035979E-005
3	0	6.176123910268507E+002	8.6267048E-001	-9.1562819E-005
3	0	6.181123910142196E+002	8.7411052E-001	-9.1562819E-005
3	0	6.186123910015885E+002	8.8482708E-001	-7.2477276E-005
3	0	6.191123909889575E+002	8.9530379E-001	3.8648941E-006
3	0	6.196123909763264E+002	9.0547466E-001	-9.1562819E-005
3	0	6.201123909636954E+002	9.1480827E-001	-3.4306191E-005
3	0	6.206123909510643E+002	9.2299163E-001	2.2950437E-005
3	0	6.211123909384332E+002	9.2984068E-001	3.8648941E-006
3	0	6.216123909258022E+002	9.3530822E-001	4.2035979E-005
3	0	6.221123909131711E+002	9.3945348E-001	-1.8699054E-004
3	0	6.226123909005400E+002	9.4273639E-001	-9.1562819E-005
3	0	6.231123908879090E+002	9.4578940E-001	2.2950437E-005
3	0	6.236123908752779E+002	9.4861096E-001	-5.3391734E-005
3	0	6.241123908626469E+002	9.5087475E-001	8.0207064E-005
3	0	6.246123908500158E+002	9.5243293E-001	9.9292607E-005
3	0	6.251123908373847E+002	9.5316637E-001	-9.1562819E-005
3	0	6.256123908247537E+002	9.5304924E-001	8.0207064E-005
3	0	6.261123908121226E+002	9.5212102E-001	-1.5220648E-005
3	0	6.266123907994916E+002	9.5076752E-001	-7.2477276E-005
3	0	6.271123907868605E+002	9.4952554E-001	-1.6790499E-004
3	0	6.276123907742294E+002	9.4833082E-001	-3.4306191E-005
3	0	6.281123907615984E+002	9.4680494E-001	-1.1064836E-004
3	0	6.286123907489673E+002	9.4476587E-001	-5.3391734E-005
3	0	6.291123907363362E+002	9.4203126E-001	-2.0607607E-004
3	0	6.296123907237052E+002	9.3855315E-001	-7.2477276E-005
3	0	6.301123907110741E+002	9.3434829E-001	6.1121522E-005
3	0	6.306123906984431E+002	9.2976946E-001	-1.5220648E-005
3	0	6.311123906858120E+002	9.2543763E-001	-7.2477276E-005
3	0	6.316123906731809E+002	9.2148322E-001	-1.5220648E-005
3	0	6.321123906605499E+002	9.1773999E-001	2.2950437E-005
3	0	6.326123906479188E+002	9.1422492E-001	-5.3391734E-005
3	0	6.331123906352877E+002	9.1098571E-001	-1.2973390E-004
3	0	6.336123906226567E+002	9.0824133E-001	-7.2477276E-005
3	0	6.341123906100256E+002	9.0635902E-001	-7.2477276E-005
3	0	6.346123905973946E+002	9.0592378E-001	-1.5220648E-005
3	0	6.351123905847635E+002	9.0753031E-001	-1.4881945E-004
3	0	6.356123905721324E+002	9.1101736E-001	-7.2477276E-005
3	0	6.361123905595014E+002	9.1567749E-001	6.1121522E-005
3	0	6.366123905468703E+002	9.2095542E-001	-1.2973390E-004
3	0	6.371123905342392E+002	9.2635012E-001	2.2950437E-005
3	0	6.376123905216082E+002	9.3148863E-001	3.8648941E-006
3	0	6.381123905089771E+002	9.3619615E-001	-7.2477276E-005
3	0	6.386123904963461E+002	9.4064939E-001	6.1121522E-005
3	0	6.391123904837150E+002	9.4517171E-001	-1.5220648E-005
3	0	6.396123904710839E+002	9.4957680E-001	-1.5220648E-005
3	0	6.401123904584529E+002	9.5346135E-001	-1.5220648E-005
3	0	6.406123904458218E+002	9.5663023E-001	6.1121522E-005
3	0	6.411123904331907E+002	9.5894653E-001	-1.2973390E-004
3	0	6.416123904205597E+002	9.6037799E-001	3.8648941E-006
3	0	6.421123904079286E+002	9.6100241E-001	-1.1064836E-004
3	0	6.426123903952976E+002	9.6113098E-001	3.8648941E-006
3	0	6.431123903826665E+002	9.6115756E-001	4.2035979E-005
3	0	6.436123903700354E+002	9.6100229E-001	3.8648941E-006
3	0	6.441123903574044E+002	9.6036458E-001	-5.3391734E-005
3	0	6.446123903447733E+002	9.5913160E-001	-1.5220648E-005
3	0	6.451123903321422E+002	9.5712417E-001	-1.6790499E-004
3	0	6.456123903195112E+002	9.5425481E-001	-1.2973390E-004
3	0	6.461123903068801E+002	9.5055163E-001	-1.2973390E-004
3	0	6.466123902942491E+002	9.4641721E-001	-1.5220648E-005
3	0	6.471123902816180E+002	9.4234133E-001	-1.2973390E-004
3	0	6.476123902689869E+002	9.3822622E-001	2.2950437E-005
3	0	6.481123902563559E+002	9.3373346E-001	8.0207064E-005
3	0	6.486123902437248E+002	9.2869878E-001	-9.1562819E-005
3	0	6.491123902310937E+002	9.2296129E-001	1.3746369E-004
3	0	6.496123902184627E+002	9.1637933E-001	3.8648941E-006
3	0	6.501123902058316E+002	9.0887612E-001	-3.4306191E-005
3	0	6.506123901932006E+002	9.0079576E-001	2.2950437E-005
3	0	6.511123901805695E+002	8.9280051E-001	-7.2477276E-005
3	0	6.516123901679384E+002	8.8501674E-001	-5.3391734E-005
3	0	6.521123901553074E+002	8.7723088E-001	3.8648941E-006
3	0	6.526123901426763E+002	8.6952102E-001	-5.3391734E-005
3	0	6.531123901300452E+002	8.6204320E-001	6.1121522E-005
3	0	6.536123901174142E+002	8.5489416E-001	-3.4306191E-005
3	0	6.541123901047831E+002	8.4815180E-001	-3.4306191E-005
3	0	6.546123900921521E+002	8.4216559E-001	-7.2477276E-005
3	0	6.551123900795210E+002	8.3752078E-001	-1.5220648E-005
3	0	6.556123900668899E+002	8.3412856E-001	4.2035979E-005
3	0	6.561123900542589E+002	8.3128804E-001	-5.3391734E-005
3	0	6.566123900416278E+002	8.2854956E-001	-7.2477276E-005
3	0	6.571123900289967E+002	8.2548892E-001	-1.4881945E-004
3	0	6.576123900163657E+002	8.2188314E-001	-7.2477276E-005
3	0	6.581123900037346E+002	8.1823063E-001	-5.3391734E-005
3	0	6.586123899911036E+002	8.1486124E-001	-7.2477276E-005
3	0	6.591123899784725E+002	8.1192988E-001	-9.1562819E-005
3	0	6.596123899658414E+002	8.0925167E-001	4.2035979E-005
3	0	6.601123899532104E+002	8.0611724E-001	-5.3391734E-005
3	0	6.606123899405793E+002	8.0218732E-001	2.2950437E-005
3	0	6.611123899279482E+002	7.9733282E-001	-9.1562819E-005
3	0	6.616123899153172E+002	7.9139632E-001	-1.5220648E-005
3	0	6.621123899026861E+002	7.8434974E-001	-7.2477276E-005
3	0	6.626123898900551E+002	7.7667546E-001	-5.3391734E-005
3	0	6.631123898774240E+002	7.6929879E-001	4.2035979E-005
3	0	6.636123898647929E+002	7.6254797E-001	-3.4306191E-005
3	0	6.641123898521619E+002	7.5579828E-001	3.8648941E-006
3	0	6.646123898395308E+002	7.4860191E-001	8.0207064E-005
3	0	6.651123898268997E+002	7.4088490E-001	-2.0607607E-004
3	0	6.656123898142687E+002	7.3262525E-001	-1.6790499E-004
3	0	6.661123898016376E+002	7.2404861E-001	-5.3391734E-005
3	0	6.666123897890066E+002	7.1559346E-001	-1.4881945E-004
3	0	6.671123897763755E+002	7.0827711E-001	6.1121522E-005
3	0	6.676123897637444E+002	7.0260870E-001	-1.5220648E-005
3	0	6.681123897511134E+002	6.9778085E-001	-5.3391734E-005
3	0	6.686123897384823E+002	6.9312376E-001	-9.1562819E-005
3	0	6.691123897258512E+002	6.8841970E-001	8.0207064E-005
3	0	6.696123897132202E+002	6.8347019E-001	-7.2477276E-005
3	0	6.701123897005891E+002	6.7807162E-001	-7.2477276E-005
3	0	6.706123896879581E+002	6.7263192E-001	-7.2477276E-005
3	0	6.711123896753270E+002	6.6827112E-001	-1.1064836E-004
3	0	6.716123896626959E+002	6.6537374E-001	-7.2477276E-005
3	0	6.721123896500649E+002	6.6309005E-001	1.3746369E-004
3	0	6.726123896374338E+002	6.6114187E-001	2.2950437E-005
3	0	6.731123896248027E+002	6.5969682E-001	6.1121522E-005
3	0	6.736123896121717E+002	6.5890992E-001	4.2035979E-005
3	0	6.741123895995406E+002	6.5874827E-001	8.0207064E-005
3	0	6.746123895869096E+002	6.5953964E-001	-1.5220648E-005
3	0	6.751123895742785E+002	6.6259652E-001	-5.3391734E-005
3	0	6.756123895616474E+002	6.6839147E-001	-9.1562819E-005
3	0	6.761123895490164E+002	6.7578977E-001	-7.2477276E-005
3	0	6.761127895490063E+002	6.7979991E-001	-1.6790499E-004