EC-Lab ASCII FILE
Nb header lines : 48                          

Open Circuit Voltage

Run on channel : 1 (SN 81504)
User : 
CE vs. WE compliance from -10 V to 10 V
Electrode connection : standard
Potential control : Ewe
Ewe ctrl range : min = -2.50 V, max = 2.50 V
Safety Limits :
	Do not start on E overload
Acquisition started on : 05/10/2026 03:53:31.165
Loaded Setting File :  C:\PEM-WE_measurements\2026\372_IV_IV IrOx, 5 min Pt, 30 min C, etched cathode\new station\Loopeis new\1,46 V different time gaps closed cell\Loopeis 1,46V_90s_2_PEIS from 65kHz to 10kHz.mps
Saved on :
	File : L_17_Loopeis 1,46V_90s_2_PEIS from 65kHz to 10kHz_18_OCV_C01.mpr
	Directory : C:\PEM-WE_measurements\2026\372_IV_IV IrOx, 5 min Pt, 30 min C, etched cathode\new station\Loopeis new\1,46 V different time gaps closed cell\
	Host : 192.168.0.2
Device : SP-150e (SN .005491)
Address : 192.168.0.91
EC-LAB for windows v11.71 (software)
Internet server v28.00 (firmware)
Command interpretor v14.01 (firmware)
Electrode material : 
Initial state : 
Electrolyte : 
Comments : 
Current amplifier : SP-150eB-20A
Electrode surface area : 0.001 cm²
Characteristic mass : 0.001 g
Equivalent Weight : 0.000 g/eq.
Density : 0.000 g/cm3
Volume (V) : 0.001 cm³
Record Analogic IN 1
Text export
   Mode : Standard
   Time format : Elapsed
Cycle Definition : Charge/Discharge alternance
tR (h:m:s)          0:01:30.0000        
dER/dt (mV/h)       1.0                 
record              <Ewe>               
dER (mV)            10.00               
dtR (s)             0.5000              
E range min (V)     -2.500              
E range max (V)     2.500               

mode	error	time/s	<Ewe/V>	Analog IN 1/V	
3	0	1.127577984762393E+003	1.2828637E+000	-1.2973390E-004
3	0	1.128077984749762E+003	1.2895302E+000	8.0207064E-005
3	0	1.128577984737130E+003	1.2907000E+000	-7.2477276E-005
3	0	1.129077984724499E+003	1.2904826E+000	-1.1064836E-004
3	0	1.129577984711868E+003	1.2894391E+000	-1.1064836E-004
3	0	1.130077984699237E+003	1.2877233E+000	3.8648941E-006
3	0	1.130577984686606E+003	1.2854377E+000	-1.2973390E-004
3	0	1.131077984673975E+003	1.2822801E+000	8.0207064E-005
3	0	1.131577984661344E+003	1.2775892E+000	-9.1562819E-005
3	0	1.132077984648713E+003	1.2702198E+000	-9.1562819E-005
3	0	1.132577984636082E+003	1.2585124E+000	-9.1562819E-005
3	0	1.133077984623451E+003	1.2401006E+000	3.8648941E-006
3	0	1.133577984610820E+003	1.2113174E+000	3.8648941E-006
3	0	1.134077984598189E+003	1.1655229E+000	-3.4306191E-005
3	0	1.134577984585558E+003	1.0893844E+000	-2.0607607E-004
3	0	1.135077984572927E+003	9.5967829E-001	3.8648941E-006
3	0	1.135577984560296E+003	7.7426219E-001	-9.1562819E-005
3	0	1.136077984547665E+003	6.5934187E-001	-1.5220648E-005
3	0	1.136577984535033E+003	6.2897611E-001	-1.1064836E-004
3	0	1.137077984522402E+003	6.1984682E-001	-1.5220648E-005
3	0	1.137577984509771E+003	6.1827552E-001	-1.5220648E-005
3	0	1.138077984497140E+003	6.2015766E-001	-7.2477276E-005
3	0	1.138577984484509E+003	6.2498230E-001	-1.5220648E-005
3	0	1.139077984471878E+003	6.3115799E-001	-1.5220648E-005
3	0	1.139577984459247E+003	6.3703412E-001	1.3746369E-004
3	0	1.140077984446616E+003	6.4224416E-001	3.8648941E-006
3	0	1.140577984433985E+003	6.4704388E-001	-5.3391734E-005
3	0	1.141077984421354E+003	6.5148437E-001	3.8648941E-006
3	0	1.141577984408723E+003	6.5495598E-001	3.8648941E-006
3	0	1.142077984396092E+003	6.5811819E-001	-1.2973390E-004
3	0	1.142577984383461E+003	6.6257298E-001	-1.1064836E-004
3	0	1.143077984370830E+003	6.6803479E-001	-7.2477276E-005
3	0	1.143577984358199E+003	6.7324728E-001	-1.8699054E-004
3	0	1.144077984345568E+003	6.7782551E-001	2.2950437E-005
3	0	1.144577984332936E+003	6.8178678E-001	-1.8699054E-004
3	0	1.145077984320305E+003	6.8514168E-001	-3.4306191E-005
3	0	1.145577984307674E+003	6.8743485E-001	-5.3391734E-005
3	0	1.146077984295043E+003	6.8917018E-001	-1.6790499E-004
3	0	1.146577984282412E+003	6.9205379E-001	-9.1562819E-005
3	0	1.147077984269781E+003	6.9611663E-001	-9.1562819E-005
3	0	1.147577984257150E+003	6.9989651E-001	-3.4306191E-005
3	0	1.148077984244519E+003	7.0278460E-001	-3.4306191E-005
3	0	1.148577984231888E+003	7.0469612E-001	-5.3391734E-005
3	0	1.149077984219257E+003	7.0540774E-001	-7.2477276E-005
3	0	1.149577984206626E+003	7.0481759E-001	-3.4306191E-005
3	0	1.150077984193995E+003	7.0375627E-001	-3.4306191E-005
3	0	1.150577984181364E+003	7.0402664E-001	2.2950437E-005
3	0	1.151077984168733E+003	7.0559645E-001	-7.2477276E-005
3	0	1.151577984156102E+003	7.0706868E-001	3.8648941E-006
3	0	1.152077984143471E+003	7.0779282E-001	-1.5220648E-005
3	0	1.152577984130839E+003	7.0758963E-001	-9.1562819E-005
3	0	1.153077984118208E+003	7.0640105E-001	-3.4306191E-005
3	0	1.153577984105577E+003	7.0393997E-001	-1.5220648E-005
3	0	1.154077984092946E+003	7.0095843E-001	-7.2477276E-005
3	0	1.154577984080315E+003	6.9943750E-001	6.1121522E-005
3	0	1.155077984067684E+003	7.0000100E-001	9.9292607E-005
3	0	1.155577984055053E+003	7.0166540E-001	-7.2477276E-005
3	0	1.156077984042422E+003	7.0402527E-001	-7.2477276E-005
3	0	1.156577984029791E+003	7.0709074E-001	-1.4881945E-004
3	0	1.157077984017160E+003	7.1099615E-001	-2.0607607E-004
3	0	1.157577984004529E+003	7.1565366E-001	4.2035979E-005
3	0	1.158077983991898E+003	7.2162932E-001	-7.2477276E-005
3	0	1.158577983979267E+003	7.2999251E-001	3.8648941E-006
3	0	1.159077983966636E+003	7.4091506E-001	-1.5220648E-005
3	0	1.159577983954005E+003	7.5289565E-001	-1.1064836E-004
3	0	1.160077983941374E+003	7.6487029E-001	4.2035979E-005
3	0	1.160577983928742E+003	7.7611744E-001	1.5654923E-004
3	0	1.161077983916111E+003	7.8616822E-001	3.8648941E-006
3	0	1.161577983903480E+003	7.9480278E-001	9.9292607E-005
3	0	1.162077983890849E+003	8.0254078E-001	-7.2477276E-005
3	0	1.162577983878218E+003	8.1054938E-001	-7.2477276E-005
3	0	1.163077983865587E+003	8.1883508E-001	2.2950437E-005
3	0	1.163577983852956E+003	8.2643783E-001	3.8648941E-006
3	0	1.164077983840325E+003	8.3268130E-001	-1.6790499E-004
3	0	1.164577983827694E+003	8.3719027E-001	6.1121522E-005
3	0	1.165077983815063E+003	8.3976156E-001	2.2950437E-005
3	0	1.165577983802432E+003	8.4047312E-001	-7.2477276E-005
3	0	1.166077983789801E+003	8.3990151E-001	-5.3391734E-005
3	0	1.166577983777170E+003	8.3920795E-001	6.1121522E-005
3	0	1.167077983764539E+003	8.3865952E-001	-1.1064836E-004
3	0	1.167577983751908E+003	8.3755875E-001	-5.3391734E-005
3	0	1.168077983739277E+003	8.3534694E-001	-7.2477276E-005
3	0	1.168577983726645E+003	8.3170325E-001	-5.3391734E-005
3	0	1.169077983714014E+003	8.2653069E-001	-5.3391734E-005
3	0	1.169577983701383E+003	8.1985462E-001	4.2035979E-005
3	0	1.170077983688752E+003	8.1237352E-001	-5.3391734E-005
3	0	1.170577983676121E+003	8.0527449E-001	-1.1064836E-004
3	0	1.171077983663490E+003	7.9892808E-001	-1.1064836E-004
3	0	1.171577983650859E+003	7.9259002E-001	-3.4306191E-005
3	0	1.172077983638228E+003	7.8563452E-001	-1.5220648E-005
3	0	1.172577983625597E+003	7.7767181E-001	-5.3391734E-005
3	0	1.173077983612966E+003	7.6848221E-001	2.2950437E-005
3	0	1.173577983600335E+003	7.5814795E-001	4.2035979E-005
3	0	1.174077983587704E+003	7.4746561E-001	-7.2477276E-005
3	0	1.174577983575073E+003	7.3814178E-001	-3.4306191E-005
3	0	1.175077983562442E+003	7.3090106E-001	-1.1064836E-004
3	0	1.175577983549811E+003	7.2531062E-001	-9.1562819E-005
3	0	1.176077983537180E+003	7.2119933E-001	4.2035979E-005
3	0	1.176577983524548E+003	7.1855253E-001	2.2950437E-005
3	0	1.177077983511917E+003	7.1737498E-001	-1.2973390E-004
3	0	1.177577983499286E+003	7.1765244E-001	4.2035979E-005
3	0	1.178077983486655E+003	7.1964568E-001	-1.1064836E-004
3	0	1.178577983474024E+003	7.2434467E-001	-1.1064836E-004
3	0	1.179077983461393E+003	7.3167670E-001	-1.1064836E-004
3	0	1.179577983448762E+003	7.4030578E-001	9.9292607E-005
3	0	1.180077983436131E+003	7.4921733E-001	-9.1562819E-005
3	0	1.180577983423500E+003	7.5770807E-001	3.8648941E-006
3	0	1.181077983410869E+003	7.6526982E-001	4.2035979E-005
3	0	1.181577983398238E+003	7.7156878E-001	-5.3391734E-005
3	0	1.182077983385607E+003	7.7696472E-001	-1.5220648E-005
3	0	1.182577983372976E+003	7.8234798E-001	-1.4881945E-004
3	0	1.183077983360345E+003	7.8791106E-001	-1.1064836E-004
3	0	1.183577983347714E+003	7.9285258E-001	6.1121522E-005
3	0	1.184077983335083E+003	7.9654425E-001	-7.2477276E-005
3	0	1.184577983322451E+003	7.9862899E-001	3.8648941E-006
3	0	1.185077983309820E+003	7.9897356E-001	-1.1064836E-004
3	0	1.185577983297189E+003	7.9737467E-001	-7.2477276E-005
3	0	1.186077983284558E+003	7.9445881E-001	-7.2477276E-005
3	0	1.186577983271927E+003	7.9152024E-001	-9.1562819E-005
3	0	1.187077983259296E+003	7.8875893E-001	3.8648941E-006
3	0	1.187577983246665E+003	7.8549880E-001	-1.5220648E-005
3	0	1.188077983234034E+003	7.8123921E-001	-3.4306191E-005
3	0	1.188577983221403E+003	7.7569175E-001	-5.3391734E-005
3	0	1.189077983208772E+003	7.6877427E-001	-5.3391734E-005
3	0	1.189577983196141E+003	7.6049215E-001	3.8648941E-006
3	0	1.190077983183510E+003	7.5131989E-001	4.2035979E-005
3	0	1.190577983170879E+003	7.4268627E-001	-1.5220648E-005
3	0	1.191077983158248E+003	7.3489898E-001	-9.1562819E-005
3	0	1.191577983145617E+003	7.2718704E-001	-1.5220648E-005
3	0	1.192077983132986E+003	7.1906692E-001	-1.4881945E-004
3	0	1.192577983120354E+003	7.1017414E-001	-1.2973390E-004
3	0	1.193077983107723E+003	7.0134640E-001	6.1121522E-005
3	0	1.193577983095092E+003	6.9293416E-001	-1.4881945E-004
3	0	1.194077983082461E+003	6.8456513E-001	-5.3391734E-005
3	0	1.194577983069830E+003	6.7729557E-001	4.2035979E-005
3	0	1.195077983057199E+003	6.7162526E-001	-7.2477276E-005
3	0	1.195577983044568E+003	6.6678834E-001	-9.1562819E-005
3	0	1.196077983031937E+003	6.6294229E-001	-1.2973390E-004
3	0	1.196577983019306E+003	6.6029328E-001	-3.4306191E-005
3	0	1.197077983006675E+003	6.5874738E-001	-1.4881945E-004
3	0	1.197577982994044E+003	6.5820354E-001	3.8648941E-006
3	0	1.198077982981413E+003	6.5898305E-001	1.1837815E-004
3	0	1.198577982968782E+003	6.6240239E-001	-9.1562819E-005
3	0	1.199077982956151E+003	6.6818053E-001	-1.6790499E-004
3	0	1.199577982943520E+003	6.7485803E-001	-1.5220648E-005
3	0	1.200077982930889E+003	6.8192160E-001	-9.1562819E-005
3	0	1.200577982918257E+003	6.8888885E-001	-9.1562819E-005
3	0	1.201077982905626E+003	6.9533885E-001	-2.4424717E-004
3	0	1.201577982892995E+003	7.0075291E-001	-2.0607607E-004
3	0	1.202077982880364E+003	7.0515496E-001	6.1121522E-005
3	0	1.202577982867733E+003	7.0980906E-001	9.9292607E-005
3	0	1.203077982855102E+003	7.1473265E-001	3.8648941E-006
3	0	1.203577982842471E+003	7.1874064E-001	-3.4306191E-005
3	0	1.204077982829840E+003	7.2149700E-001	-1.2973390E-004
3	0	1.204577982817209E+003	7.2281295E-001	2.2950437E-005
3	0	1.205077982804578E+003	7.2250986E-001	-1.6790499E-004
3	0	1.205577982791947E+003	7.2035444E-001	4.2035979E-005
3	0	1.206077982779316E+003	7.1684897E-001	-5.3391734E-005
3	0	1.206577982766685E+003	7.1332330E-001	-3.4306191E-005
3	0	1.207077982754054E+003	7.1001315E-001	-7.2477276E-005
3	0	1.207577982741423E+003	7.0589429E-001	8.0207064E-005
3	0	1.208077982728792E+003	7.0078629E-001	-7.2477276E-005
3	0	1.208577982716160E+003	6.9468755E-001	-1.5220648E-005
3	0	1.209077982703529E+003	6.8760180E-001	-1.5220648E-005
3	0	1.209577982690898E+003	6.7941463E-001	-1.1064836E-004
3	0	1.210077982678267E+003	6.7070436E-001	-1.5220648E-005
3	0	1.210577982665636E+003	6.6320664E-001	-7.2477276E-005
3	0	1.211077982653005E+003	6.5705317E-001	8.0207064E-005
3	0	1.211577982640374E+003	6.5102834E-001	-5.3391734E-005
3	0	1.212077982627743E+003	6.4496607E-001	-1.5220648E-005
3	0	1.212577982615112E+003	6.3882715E-001	-1.5220648E-005
3	0	1.213077982602481E+003	6.3252985E-001	-3.4306191E-005
3	0	1.213577982589850E+003	6.2577587E-001	-1.1064836E-004
3	0	1.214077982577219E+003	6.1891949E-001	4.2035979E-005
3	0	1.214577982564588E+003	6.1340469E-001	-5.3391734E-005
3	0	1.215077982551957E+003	6.0939473E-001	6.1121522E-005
3	0	1.215577982539326E+003	6.0589236E-001	-9.1562819E-005
3	0	1.216077982526695E+003	6.0306722E-001	-1.4881945E-004
3	0	1.216577982514063E+003	6.0098547E-001	-1.2973390E-004
3	0	1.217077982501432E+003	5.9968925E-001	3.8648941E-006
3	0	1.217078382501422E+003	5.9926611E-001	-9.1562819E-005