EC-Lab ASCII FILE
Nb header lines : 55                          

Open Circuit Voltage

Run on channel : 1 (SN 81504)
User : 
CE vs. WE compliance from -10 V to 10 V
Electrode connection : standard
Potential control : Ewe
Ewe ctrl range : min = -2.50 V, max = 2.50 V
Safety Limits :
	Do not start on E overload
Acquisition started on : 05/10/2026 04:16:10.113
Loaded Setting File :  C:\PEM-WE_measurements\2026\372_IV_IV IrOx, 5 min Pt, 30 min C, etched cathode\new station\Loopeis new\1,46 V different time gaps closed cell\Loopeis 1,46V_90s_3_PEIS from 6500Hz to 1000Hz.mps
Saved on :
	File : L_18_Loopeis 1,46V_90s_3_PEIS from 6500Hz to 1000Hz_10_OCV_C01.mpr
	Directory : C:\PEM-WE_measurements\2026\372_IV_IV IrOx, 5 min Pt, 30 min C, etched cathode\new station\Loopeis new\1,46 V different time gaps closed cell\
	Host : 192.168.0.2
Device : SP-150e (SN .005491)
Address : 192.168.0.91
EC-LAB for windows v11.71 (software)
Internet server v28.00 (firmware)
Command interpretor v14.01 (firmware)
Electrode material : 
Initial state : 
Electrolyte : 
Comments : 
Current amplifier : SP-150eB-20A
Electrode surface area : 0.001 cm²
Characteristic mass : 0.001 g
Equivalent Weight : 0.000 g/eq.
Density : 0.000 g/cm3
Volume (V) : 0.001 cm³
Record Analogic IN 1
Text export
   Mode : Standard
   Time format : Elapsed
Cycle Definition : Charge/Discharge alternance
External device configuration :
   device type : Temperature Probe
   device name : Other
   Analog IN 1 : 
      unit : T/Â°C
      max : 100.000 at 2.000 V
      min : 0.000 at 1.460 V
tR (h:m:s)          0:01:30.0000        
dER/dt (mV/h)       1.0                 
record              <Ewe>               
dER (mV)            10.00               
dtR (s)             0.5000              
E range min (V)     -2.500              
E range max (V)     2.500               

mode	error	time/s	<Ewe/V>	Analog IN 1/V	
3	0	5.854423917544045E+002	1.2849954E+000	-2.7037326E+002
3	0	5.859423917417735E+002	1.2917603E+000	-2.7037677E+002
3	0	5.864423917291424E+002	1.2927871E+000	-2.7039093E+002
3	0	5.869423917165113E+002	1.2924016E+000	-2.7036972E+002
3	0	5.874423917038803E+002	1.2911873E+000	-2.7038031E+002
3	0	5.879423916912492E+002	1.2894225E+000	-2.7038385E+002
3	0	5.884423916786182E+002	1.2870001E+000	-2.7038031E+002
3	0	5.889423916659871E+002	1.2835246E+000	-2.7039447E+002
3	0	5.894423916533560E+002	1.2782779E+000	-2.7037326E+002
3	0	5.899423916407250E+002	1.2700539E+000	-2.7038742E+002
3	0	5.904423916280939E+002	1.2570869E+000	-2.7036972E+002
3	0	5.909423916154628E+002	1.2369503E+000	-2.7037326E+002
3	0	5.914423916028318E+002	1.2056452E+000	-2.7035559E+002
3	0	5.919423915902007E+002	1.1543924E+000	-2.7036618E+002
3	0	5.924423915775697E+002	1.0605888E+000	-2.7036267E+002
3	0	5.929423915649386E+002	8.8056529E-001	-2.7040506E+002
3	0	5.934423915523075E+002	6.8273401E-001	-2.7038385E+002
3	0	5.939423915396765E+002	6.1615616E-001	-2.7035559E+002
3	0	5.944423915270454E+002	5.9635806E-001	-2.7037326E+002
3	0	5.949423915144143E+002	5.8837736E-001	-2.7035913E+002
3	0	5.954423915017833E+002	5.8498335E-001	-2.7038742E+002
3	0	5.959423914891522E+002	5.8531570E-001	-2.7037677E+002
3	0	5.964423914765212E+002	5.8803427E-001	-2.7039447E+002
3	0	5.969423914638901E+002	5.9103429E-001	-2.7037677E+002
3	0	5.974423914512590E+002	5.9371853E-001	-2.7036267E+002
3	0	5.979423914386280E+002	5.9626389E-001	-2.7036267E+002
3	0	5.984423914259969E+002	5.9865171E-001	-2.7039447E+002
3	0	5.989423914133658E+002	6.0013807E-001	-2.7036618E+002
3	0	5.994423914007348E+002	6.0088110E-001	-2.7035913E+002
3	0	5.999423913881037E+002	6.0266697E-001	-2.7037677E+002
3	0	6.004423913754727E+002	6.0546303E-001	-2.7040506E+002
3	0	6.009423913628416E+002	6.0793704E-001	-2.7036267E+002
3	0	6.014423913502105E+002	6.1003006E-001	-2.7036972E+002
3	0	6.019423913375795E+002	6.1225301E-001	-2.7038742E+002
3	0	6.024423913249484E+002	6.1444622E-001	-2.7037677E+002
3	0	6.029423913123173E+002	6.1638558E-001	-2.7038031E+002
3	0	6.034423912996863E+002	6.1797976E-001	-2.7039093E+002
3	0	6.039423912870552E+002	6.2105405E-001	-2.7037677E+002
3	0	6.044423912744242E+002	6.2547737E-001	-2.7036618E+002
3	0	6.049423912617931E+002	6.2985724E-001	-2.7038742E+002
3	0	6.054423912491620E+002	6.3380539E-001	-2.7038385E+002
3	0	6.059423912365310E+002	6.3749975E-001	-2.7037677E+002
3	0	6.064423912238999E+002	6.4094770E-001	-2.7035913E+002
3	0	6.069423912112688E+002	6.4358008E-001	-2.7038742E+002
3	0	6.074423911986378E+002	6.4575559E-001	-2.7039801E+002
3	0	6.079423911860067E+002	6.4904201E-001	-2.7038742E+002
3	0	6.084423911733757E+002	6.5331537E-001	-2.7035559E+002
3	0	6.089423911607446E+002	6.5727681E-001	-2.7036618E+002
3	0	6.094423911481135E+002	6.6065717E-001	-2.7035559E+002
3	0	6.099423911354825E+002	6.6350520E-001	-2.7040155E+002
3	0	6.104423911228514E+002	6.6594130E-001	-2.7038031E+002
3	0	6.109423911102203E+002	6.6719180E-001	-2.7037326E+002
3	0	6.114423910975893E+002	6.6772789E-001	-2.7036972E+002
3	0	6.119423910849582E+002	6.6920924E-001	-2.7037677E+002
3	0	6.124423910723272E+002	6.7175937E-001	-2.7040155E+002
3	0	6.129423910596961E+002	6.7380571E-001	-2.7038385E+002
3	0	6.134423910470650E+002	6.7500186E-001	-2.7037326E+002
3	0	6.139423910344340E+002	6.7551368E-001	-2.7036972E+002
3	0	6.144423910218029E+002	6.7526072E-001	-2.7036972E+002
3	0	6.149423910091718E+002	6.7390949E-001	-2.7036618E+002
3	0	6.154423909965408E+002	6.7178929E-001	-2.7037677E+002
3	0	6.159423909839097E+002	6.7062420E-001	-2.7037677E+002
3	0	6.164423909712787E+002	6.7076027E-001	-2.7039447E+002
3	0	6.169423909586476E+002	6.7064577E-001	-2.7038385E+002
3	0	6.174423909460165E+002	6.6953987E-001	-2.7038385E+002
3	0	6.179423909333855E+002	6.6787487E-001	-2.7037677E+002
3	0	6.184423909207544E+002	6.6560614E-001	-2.7039093E+002
3	0	6.189423909081233E+002	6.6233057E-001	-2.7038385E+002
3	0	6.194423908954923E+002	6.5852356E-001	-2.7037326E+002
3	0	6.199423908828612E+002	6.5598100E-001	-2.7038742E+002
3	0	6.204423908702302E+002	6.5504652E-001	-2.7035559E+002
3	0	6.209423908575991E+002	6.5419465E-001	-2.7039093E+002
3	0	6.214423908449680E+002	6.5309143E-001	-2.7037677E+002
3	0	6.219423908323370E+002	6.5208215E-001	-2.7038031E+002
3	0	6.224423908197059E+002	6.5129489E-001	-2.7036267E+002
3	0	6.229423908070748E+002	6.5045595E-001	-2.7035559E+002
3	0	6.234423907944438E+002	6.4988893E-001	-2.7039447E+002
3	0	6.239423907818127E+002	6.5126073E-001	-2.7039801E+002
3	0	6.244423907691817E+002	6.5499252E-001	-2.7036972E+002
3	0	6.249423907565506E+002	6.5952671E-001	-2.7040506E+002
3	0	6.254423907439195E+002	6.6410452E-001	-2.7040155E+002
3	0	6.259423907312885E+002	6.6851372E-001	-2.7036618E+002
3	0	6.264423907186574E+002	6.7260349E-001	-2.7041919E+002
3	0	6.269423907060263E+002	6.7583948E-001	-2.7035205E+002
3	0	6.274423906933953E+002	6.7845100E-001	-2.7038385E+002
3	0	6.279423906807642E+002	6.8181843E-001	-2.7038031E+002
3	0	6.284423906681332E+002	6.8650061E-001	-2.7036618E+002
3	0	6.289423906555021E+002	6.9089943E-001	-2.7037326E+002
3	0	6.294423906428710E+002	6.9429100E-001	-2.7037677E+002
3	0	6.299423906302400E+002	6.9649214E-001	-2.7035913E+002
3	0	6.304423906176089E+002	6.9736189E-001	-2.7039093E+002
3	0	6.309423906049778E+002	6.9674081E-001	-2.7038031E+002
3	0	6.314423905923468E+002	6.9498807E-001	-2.7036972E+002
3	0	6.319423905797157E+002	6.9383699E-001	-2.7037326E+002
3	0	6.324423905670847E+002	6.9379568E-001	-2.7035913E+002
3	0	6.329423905544536E+002	6.9343513E-001	-2.7037326E+002
3	0	6.334423905418225E+002	6.9204158E-001	-2.7037677E+002
3	0	6.339423905291915E+002	6.8957675E-001	-2.7036267E+002
3	0	6.344423905165604E+002	6.8607992E-001	-2.7038031E+002
3	0	6.349423905039293E+002	6.8143022E-001	-2.7037677E+002
3	0	6.354423904912983E+002	6.7600739E-001	-2.7036267E+002
3	0	6.359423904786672E+002	6.7156684E-001	-2.7040155E+002
3	0	6.364423904660362E+002	6.6861856E-001	-2.7037677E+002
3	0	6.369423904534051E+002	6.6575128E-001	-2.7038031E+002
3	0	6.374423904407740E+002	6.6227132E-001	-2.7038031E+002
3	0	6.379423904281430E+002	6.5829778E-001	-2.7038031E+002
3	0	6.384423904155119E+002	6.5391129E-001	-2.7040506E+002
3	0	6.389423904028808E+002	6.4887220E-001	-2.7036618E+002
3	0	6.394423903902498E+002	6.4341247E-001	-2.7041214E+002
3	0	6.399423903776187E+002	6.3891804E-001	-2.7038031E+002
3	0	6.404423903649877E+002	6.3600713E-001	-2.7037326E+002
3	0	6.409423903523566E+002	6.3340759E-001	-2.7036267E+002
3	0	6.414423903397255E+002	6.3057458E-001	-2.7038031E+002
3	0	6.419423903270945E+002	6.2778133E-001	-2.7040860E+002
3	0	6.424423903144634E+002	6.2529325E-001	-2.7038031E+002
3	0	6.429423903018323E+002	6.2280667E-001	-2.7035913E+002
3	0	6.434423902892013E+002	6.2075764E-001	-2.7037326E+002
3	0	6.439423902765702E+002	6.2068743E-001	-2.7036618E+002
3	0	6.444423902639392E+002	6.2305897E-001	-2.7039801E+002
3	0	6.449423902513081E+002	6.2644982E-001	-2.7037326E+002
3	0	6.454423902386770E+002	6.3015896E-001	-2.7039447E+002
3	0	6.459423902260460E+002	6.3401473E-001	-2.7037326E+002
3	0	6.464423902134149E+002	6.3764733E-001	-2.7035913E+002
3	0	6.469423902007838E+002	6.4054179E-001	-2.7039093E+002
3	0	6.474423901881528E+002	6.4268577E-001	-2.7039801E+002
3	0	6.479423901755217E+002	6.4531386E-001	-2.7038385E+002
3	0	6.484423901628907E+002	6.4891928E-001	-2.7037326E+002
3	0	6.489423901502596E+002	6.5226883E-001	-2.7039093E+002
3	0	6.494423901376285E+002	6.5470403E-001	-2.7040155E+002
3	0	6.499423901249975E+002	6.5623128E-001	-2.7038742E+002
3	0	6.504423901123664E+002	6.5659636E-001	-2.7040155E+002
3	0	6.509423900997353E+002	6.5537637E-001	-2.7035559E+002
3	0	6.514423900871043E+002	6.5301895E-001	-2.7036972E+002
3	0	6.519423900744732E+002	6.5135545E-001	-2.7034851E+002
3	0	6.524423900618422E+002	6.5089422E-001	-2.7036972E+002
3	0	6.529423900492111E+002	6.5007722E-001	-2.7037677E+002
3	0	6.534423900365800E+002	6.4833432E-001	-2.7038742E+002
3	0	6.539423900239490E+002	6.4571428E-001	-2.7039093E+002
3	0	6.544423900113179E+002	6.4218563E-001	-2.7034851E+002
3	0	6.549423899986868E+002	6.3748538E-001	-2.7039093E+002
3	0	6.554423899860558E+002	6.3208133E-001	-2.7039093E+002
3	0	6.559423899734247E+002	6.2784100E-001	-2.7037326E+002
3	0	6.564423899607937E+002	6.2494338E-001	-2.7037677E+002
3	0	6.569423899481626E+002	6.2192655E-001	-2.7039447E+002
3	0	6.574423899355315E+002	6.1835372E-001	-2.7036972E+002
3	0	6.579423899229005E+002	6.1435598E-001	-2.7038742E+002
3	0	6.584423899102694E+002	6.0994041E-001	-2.7037326E+002
3	0	6.589423898976384E+002	6.0487342E-001	-2.7037326E+002
3	0	6.594423898850073E+002	5.9930009E-001	-2.7037677E+002
3	0	6.599423898723762E+002	5.9480339E-001	-2.7036267E+002
3	0	6.604423898597452E+002	5.9167099E-001	-2.7039093E+002
3	0	6.609423898471141E+002	5.8849013E-001	-2.7038742E+002
3	0	6.614423898344830E+002	5.8514643E-001	-2.7037326E+002
3	0	6.619423898218520E+002	5.8181661E-001	-2.7038742E+002
3	0	6.624423898092209E+002	5.7869470E-001	-2.7038031E+002
3	0	6.629423897965899E+002	5.7558131E-001	-2.7038031E+002
3	0	6.634423897839588E+002	5.7285589E-001	-2.7038031E+002
3	0	6.639423897713277E+002	5.7210076E-001	-2.7039801E+002
3	0	6.644423897586967E+002	5.7355094E-001	-2.7038031E+002
3	0	6.649423897460656E+002	5.7570404E-001	-2.7039093E+002
3	0	6.654423897334345E+002	5.7809716E-001	-2.7038031E+002
3	0	6.659423897208035E+002	5.8074027E-001	-2.7038031E+002
3	0	6.664423897081724E+002	5.8331084E-001	-2.7038031E+002
3	0	6.669423896955414E+002	5.8530790E-001	-2.7038385E+002
3	0	6.674423896829103E+002	5.8676410E-001	-2.7036972E+002
3	0	6.679423896702792E+002	5.8931065E-001	-2.7035913E+002
3	0	6.684423896576482E+002	5.9295976E-001	-2.7039447E+002
3	0	6.689423896450171E+002	5.9622210E-001	-2.7037677E+002
3	0	6.694423896323860E+002	5.9861511E-001	-2.7036618E+002
3	0	6.699423896197550E+002	6.0031277E-001	-2.7037326E+002
3	0	6.704423896071239E+002	6.0119104E-001	-2.7038031E+002
3	0	6.709423895944929E+002	6.0079116E-001	-2.7035913E+002
3	0	6.714423895818618E+002	5.9930527E-001	-2.7037677E+002
3	0	6.719423895692307E+002	5.9852368E-001	-2.7038031E+002
3	0	6.724423895565997E+002	5.9867221E-001	-2.7039093E+002
3	0	6.729423895439686E+002	5.9829354E-001	-2.7038742E+002
3	0	6.734423895313375E+002	5.9689116E-001	-2.7036972E+002
3	0	6.739423895187065E+002	5.9474587E-001	-2.7038385E+002
3	0	6.744423895060754E+002	5.9186858E-001	-2.7039093E+002
3	0	6.749423894934444E+002	5.8792472E-001	-2.7037677E+002
3	0	6.749427894934342E+002	5.8565933E-001	-2.7038742E+002