EC-Lab ASCII FILE
Nb header lines : 55                          

Open Circuit Voltage

Run on channel : 1 (SN 81504)
User : 
CE vs. WE compliance from -10 V to 10 V
Electrode connection : standard
Potential control : Ewe
Ewe ctrl range : min = -2.50 V, max = 2.50 V
Safety Limits :
	Do not start on E overload
Acquisition started on : 05/10/2026 04:16:10.113
Loaded Setting File :  C:\PEM-WE_measurements\2026\372_IV_IV IrOx, 5 min Pt, 30 min C, etched cathode\new station\Loopeis new\1,46 V different time gaps closed cell\Loopeis 1,46V_90s_3_PEIS from 6500Hz to 1000Hz.mps
Saved on :
	File : L_18_Loopeis 1,46V_90s_3_PEIS from 6500Hz to 1000Hz_20_OCV_C01.mpr
	Directory : C:\PEM-WE_measurements\2026\372_IV_IV IrOx, 5 min Pt, 30 min C, etched cathode\new station\Loopeis new\1,46 V different time gaps closed cell\
	Host : 192.168.0.2
Device : SP-150e (SN .005491)
Address : 192.168.0.91
EC-LAB for windows v11.71 (software)
Internet server v28.00 (firmware)
Command interpretor v14.01 (firmware)
Electrode material : 
Initial state : 
Electrolyte : 
Comments : 
Current amplifier : SP-150eB-20A
Electrode surface area : 0.001 cm²
Characteristic mass : 0.001 g
Equivalent Weight : 0.000 g/eq.
Density : 0.000 g/cm3
Volume (V) : 0.001 cm³
Record Analogic IN 1
Text export
   Mode : Standard
   Time format : Elapsed
Cycle Definition : Charge/Discharge alternance
External device configuration :
   device type : Temperature Probe
   device name : Other
   Analog IN 1 : 
      unit : T/Â°C
      max : 100.000 at 2.000 V
      min : 0.000 at 1.460 V
tR (h:m:s)          0:01:30.0000        
dER/dt (mV/h)       1.0                 
record              <Ewe>               
dER (mV)            10.00               
dtR (s)             0.5000              
E range min (V)     -2.500              
E range max (V)     2.500               

mode	error	time/s	<Ewe/V>	Analog IN 1/V	
3	0	1.267036584839661E+003	1.1383975E+000	-2.7037677E+002
3	0	1.267536584827030E+003	1.2609088E+000	-2.7040155E+002
3	0	1.268036584814399E+003	1.2628183E+000	-2.7041214E+002
3	0	1.268536584801768E+003	1.2629980E+000	-2.7037677E+002
3	0	1.269036584789137E+003	1.2621815E+000	-2.7036618E+002
3	0	1.269536584776506E+003	1.2605205E+000	-2.7039801E+002
3	0	1.270036584763875E+003	1.2578762E+000	-2.7039447E+002
3	0	1.270536584751244E+003	1.2538271E+000	-2.7035205E+002
3	0	1.271036584738613E+003	1.2476598E+000	-2.7036972E+002
3	0	1.271536584725982E+003	1.2382611E+000	-2.7037677E+002
3	0	1.272036584713351E+003	1.2238795E+000	-2.7036267E+002
3	0	1.272536584700720E+003	1.2016082E+000	-2.7036972E+002
3	0	1.273036584688089E+003	1.1661899E+000	-2.7037677E+002
3	0	1.273536584675458E+003	1.1055547E+000	-2.7038031E+002
3	0	1.274036584662827E+003	9.9197990E-001	-2.7040860E+002
3	0	1.274536584650195E+003	7.9411960E-001	-2.7036618E+002
3	0	1.275036584637564E+003	6.4738792E-001	-2.7036618E+002
3	0	1.275536584624933E+003	6.0589689E-001	-2.7038742E+002
3	0	1.276036584612302E+003	5.9281474E-001	-2.7037677E+002
3	0	1.276536584599671E+003	5.8943582E-001	-2.7037677E+002
3	0	1.277036584587040E+003	5.8966923E-001	-2.7039093E+002
3	0	1.277536584574409E+003	5.9160221E-001	-2.7037326E+002
3	0	1.278036584561778E+003	5.9432471E-001	-2.7035559E+002
3	0	1.278536584549147E+003	5.9666979E-001	-2.7036972E+002
3	0	1.279036584536516E+003	5.9833890E-001	-2.7039801E+002
3	0	1.279536584523885E+003	6.0077411E-001	-2.7035913E+002
3	0	1.280036584511254E+003	6.0442787E-001	-2.7037326E+002
3	0	1.280536584498623E+003	6.0762942E-001	-2.7036972E+002
3	0	1.281036584485992E+003	6.1001933E-001	-2.7039801E+002
3	0	1.281536584473361E+003	6.1200219E-001	-2.7037677E+002
3	0	1.282036584460730E+003	6.1357069E-001	-2.7039447E+002
3	0	1.282536584448098E+003	6.1440319E-001	-2.7036618E+002
3	0	1.283036584435467E+003	6.1445129E-001	-2.7042981E+002
3	0	1.283536584422836E+003	6.1505419E-001	-2.7038031E+002
3	0	1.284036584410205E+003	6.1701775E-001	-2.7037326E+002
3	0	1.284536584397574E+003	6.1877638E-001	-2.7036618E+002
3	0	1.285036584384943E+003	6.2004095E-001	-2.7035559E+002
3	0	1.285536584372312E+003	6.2109655E-001	-2.7038031E+002
3	0	1.286036584359681E+003	6.2223577E-001	-2.7036267E+002
3	0	1.286536584347050E+003	6.2304127E-001	-2.7038385E+002
3	0	1.287036584334419E+003	6.2368995E-001	-2.7041568E+002
3	0	1.287536584321788E+003	6.2535566E-001	-2.7038742E+002
3	0	1.288036584309157E+003	6.2892222E-001	-2.7036618E+002
3	0	1.288536584296526E+003	6.3292283E-001	-2.7038031E+002
3	0	1.289036584283895E+003	6.3645387E-001	-2.7039093E+002
3	0	1.289536584271264E+003	6.3976741E-001	-2.7037677E+002
3	0	1.290036584258633E+003	6.4286351E-001	-2.7038031E+002
3	0	1.290536584246001E+003	6.4535314E-001	-2.7038031E+002
3	0	1.291036584233370E+003	6.4709872E-001	-2.7038031E+002
3	0	1.291536584220739E+003	6.4950305E-001	-2.7039093E+002
3	0	1.292036584208108E+003	6.5342903E-001	-2.7038031E+002
3	0	1.292536584195477E+003	6.5734494E-001	-2.7040506E+002
3	0	1.293036584182846E+003	6.6048950E-001	-2.7037326E+002
3	0	1.293536584170215E+003	6.6307229E-001	-2.7038031E+002
3	0	1.294036584157584E+003	6.6517562E-001	-2.7040506E+002
3	0	1.294536584144953E+003	6.6627908E-001	-2.7039093E+002
3	0	1.295036584132322E+003	6.6640532E-001	-2.7037326E+002
3	0	1.295536584119691E+003	6.6687983E-001	-2.7036972E+002
3	0	1.296036584107060E+003	6.6888011E-001	-2.7035913E+002
3	0	1.296536584094429E+003	6.7071939E-001	-2.7039093E+002
3	0	1.297036584081798E+003	6.7154092E-001	-2.7039447E+002
3	0	1.297536584069167E+003	6.7159671E-001	-2.7037326E+002
3	0	1.298036584056536E+003	6.7104173E-001	-2.7036972E+002
3	0	1.298536584043904E+003	6.6939276E-001	-2.7036972E+002
3	0	1.299036584031273E+003	6.6694075E-001	-2.7037326E+002
3	0	1.299536584018642E+003	6.6493231E-001	-2.7039093E+002
3	0	1.300036584006011E+003	6.6456658E-001	-2.7038742E+002
3	0	1.300536583993380E+003	6.6427106E-001	-2.7038742E+002
3	0	1.301036583980749E+003	6.6321051E-001	-2.7037677E+002
3	0	1.301536583968118E+003	6.6135579E-001	-2.7040155E+002
3	0	1.302036583955487E+003	6.5890974E-001	-2.7038742E+002
3	0	1.302536583942856E+003	6.5566301E-001	-2.7037326E+002
3	0	1.303036583930225E+003	6.5174824E-001	-2.7037677E+002
3	0	1.303536583917594E+003	6.4860749E-001	-2.7040155E+002
3	0	1.304036583904963E+003	6.4732689E-001	-2.7038742E+002
3	0	1.304536583892332E+003	6.4637244E-001	-2.7036267E+002
3	0	1.305036583879701E+003	6.4503735E-001	-2.7038031E+002
3	0	1.305536583867070E+003	6.4345729E-001	-2.7038031E+002
3	0	1.306036583854439E+003	6.4193821E-001	-2.7038742E+002
3	0	1.306536583841807E+003	6.4017308E-001	-2.7037326E+002
3	0	1.307036583829176E+003	6.3825059E-001	-2.7034497E+002
3	0	1.307536583816545E+003	6.3776714E-001	-2.7039093E+002
3	0	1.308036583803914E+003	6.3985169E-001	-2.7038385E+002
3	0	1.308536583791283E+003	6.4312446E-001	-2.7038031E+002
3	0	1.309036583778652E+003	6.4670444E-001	-2.7037326E+002
3	0	1.309536583766021E+003	6.5037137E-001	-2.7039093E+002
3	0	1.310036583753390E+003	6.5396541E-001	-2.7039447E+002
3	0	1.310536583740759E+003	6.5716511E-001	-2.7039093E+002
3	0	1.311036583728128E+003	6.5965950E-001	-2.7037326E+002
3	0	1.311536583715497E+003	6.6253000E-001	-2.7036618E+002
3	0	1.312036583702866E+003	6.6688085E-001	-2.7038031E+002
3	0	1.312536583690235E+003	6.7142928E-001	-2.7036972E+002
3	0	1.313036583677604E+003	6.7515880E-001	-2.7036972E+002
3	0	1.313536583664973E+003	6.7793697E-001	-2.7038742E+002
3	0	1.314036583652342E+003	6.7960870E-001	-2.7035205E+002
3	0	1.314536583639710E+003	6.8000656E-001	-2.7039093E+002
3	0	1.315036583627079E+003	6.7916912E-001	-2.7034851E+002
3	0	1.315536583614448E+003	6.7836106E-001	-2.7039093E+002
3	0	1.316036583601817E+003	6.7877573E-001	-2.7036618E+002
3	0	1.316536583589186E+003	6.7912579E-001	-2.7040155E+002
3	0	1.317036583576555E+003	6.7852116E-001	-2.7038031E+002
3	0	1.317536583563924E+003	6.7688870E-001	-2.7036618E+002
3	0	1.318036583551293E+003	6.7440140E-001	-2.7039447E+002
3	0	1.318536583538662E+003	6.7071652E-001	-2.7036618E+002
3	0	1.319036583526031E+003	6.6596490E-001	-2.7036618E+002
3	0	1.319536583513400E+003	6.6157401E-001	-2.7038742E+002
3	0	1.320036583500769E+003	6.5888566E-001	-2.7039093E+002
3	0	1.320536583488138E+003	6.5649694E-001	-2.7038031E+002
3	0	1.321036583475507E+003	6.5358937E-001	-2.7040155E+002
3	0	1.321536583462876E+003	6.5001911E-001	-2.7035913E+002
3	0	1.322036583450245E+003	6.4583510E-001	-2.7036267E+002
3	0	1.322536583437613E+003	6.4089906E-001	-2.7038742E+002
3	0	1.323036583424982E+003	6.3537288E-001	-2.7039447E+002
3	0	1.323536583412351E+003	6.3036710E-001	-2.7039093E+002
3	0	1.324036583399720E+003	6.2697107E-001	-2.7039801E+002
3	0	1.324536583387089E+003	6.2403286E-001	-2.7037326E+002
3	0	1.325036583374458E+003	6.2094414E-001	-2.7036972E+002
3	0	1.325536583361827E+003	6.1773181E-001	-2.7038385E+002
3	0	1.326036583349196E+003	6.1461985E-001	-2.7036972E+002
3	0	1.326536583336565E+003	6.1147004E-001	-2.7038031E+002
3	0	1.327036583323934E+003	6.0845119E-001	-2.7038385E+002
3	0	1.327536583311303E+003	6.0677862E-001	-2.7036618E+002
3	0	1.328036583298672E+003	6.0752982E-001	-2.7036972E+002
3	0	1.328536583286041E+003	6.0951191E-001	-2.7040506E+002
3	0	1.329036583273410E+003	6.1197346E-001	-2.7035205E+002
3	0	1.329536583260779E+003	6.1472315E-001	-2.7039093E+002
3	0	1.330036583248148E+003	6.1746955E-001	-2.7038385E+002
3	0	1.330536583235516E+003	6.1974978E-001	-2.7038031E+002
3	0	1.331036583222885E+003	6.2124944E-001	-2.7037677E+002
3	0	1.331536583210254E+003	6.2298167E-001	-2.7038385E+002
3	0	1.332036583197623E+003	6.2597674E-001	-2.7038385E+002
3	0	1.332536583184992E+003	6.2896544E-001	-2.7040506E+002
3	0	1.333036583172361E+003	6.3124472E-001	-2.7037677E+002
3	0	1.333536583159730E+003	6.3273823E-001	-2.7037677E+002
3	0	1.334036583147099E+003	6.3345528E-001	-2.7036267E+002
3	0	1.334536583134468E+003	6.3306284E-001	-2.7036972E+002
3	0	1.335036583121837E+003	6.3154399E-001	-2.7039801E+002
3	0	1.335536583109206E+003	6.2998563E-001	-2.7040506E+002
3	0	1.336036583096575E+003	6.2960076E-001	-2.7040506E+002
3	0	1.336536583083944E+003	6.2923968E-001	-2.7038742E+002
3	0	1.337036583071313E+003	6.2812001E-001	-2.7038742E+002
3	0	1.337536583058682E+003	6.2624788E-001	-2.7034851E+002
3	0	1.338036583046051E+003	6.2363201E-001	-2.7038385E+002
3	0	1.338536583033419E+003	6.1996371E-001	-2.7036267E+002
3	0	1.339036583020788E+003	6.1536533E-001	-2.7036267E+002
3	0	1.339536583008157E+003	6.1113322E-001	-2.7036972E+002
3	0	1.340036582995526E+003	6.0841477E-001	-2.7038385E+002
3	0	1.340536582982895E+003	6.0597783E-001	-2.7039801E+002
3	0	1.341036582970264E+003	6.0311449E-001	-2.7034851E+002
3	0	1.341536582957633E+003	5.9986663E-001	-2.7038385E+002
3	0	1.342036582945002E+003	5.9622556E-001	-2.7036972E+002
3	0	1.342536582932371E+003	5.9199250E-001	-2.7037677E+002
3	0	1.343036582919740E+003	5.8694494E-001	-2.7037326E+002
3	0	1.343536582907109E+003	5.8233702E-001	-2.7038031E+002
3	0	1.344036582894478E+003	5.7920986E-001	-2.7036267E+002
3	0	1.344536582881847E+003	5.7626963E-001	-2.7037326E+002
3	0	1.345036582869216E+003	5.7299292E-001	-2.7037677E+002
3	0	1.345536582856585E+003	5.6946224E-001	-2.7037326E+002
3	0	1.346036582843954E+003	5.6594718E-001	-2.7039093E+002
3	0	1.346536582831322E+003	5.6231838E-001	-2.7039093E+002
3	0	1.347036582818691E+003	5.5876637E-001	-2.7039447E+002
3	0	1.347536582806060E+003	5.5640090E-001	-2.7040155E+002
3	0	1.348036582793429E+003	5.5629206E-001	-2.7036972E+002
3	0	1.348536582780798E+003	5.5719179E-001	-2.7038385E+002
3	0	1.349036582768167E+003	5.5840045E-001	-2.7036972E+002
3	0	1.349536582755536E+003	5.5985379E-001	-2.7037677E+002
3	0	1.350036582742905E+003	5.6134248E-001	-2.7039093E+002
3	0	1.350536582730274E+003	5.6226850E-001	-2.7039447E+002
3	0	1.351036582717643E+003	5.6257176E-001	-2.7037326E+002
3	0	1.351536582705012E+003	5.6350583E-001	-2.7038742E+002
3	0	1.352036582692381E+003	5.6581616E-001	-2.7036972E+002
3	0	1.352536582679750E+003	5.6817603E-001	-2.7038385E+002
3	0	1.353036582667119E+003	5.6992680E-001	-2.7038742E+002
3	0	1.353536582654488E+003	5.7136482E-001	-2.7037326E+002
3	0	1.354036582641857E+003	5.7231164E-001	-2.7037326E+002
3	0	1.354536582629225E+003	5.7226998E-001	-2.7038385E+002
3	0	1.355036582616594E+003	5.7105941E-001	-2.7038031E+002
3	0	1.355536582603963E+003	5.6993026E-001	-2.7037326E+002
3	0	1.356036582591332E+003	5.6999636E-001	-2.7038031E+002
3	0	1.356536582578701E+003	5.6984735E-001	-2.7038385E+002
3	0	1.356561182578080E+003	5.6944239E-001	-2.7037326E+002