EC-Lab ASCII FILE
Nb header lines : 55                          

Open Circuit Voltage

Run on channel : 1 (SN 81504)
User : 
CE vs. WE compliance from -10 V to 10 V
Electrode connection : standard
Potential control : Ewe
Ewe ctrl range : min = -2.50 V, max = 2.50 V
Safety Limits :
	Do not start on E overload
Acquisition started on : 05/10/2026 04:16:10.113
Loaded Setting File :  C:\PEM-WE_measurements\2026\372_IV_IV IrOx, 5 min Pt, 30 min C, etched cathode\new station\Loopeis new\1,46 V different time gaps closed cell\Loopeis 1,46V_90s_3_PEIS from 6500Hz to 1000Hz.mps
Saved on :
	File : L_18_Loopeis 1,46V_90s_3_PEIS from 6500Hz to 1000Hz_04_OCV_C01.mpr
	Directory : C:\PEM-WE_measurements\2026\372_IV_IV IrOx, 5 min Pt, 30 min C, etched cathode\new station\Loopeis new\1,46 V different time gaps closed cell\
	Host : 192.168.0.2
Device : SP-150e (SN .005491)
Address : 192.168.0.91
EC-LAB for windows v11.71 (software)
Internet server v28.00 (firmware)
Command interpretor v14.01 (firmware)
Electrode material : 
Initial state : 
Electrolyte : 
Comments : 
Current amplifier : SP-150eB-20A
Electrode surface area : 0.001 cm²
Characteristic mass : 0.001 g
Equivalent Weight : 0.000 g/eq.
Density : 0.000 g/cm3
Volume (V) : 0.001 cm³
Record Analogic IN 1
Text export
   Mode : Standard
   Time format : Elapsed
Cycle Definition : Charge/Discharge alternance
External device configuration :
   device type : Temperature Probe
   device name : Other
   Analog IN 1 : 
      unit : T/Â°C
      max : 100.000 at 2.000 V
      min : 0.000 at 1.460 V
tR (h:m:s)          0:01:30.0000        
dER/dt (mV/h)       1.0                 
record              <Ewe>               
dER (mV)            10.00               
dtR (s)             0.5000              
E range min (V)     -2.500              
E range max (V)     2.500               

mode	error	time/s	<Ewe/V>	Analog IN 1/V	
3	0	1.804465987136791E+002	1.1411707E+000	-2.7037326E+002
3	0	1.809465987010481E+002	1.2611114E+000	-2.7038385E+002
3	0	1.814465986884170E+002	1.2630727E+000	-2.7040860E+002
3	0	1.819465986757859E+002	1.2633333E+000	-2.7039801E+002
3	0	1.824465986631549E+002	1.2626708E+000	-2.7037677E+002
3	0	1.829465986505238E+002	1.2612697E+000	-2.7039447E+002
3	0	1.834465986378927E+002	1.2591329E+000	-2.7037326E+002
3	0	1.839465986252617E+002	1.2561547E+000	-2.7038742E+002
3	0	1.844465986126306E+002	1.2520539E+000	-2.7035559E+002
3	0	1.849465985999996E+002	1.2459710E+000	-2.7036618E+002
3	0	1.854465985873685E+002	1.2365146E+000	-2.7039447E+002
3	0	1.859465985747374E+002	1.2218307E+000	-2.7036972E+002
3	0	1.864465985621064E+002	1.1991439E+000	-2.7038385E+002
3	0	1.869465985494753E+002	1.1633439E+000	-2.7039801E+002
3	0	1.874465985368442E+002	1.1038135E+000	-2.7037677E+002
3	0	1.879465985242132E+002	1.0005132E+000	-2.7037326E+002
3	0	1.884465985115821E+002	8.3586597E-001	-2.7037677E+002
3	0	1.889465984989511E+002	6.8953884E-001	-2.7039801E+002
3	0	1.894465984863200E+002	6.3901061E-001	-2.7036618E+002
3	0	1.899465984736889E+002	6.2313455E-001	-2.7038742E+002
3	0	1.904465984610579E+002	6.1779284E-001	-2.7039093E+002
3	0	1.909465984484268E+002	6.1655039E-001	-2.7038742E+002
3	0	1.914465984357958E+002	6.1656135E-001	-2.7038385E+002
3	0	1.919465984231647E+002	6.1747539E-001	-2.7036972E+002
3	0	1.924465984105336E+002	6.2038714E-001	-2.7038031E+002
3	0	1.929465983979026E+002	6.2374818E-001	-2.7036972E+002
3	0	1.934465983852715E+002	6.2638658E-001	-2.7037326E+002
3	0	1.939465983726404E+002	6.2842637E-001	-2.7038742E+002
3	0	1.944465983600094E+002	6.3019615E-001	-2.7036972E+002
3	0	1.949465983473783E+002	6.3135982E-001	-2.7036972E+002
3	0	1.954465983347473E+002	6.3174325E-001	-2.7035913E+002
3	0	1.959465983221162E+002	6.3194543E-001	-2.7037677E+002
3	0	1.964465983094851E+002	6.3357580E-001	-2.7038385E+002
3	0	1.969465982968541E+002	6.3565624E-001	-2.7040155E+002
3	0	1.974465982842230E+002	6.3710964E-001	-2.7039447E+002
3	0	1.979465982715919E+002	6.3808614E-001	-2.7039447E+002
3	0	1.984465982589609E+002	6.3882840E-001	-2.7036618E+002
3	0	1.989465982463298E+002	6.3921320E-001	-2.7038031E+002
3	0	1.994465982336988E+002	6.3903511E-001	-2.7036972E+002
3	0	1.999465982210677E+002	6.3937420E-001	-2.7038031E+002
3	0	2.004465982084366E+002	6.4182752E-001	-2.7037326E+002
3	0	2.009465981958056E+002	6.4537728E-001	-2.7036618E+002
3	0	2.014465981831745E+002	6.4912456E-001	-2.7039447E+002
3	0	2.019465981705434E+002	6.5317839E-001	-2.7039093E+002
3	0	2.024465981579124E+002	6.5764260E-001	-2.7037326E+002
3	0	2.029465981452813E+002	6.6201037E-001	-2.7036618E+002
3	0	2.034465981326503E+002	6.6605383E-001	-2.7038742E+002
3	0	2.039465981200192E+002	6.7012537E-001	-2.7039093E+002
3	0	2.044465981073881E+002	6.7604339E-001	-2.7038385E+002
3	0	2.049465980947571E+002	6.8275917E-001	-2.7039447E+002
3	0	2.054465980821260E+002	6.8902254E-001	-2.7035913E+002
3	0	2.059465980694949E+002	6.9476223E-001	-2.7034851E+002
3	0	2.064465980568639E+002	7.0001423E-001	-2.7037326E+002
3	0	2.069465980442328E+002	7.0439732E-001	-2.7040155E+002
3	0	2.074465980316018E+002	7.0787996E-001	-2.7035913E+002
3	0	2.079465980189707E+002	7.1093047E-001	-2.7035913E+002
3	0	2.084465980063396E+002	7.1536440E-001	-2.7039093E+002
3	0	2.089465979937086E+002	7.2036135E-001	-2.7034497E+002
3	0	2.094465979810775E+002	7.2429740E-001	-2.7039093E+002
3	0	2.099465979684464E+002	7.2666317E-001	-2.7039093E+002
3	0	2.104465979558154E+002	7.2748858E-001	-2.7040155E+002
3	0	2.109465979431843E+002	7.2663152E-001	-2.7039093E+002
3	0	2.114465979305533E+002	7.2404307E-001	-2.7036267E+002
3	0	2.119465979179222E+002	7.2117823E-001	-2.7038385E+002
3	0	2.124465979052911E+002	7.1983421E-001	-2.7037326E+002
3	0	2.129465978926601E+002	7.1917814E-001	-2.7036267E+002
3	0	2.134465978800290E+002	7.1778697E-001	-2.7038385E+002
3	0	2.139465978673979E+002	7.1530217E-001	-2.7040155E+002
3	0	2.144465978547669E+002	7.1169555E-001	-2.7035913E+002
3	0	2.149465978421358E+002	7.0693672E-001	-2.7036267E+002
3	0	2.154465978295048E+002	7.0112109E-001	-2.7038385E+002
3	0	2.159465978168737E+002	6.9536477E-001	-2.7038742E+002
3	0	2.164465978042426E+002	6.9159168E-001	-2.7040155E+002
3	0	2.169465977916116E+002	6.8898338E-001	-2.7040155E+002
3	0	2.174465977789805E+002	6.8619668E-001	-2.7039447E+002
3	0	2.179465977663494E+002	6.8275720E-001	-2.7039801E+002
3	0	2.184465977537184E+002	6.7884582E-001	-2.7039801E+002
3	0	2.189465977410873E+002	6.7459434E-001	-2.7039093E+002
3	0	2.194465977284563E+002	6.7016757E-001	-2.7038742E+002
3	0	2.199465977158252E+002	6.6671878E-001	-2.7040155E+002
3	0	2.204465977031941E+002	6.6611081E-001	-2.7037326E+002
3	0	2.209465976905631E+002	6.6786498E-001	-2.7036972E+002
3	0	2.214465976779320E+002	6.7071664E-001	-2.7038742E+002
3	0	2.219465976653009E+002	6.7430526E-001	-2.7038031E+002
3	0	2.224465976526699E+002	6.7842031E-001	-2.7038031E+002
3	0	2.229465976400388E+002	6.8266147E-001	-2.7040155E+002
3	0	2.234465976274078E+002	6.8669289E-001	-2.7036267E+002
3	0	2.239465976147767E+002	6.9103485E-001	-2.7037326E+002
3	0	2.244465976021456E+002	6.9708318E-001	-2.7039801E+002
3	0	2.249465975895146E+002	7.0409387E-001	-2.7038385E+002
3	0	2.254465975768835E+002	7.1080208E-001	-2.7037326E+002
3	0	2.259465975642524E+002	7.1660775E-001	-2.7039093E+002
3	0	2.264465975516214E+002	7.2138637E-001	-2.7037677E+002
3	0	2.269465975389903E+002	7.2475022E-001	-2.7037326E+002
3	0	2.274465975263593E+002	7.2635955E-001	-2.7038031E+002
3	0	2.279465975137282E+002	7.2700387E-001	-2.7036267E+002
3	0	2.284465975010971E+002	7.2835779E-001	-2.7039093E+002
3	0	2.289465974884661E+002	7.2998089E-001	-2.7038385E+002
3	0	2.294465974758350E+002	7.3065531E-001	-2.7037677E+002
3	0	2.299465974632039E+002	7.2986788E-001	-2.7037677E+002
3	0	2.304465974505729E+002	7.2763854E-001	-2.7037326E+002
3	0	2.309465974379418E+002	7.2366178E-001	-2.7035205E+002
3	0	2.314465974253108E+002	7.1811408E-001	-2.7038031E+002
3	0	2.319465974126797E+002	7.1180159E-001	-2.7037677E+002
3	0	2.324465974000486E+002	7.0652568E-001	-2.7039093E+002
3	0	2.329465973874176E+002	7.0211023E-001	-2.7035559E+002
3	0	2.334465973747865E+002	6.9743401E-001	-2.7035205E+002
3	0	2.339465973621554E+002	6.9206727E-001	-2.7038031E+002
3	0	2.344465973495244E+002	6.8602216E-001	-2.7036267E+002
3	0	2.349465973368933E+002	6.7928290E-001	-2.7039801E+002
3	0	2.354465973242623E+002	6.7191398E-001	-2.7037677E+002
3	0	2.359465973116312E+002	6.6474968E-001	-2.7035913E+002
3	0	2.364465972990001E+002	6.5946454E-001	-2.7040155E+002
3	0	2.369465972863691E+002	6.5556318E-001	-2.7036267E+002
3	0	2.374465972737380E+002	6.5181416E-001	-2.7038742E+002
3	0	2.379465972611069E+002	6.4773428E-001	-2.7035913E+002
3	0	2.384465972484759E+002	6.4333338E-001	-2.7036618E+002
3	0	2.389465972358448E+002	6.3848072E-001	-2.7039447E+002
3	0	2.394465972232138E+002	6.3325655E-001	-2.7037326E+002
3	0	2.399465972105827E+002	6.2859249E-001	-2.7038385E+002
3	0	2.404465971979516E+002	6.2631530E-001	-2.7038031E+002
3	0	2.409465971853206E+002	6.2612182E-001	-2.7036267E+002
3	0	2.414465971726895E+002	6.2710565E-001	-2.7037677E+002
3	0	2.419465971600584E+002	6.2892580E-001	-2.7037677E+002
3	0	2.424465971474274E+002	6.3151342E-001	-2.7039093E+002
3	0	2.429465971347963E+002	6.3455856E-001	-2.7039801E+002
3	0	2.434465971221653E+002	6.3757282E-001	-2.7038385E+002
3	0	2.439465971095342E+002	6.4084935E-001	-2.7037677E+002
3	0	2.444465970969031E+002	6.4566910E-001	-2.7038385E+002
3	0	2.449465970842721E+002	6.5149236E-001	-2.7037326E+002
3	0	2.454465970716410E+002	6.5706682E-001	-2.7039801E+002
3	0	2.459465970590099E+002	6.6174018E-001	-2.7035205E+002
3	0	2.464465970463789E+002	6.6537714E-001	-2.7039801E+002
3	0	2.469465970337478E+002	6.6771811E-001	-2.7036972E+002
3	0	2.474465970211168E+002	6.6834605E-001	-2.7038742E+002
3	0	2.479465970084857E+002	6.6804725E-001	-2.7036618E+002
3	0	2.484465969958546E+002	6.6851044E-001	-2.7036267E+002
3	0	2.489465969832236E+002	6.6940296E-001	-2.7035205E+002
3	0	2.494465969705925E+002	6.6956896E-001	-2.7038031E+002
3	0	2.499465969579614E+002	6.6870248E-001	-2.7037677E+002
3	0	2.504465969453304E+002	6.6667181E-001	-2.7036618E+002
3	0	2.509465969326993E+002	6.6340613E-001	-2.7038385E+002
3	0	2.514465969200683E+002	6.5881610E-001	-2.7039093E+002
3	0	2.519465969074372E+002	6.5362859E-001	-2.7037326E+002
3	0	2.524465968948061E+002	6.4965612E-001	-2.7038031E+002
3	0	2.529465968821751E+002	6.4645618E-001	-2.7040506E+002
3	0	2.534465968695440E+002	6.4301574E-001	-2.7039447E+002
3	0	2.539465968569129E+002	6.3901222E-001	-2.7035559E+002
3	0	2.544465968442819E+002	6.3456297E-001	-2.7037326E+002
3	0	2.549465968316508E+002	6.2946439E-001	-2.7038031E+002
3	0	2.554465968190198E+002	6.2355578E-001	-2.7037326E+002
3	0	2.559465968063887E+002	6.1750358E-001	-2.7039801E+002
3	0	2.564465967937576E+002	6.1287427E-001	-2.7039447E+002
3	0	2.569465967811266E+002	6.0922182E-001	-2.7036972E+002
3	0	2.574465967684955E+002	6.0547268E-001	-2.7038031E+002
3	0	2.579465967558644E+002	6.0138488E-001	-2.7036972E+002
3	0	2.584465967432334E+002	5.9696990E-001	-2.7038385E+002
3	0	2.589465967306023E+002	5.9214377E-001	-2.7035913E+002
3	0	2.594465967179713E+002	5.8696687E-001	-2.7038385E+002
3	0	2.599465967053402E+002	5.8242089E-001	-2.7038385E+002
3	0	2.604465966927091E+002	5.8007729E-001	-2.7038385E+002
3	0	2.609465966800781E+002	5.7940096E-001	-2.7039447E+002
3	0	2.614465966674470E+002	5.7956010E-001	-2.7038742E+002
3	0	2.619465966548159E+002	5.8037430E-001	-2.7036618E+002
3	0	2.624465966421849E+002	5.8189559E-001	-2.7038031E+002
3	0	2.629465966295538E+002	5.8392352E-001	-2.7037677E+002
3	0	2.634465966169228E+002	5.8580357E-001	-2.7040155E+002
3	0	2.639465966042917E+002	5.8787841E-001	-2.7037326E+002
3	0	2.644465965916606E+002	5.9167188E-001	-2.7039093E+002
3	0	2.649465965790296E+002	5.9638053E-001	-2.7038742E+002
3	0	2.654465965663985E+002	6.0093868E-001	-2.7039447E+002
3	0	2.659465965537674E+002	6.0499161E-001	-2.7036618E+002
3	0	2.664465965411364E+002	6.0843158E-001	-2.7039447E+002
3	0	2.669465965285053E+002	6.1091721E-001	-2.7033789E+002
3	0	2.674465965158743E+002	6.1218923E-001	-2.7038742E+002
3	0	2.679465965032432E+002	6.1275476E-001	-2.7037677E+002
3	0	2.684465964906121E+002	6.1411554E-001	-2.7038031E+002
3	0	2.689465964779811E+002	6.1587220E-001	-2.7038742E+002
3	0	2.694465964653500E+002	6.1697638E-001	-2.7038385E+002
3	0	2.699465964527190E+002	6.1706370E-001	-2.7038385E+002
3	0	2.699729964520520E+002	6.1670482E-001	-2.7039093E+002