EC-Lab ASCII FILE
Nb header lines : 55                          

Open Circuit Voltage

Run on channel : 1 (SN 81504)
User : 
CE vs. WE compliance from -10 V to 10 V
Electrode connection : standard
Potential control : Ewe
Ewe ctrl range : min = -2.50 V, max = 2.50 V
Safety Limits :
	Do not start on E overload
Acquisition started on : 05/10/2026 04:16:10.113
Loaded Setting File :  C:\PEM-WE_measurements\2026\372_IV_IV IrOx, 5 min Pt, 30 min C, etched cathode\new station\Loopeis new\1,46 V different time gaps closed cell\Loopeis 1,46V_90s_3_PEIS from 6500Hz to 1000Hz.mps
Saved on :
	File : L_18_Loopeis 1,46V_90s_3_PEIS from 6500Hz to 1000Hz_02_OCV_C01.mpr
	Directory : C:\PEM-WE_measurements\2026\372_IV_IV IrOx, 5 min Pt, 30 min C, etched cathode\new station\Loopeis new\1,46 V different time gaps closed cell\
	Host : 192.168.0.2
Device : SP-150e (SN .005491)
Address : 192.168.0.91
EC-LAB for windows v11.71 (software)
Internet server v28.00 (firmware)
Command interpretor v14.01 (firmware)
Electrode material : 
Initial state : 
Electrolyte : 
Comments : 
Current amplifier : SP-150eB-20A
Electrode surface area : 0.001 cm²
Characteristic mass : 0.001 g
Equivalent Weight : 0.000 g/eq.
Density : 0.000 g/cm3
Volume (V) : 0.001 cm³
Record Analogic IN 1
Text export
   Mode : Standard
   Time format : Elapsed
Cycle Definition : Charge/Discharge alternance
External device configuration :
   device type : Temperature Probe
   device name : Other
   Analog IN 1 : 
      unit : T/Â°C
      max : 100.000 at 2.000 V
      min : 0.000 at 1.460 V
tR (h:m:s)          0:01:30.0000        
dER/dt (mV/h)       1.0                 
record              <Ewe>               
dER (mV)            10.00               
dtR (s)             0.5000              
E range min (V)     -2.500              
E range max (V)     2.500               

mode	error	time/s	<Ewe/V>	Analog IN 1/V	
3	0	4.549979885057837E+001	1.2837527E+000	-2.7038385E+002
3	0	4.599979883794731E+001	1.2904700E+000	-2.7035913E+002
3	0	4.649979882531625E+001	1.2915912E+000	-2.7038385E+002
3	0	4.699979881268519E+001	1.2913377E+000	-2.7038031E+002
3	0	4.749979880005412E+001	1.2902484E+000	-2.7037677E+002
3	0	4.799979878742306E+001	1.2885113E+000	-2.7038385E+002
3	0	4.849979877479200E+001	1.2862222E+000	-2.7036972E+002
3	0	4.899979876216094E+001	1.2830855E+000	-2.7038385E+002
3	0	4.949979874952987E+001	1.2784361E+000	-2.7038385E+002
3	0	4.999979873689881E+001	1.2711829E+000	-2.7037677E+002
3	0	5.049979872426775E+001	1.2597157E+000	-2.7037326E+002
3	0	5.099979871163669E+001	1.2416897E+000	-2.7038031E+002
3	0	5.149979869900562E+001	1.2134169E+000	-2.7037326E+002
3	0	5.199979868637456E+001	1.1678318E+000	-2.7036972E+002
3	0	5.249979867374350E+001	1.0887768E+000	-2.7039447E+002
3	0	5.299979866111244E+001	9.4333655E-001	-2.7036618E+002
3	0	5.349979864848137E+001	7.3833102E-001	-2.7037326E+002
3	0	5.399979863585031E+001	6.3686830E-001	-2.7038385E+002
3	0	5.449979862321925E+001	6.0990942E-001	-2.7036618E+002
3	0	5.499979861058819E+001	6.0012513E-001	-2.7037677E+002
3	0	5.549979859795712E+001	5.9642327E-001	-2.7038031E+002
3	0	5.599979858532606E+001	5.9531635E-001	-2.7038031E+002
3	0	5.649979857269500E+001	5.9696275E-001	-2.7038385E+002
3	0	5.699979856006394E+001	6.0036355E-001	-2.7041214E+002
3	0	5.749979854743287E+001	6.0363615E-001	-2.7035913E+002
3	0	5.799979853480181E+001	6.0636991E-001	-2.7038742E+002
3	0	5.849979852217075E+001	6.0917151E-001	-2.7038385E+002
3	0	5.899979850953969E+001	6.1206162E-001	-2.7039801E+002
3	0	5.949979849690862E+001	6.1440140E-001	-2.7038385E+002
3	0	5.999979848427756E+001	6.1653054E-001	-2.7040506E+002
3	0	6.049979847164650E+001	6.2019628E-001	-2.7036618E+002
3	0	6.099979845901544E+001	6.2523782E-001	-2.7035559E+002
3	0	6.149979844638438E+001	6.3015538E-001	-2.7038031E+002
3	0	6.199979843375331E+001	6.3465500E-001	-2.7036972E+002
3	0	6.249979842112225E+001	6.3899118E-001	-2.7038031E+002
3	0	6.299979840849119E+001	6.4313114E-001	-2.7036618E+002
3	0	6.349979839586013E+001	6.4659595E-001	-2.7038385E+002
3	0	6.399979838322906E+001	6.4966589E-001	-2.7038385E+002
3	0	6.449979837059800E+001	6.5392542E-001	-2.7036267E+002
3	0	6.499979835796694E+001	6.5937996E-001	-2.7036618E+002
3	0	6.549979834533588E+001	6.6447854E-001	-2.7039447E+002
3	0	6.599979833270481E+001	6.6904908E-001	-2.7039093E+002
3	0	6.649979832007375E+001	6.7327601E-001	-2.7036618E+002
3	0	6.699979830744269E+001	6.7679822E-001	-2.7037677E+002
3	0	6.749979829481163E+001	6.7931396E-001	-2.7039093E+002
3	0	6.799979828218056E+001	6.8139780E-001	-2.7039447E+002
3	0	6.849979826954950E+001	6.8456829E-001	-2.7036972E+002
3	0	6.899979825691844E+001	6.8883723E-001	-2.7038742E+002
3	0	6.949979824428738E+001	6.9257098E-001	-2.7038385E+002
3	0	6.999979823165631E+001	6.9538558E-001	-2.7039093E+002
3	0	7.049979821902525E+001	6.9745481E-001	-2.7037677E+002
3	0	7.099979820639419E+001	6.9871181E-001	-2.7036618E+002
3	0	7.149979819376313E+001	6.9851846E-001	-2.7036618E+002
3	0	7.199979818113206E+001	6.9750720E-001	-2.7038385E+002
3	0	7.249979816850100E+001	6.9777292E-001	-2.7038031E+002
3	0	7.299979815586994E+001	6.9937438E-001	-2.7037677E+002
3	0	7.349979814323888E+001	7.0052034E-001	-2.7038031E+002
3	0	7.399979813060781E+001	7.0058715E-001	-2.7039801E+002
3	0	7.449979811797675E+001	6.9961745E-001	-2.7036267E+002
3	0	7.499979810534569E+001	6.9770414E-001	-2.7039801E+002
3	0	7.549979809271463E+001	6.9479311E-001	-2.7037326E+002
3	0	7.599979808008356E+001	6.9130325E-001	-2.7036267E+002
3	0	7.649979806745250E+001	6.8889070E-001	-2.7037326E+002
3	0	7.699979805482144E+001	6.8792772E-001	-2.7037677E+002
3	0	7.749979804219038E+001	6.8682384E-001	-2.7035913E+002
3	0	7.799979802955932E+001	6.8513775E-001	-2.7037326E+002
3	0	7.849979801692825E+001	6.8319744E-001	-2.7038031E+002
3	0	7.899979800429719E+001	6.8126929E-001	-2.7038031E+002
3	0	7.949979799166613E+001	6.7937601E-001	-2.7038031E+002
3	0	7.999979797903507E+001	6.7824090E-001	-2.7039801E+002
3	0	8.049979796640400E+001	6.7972726E-001	-2.7038031E+002
3	0	8.099979795377294E+001	6.8414176E-001	-2.7038742E+002
3	0	8.149979794114188E+001	6.8996447E-001	-2.7038385E+002
3	0	8.199979792851082E+001	6.9650662E-001	-2.7038742E+002
3	0	8.249979791587975E+001	7.0337462E-001	-2.7036972E+002
3	0	8.299979790324869E+001	7.1010339E-001	-2.7038031E+002
3	0	8.349979789061763E+001	7.1623737E-001	-2.7038385E+002
3	0	8.399979787798657E+001	7.2190130E-001	-2.7037326E+002
3	0	8.449979786535550E+001	7.2858596E-001	-2.7037677E+002
3	0	8.499979785272444E+001	7.3657286E-001	-2.7039447E+002
3	0	8.549979784009338E+001	7.4423611E-001	-2.7034851E+002
3	0	8.599979782746232E+001	7.5078011E-001	-2.7039447E+002
3	0	8.649979781483125E+001	7.5590271E-001	-2.7037326E+002
3	0	8.699979780220019E+001	7.5938827E-001	-2.7038385E+002
3	0	8.749979778956913E+001	7.6107824E-001	-2.7038742E+002
3	0	8.799979777693807E+001	7.6154113E-001	-2.7038031E+002
3	0	8.849979776430700E+001	7.6214141E-001	-2.7038385E+002
3	0	8.899979775167594E+001	7.6323146E-001	-2.7038031E+002
3	0	8.949979773904488E+001	7.6361364E-001	-2.7037677E+002
3	0	8.999979772641382E+001	7.6252478E-001	-2.7039447E+002
3	0	9.049979771378275E+001	7.5990504E-001	-2.7038385E+002
3	0	9.099979770115169E+001	7.5559765E-001	-2.7037677E+002
3	0	9.149979768852063E+001	7.4967080E-001	-2.7036972E+002
3	0	9.199979767588957E+001	7.4277604E-001	-2.7041214E+002
3	0	9.249979766325851E+001	7.3650032E-001	-2.7035913E+002
3	0	9.299979765062744E+001	7.3137230E-001	-2.7036267E+002
3	0	9.349979763799638E+001	7.2619545E-001	-2.7035205E+002
3	0	9.399979762536532E+001	7.2043371E-001	-2.7038385E+002
3	0	9.449979761273426E+001	7.1395689E-001	-2.7037326E+002
3	0	9.499979760010319E+001	7.0666051E-001	-2.7036972E+002
3	0	9.549979758747213E+001	6.9850457E-001	-2.7038031E+002
3	0	9.599979757484107E+001	6.9018143E-001	-2.7039447E+002
3	0	9.649979756221001E+001	6.8330574E-001	-2.7039447E+002
3	0	9.699979754957894E+001	6.7830187E-001	-2.7038742E+002
3	0	9.749979753694788E+001	6.7373663E-001	-2.7039447E+002
3	0	9.799979752431682E+001	6.6903549E-001	-2.7038385E+002
3	0	9.849979751168576E+001	6.6424298E-001	-2.7036618E+002
3	0	9.899979749905469E+001	6.5961790E-001	-2.7038031E+002
3	0	9.949979748642363E+001	6.5520680E-001	-2.7038742E+002
3	0	9.999979747379257E+001	6.5165812E-001	-2.7036618E+002
3	0	1.004997974611615E+002	6.5051478E-001	-2.7037677E+002
3	0	1.009997974485304E+002	6.5234858E-001	-2.7037326E+002
3	0	1.014997974358994E+002	6.5587473E-001	-2.7036267E+002
3	0	1.019997974232683E+002	6.6033328E-001	-2.7037326E+002
3	0	1.024997974106373E+002	6.6528857E-001	-2.7036267E+002
3	0	1.029997973980062E+002	6.7025989E-001	-2.7037326E+002
3	0	1.034997973853751E+002	6.7471099E-001	-2.7038031E+002
3	0	1.039997973727441E+002	6.7884648E-001	-2.7039093E+002
3	0	1.044997973601130E+002	6.8397516E-001	-2.7037326E+002
3	0	1.049997973474819E+002	6.9033420E-001	-2.7037677E+002
3	0	1.054997973348509E+002	6.9658941E-001	-2.7037326E+002
3	0	1.059997973222198E+002	7.0195073E-001	-2.7038742E+002
3	0	1.064997973095888E+002	7.0604783E-001	-2.7039447E+002
3	0	1.069997972969577E+002	7.0860982E-001	-2.7035913E+002
3	0	1.074997972843266E+002	7.0937800E-001	-2.7037677E+002
3	0	1.079997972716956E+002	7.0879292E-001	-2.7038385E+002
3	0	1.084997972590645E+002	7.0841330E-001	-2.7036618E+002
3	0	1.089997972464334E+002	7.0869195E-001	-2.7037677E+002
3	0	1.094997972338024E+002	7.0845735E-001	-2.7039093E+002
3	0	1.099997972211713E+002	7.0711583E-001	-2.7037677E+002
3	0	1.104997972085403E+002	7.0439810E-001	-2.7035559E+002
3	0	1.109997971959092E+002	7.0021987E-001	-2.7034851E+002
3	0	1.114997971832781E+002	6.9447958E-001	-2.7036972E+002
3	0	1.119997971706471E+002	6.8781614E-001	-2.7040506E+002
3	0	1.124997971580160E+002	6.8183750E-001	-2.7037677E+002
3	0	1.129997971453849E+002	6.7722070E-001	-2.7038385E+002
3	0	1.134997971327539E+002	6.7269510E-001	-2.7036972E+002
3	0	1.139997971201228E+002	6.6768265E-001	-2.7037326E+002
3	0	1.144997971074918E+002	6.6212636E-001	-2.7038031E+002
3	0	1.149997970948607E+002	6.5583557E-001	-2.7035913E+002
3	0	1.154997970822296E+002	6.4871961E-001	-2.7036267E+002
3	0	1.159997970695986E+002	6.4138240E-001	-2.7036267E+002
3	0	1.164997970569675E+002	6.3525653E-001	-2.7036267E+002
3	0	1.169997970443364E+002	6.3072640E-001	-2.7038385E+002
3	0	1.174997970317054E+002	6.2647307E-001	-2.7036267E+002
3	0	1.179997970190743E+002	6.2210757E-001	-2.7039801E+002
3	0	1.184997970064433E+002	6.1772674E-001	-2.7035913E+002
3	0	1.189997969938122E+002	6.1338836E-001	-2.7038031E+002
3	0	1.194997969811811E+002	6.0896075E-001	-2.7040506E+002
3	0	1.199997969685501E+002	6.0498279E-001	-2.7036618E+002
3	0	1.204997969559190E+002	6.0311455E-001	-2.7038385E+002
3	0	1.209997969432879E+002	6.0366565E-001	-2.7038031E+002
3	0	1.214997969306569E+002	6.0552859E-001	-2.7036972E+002
3	0	1.219997969180258E+002	6.0824895E-001	-2.7035559E+002
3	0	1.224997969053948E+002	6.1155760E-001	-2.7036618E+002
3	0	1.229997968927637E+002	6.1522686E-001	-2.7038742E+002
3	0	1.234997968801326E+002	6.1870199E-001	-2.7037326E+002
3	0	1.239997968675016E+002	6.2200671E-001	-2.7037677E+002
3	0	1.244997968548705E+002	6.2618136E-001	-2.7037677E+002
3	0	1.249997968422394E+002	6.3151026E-001	-2.7038031E+002
3	0	1.254997968296084E+002	6.3668197E-001	-2.7037326E+002
3	0	1.259997968169773E+002	6.4099884E-001	-2.7038031E+002
3	0	1.264997968043463E+002	6.4430678E-001	-2.7037677E+002
3	0	1.269997967917152E+002	6.4632404E-001	-2.7036618E+002
3	0	1.274997967790841E+002	6.4669150E-001	-2.7038031E+002
3	0	1.279997967664531E+002	6.4565122E-001	-2.7039801E+002
3	0	1.284997967538220E+002	6.4483362E-001	-2.7039447E+002
3	0	1.289997967411909E+002	6.4467239E-001	-2.7038385E+002
3	0	1.294997967285599E+002	6.4404476E-001	-2.7039093E+002
3	0	1.299997967159288E+002	6.4242077E-001	-2.7036972E+002
3	0	1.304997967032978E+002	6.3974738E-001	-2.7039801E+002
3	0	1.309997966906667E+002	6.3601846E-001	-2.7038742E+002
3	0	1.314997966780356E+002	6.3105208E-001	-2.7038031E+002
3	0	1.319997966654046E+002	6.2527627E-001	-2.7036972E+002
3	0	1.324997966527735E+002	6.2032133E-001	-2.7037677E+002
3	0	1.329997966401424E+002	6.1663145E-001	-2.7038742E+002
3	0	1.334997966275114E+002	6.1293983E-001	-2.7035913E+002
3	0	1.339997966148803E+002	6.0883898E-001	-2.7041214E+002
3	0	1.344997966022493E+002	6.0430330E-001	-2.7036267E+002
3	0	1.349997965896182E+002	5.9917623E-001	-2.7039801E+002
3	0	1.350001965896081E+002	5.9631765E-001	-2.7040155E+002