EC-Lab ASCII FILE
Nb header lines : 55                          

Open Circuit Voltage

Run on channel : 1 (SN 81504)
User : 
CE vs. WE compliance from -10 V to 10 V
Electrode connection : standard
Potential control : Ewe
Ewe ctrl range : min = -2.50 V, max = 2.50 V
Safety Limits :
	Do not start on E overload
Acquisition started on : 05/10/2026 04:16:10.113
Loaded Setting File :  C:\PEM-WE_measurements\2026\372_IV_IV IrOx, 5 min Pt, 30 min C, etched cathode\new station\Loopeis new\1,46 V different time gaps closed cell\Loopeis 1,46V_90s_3_PEIS from 6500Hz to 1000Hz.mps
Saved on :
	File : L_18_Loopeis 1,46V_90s_3_PEIS from 6500Hz to 1000Hz_06_OCV_C01.mpr
	Directory : C:\PEM-WE_measurements\2026\372_IV_IV IrOx, 5 min Pt, 30 min C, etched cathode\new station\Loopeis new\1,46 V different time gaps closed cell\
	Host : 192.168.0.2
Device : SP-150e (SN .005491)
Address : 192.168.0.91
EC-LAB for windows v11.71 (software)
Internet server v28.00 (firmware)
Command interpretor v14.01 (firmware)
Electrode material : 
Initial state : 
Electrolyte : 
Comments : 
Current amplifier : SP-150eB-20A
Electrode surface area : 0.001 cm²
Characteristic mass : 0.001 g
Equivalent Weight : 0.000 g/eq.
Density : 0.000 g/cm3
Volume (V) : 0.001 cm³
Record Analogic IN 1
Text export
   Mode : Standard
   Time format : Elapsed
Cycle Definition : Charge/Discharge alternance
External device configuration :
   device type : Temperature Probe
   device name : Other
   Analog IN 1 : 
      unit : T/Â°C
      max : 100.000 at 2.000 V
      min : 0.000 at 1.460 V
tR (h:m:s)          0:01:30.0000        
dER/dt (mV/h)       1.0                 
record              <Ewe>               
dER (mV)            10.00               
dtR (s)             0.5000              
E range min (V)     -2.500              
E range max (V)     2.500               

mode	error	time/s	<Ewe/V>	Analog IN 1/V	
3	0	3.154735953026102E+002	1.2844278E+000	-2.7037326E+002
3	0	3.159735952899791E+002	1.2910665E+000	-2.7037326E+002
3	0	3.164735952773481E+002	1.2920431E+000	-2.7038031E+002
3	0	3.169735952647170E+002	1.2916139E+000	-2.7037326E+002
3	0	3.174735952520859E+002	1.2902807E+000	-2.7038385E+002
3	0	3.179735952394549E+002	1.2880862E+000	-2.7039093E+002
3	0	3.184735952268238E+002	1.2847680E+000	-2.7038385E+002
3	0	3.189735952141928E+002	1.2795402E+000	-2.7035913E+002
3	0	3.194735952015617E+002	1.2710748E+000	-2.7036618E+002
3	0	3.199735951889306E+002	1.2578481E+000	-2.7039801E+002
3	0	3.204735951762996E+002	1.2377549E+000	-2.7038385E+002
3	0	3.209735951636685E+002	1.2067194E+000	-2.7037326E+002
3	0	3.214735951510374E+002	1.1562107E+000	-2.7039447E+002
3	0	3.219735951384064E+002	1.0661758E+000	-2.7037326E+002
3	0	3.224735951257753E+002	8.9503431E-001	-2.7038385E+002
3	0	3.229735951131443E+002	6.8962222E-001	-2.7037677E+002
3	0	3.234735951005132E+002	6.1507726E-001	-2.7038385E+002
3	0	3.239735950878821E+002	5.9344339E-001	-2.7037326E+002
3	0	3.244735950752511E+002	5.8785266E-001	-2.7038742E+002
3	0	3.249735950626200E+002	5.8871686E-001	-2.7039447E+002
3	0	3.254735950499889E+002	5.9211469E-001	-2.7036267E+002
3	0	3.259735950373579E+002	5.9630650E-001	-2.7038742E+002
3	0	3.264735950247268E+002	6.0086119E-001	-2.7036972E+002
3	0	3.269735950120958E+002	6.0532159E-001	-2.7039093E+002
3	0	3.274735949994647E+002	6.0890651E-001	-2.7037326E+002
3	0	3.279735949868336E+002	6.1231130E-001	-2.7036618E+002
3	0	3.284735949742026E+002	6.1697853E-001	-2.7038385E+002
3	0	3.289735949615715E+002	6.2163317E-001	-2.7038031E+002
3	0	3.294735949489404E+002	6.2552118E-001	-2.7038031E+002
3	0	3.299735949363094E+002	6.2858909E-001	-2.7034851E+002
3	0	3.304735949236783E+002	6.3136226E-001	-2.7035559E+002
3	0	3.309735949110473E+002	6.3332015E-001	-2.7038031E+002
3	0	3.314735948984162E+002	6.3442278E-001	-2.7038385E+002
3	0	3.319735948857851E+002	6.3536692E-001	-2.7036618E+002
3	0	3.324735948731541E+002	6.3775462E-001	-2.7039447E+002
3	0	3.329735948605230E+002	6.4026058E-001	-2.7039093E+002
3	0	3.334735948478919E+002	6.4223701E-001	-2.7037677E+002
3	0	3.339735948352609E+002	6.4365476E-001	-2.7037677E+002
3	0	3.344735948226298E+002	6.4487690E-001	-2.7038742E+002
3	0	3.349735948099988E+002	6.4547008E-001	-2.7037677E+002
3	0	3.354735947973677E+002	6.4515686E-001	-2.7038385E+002
3	0	3.359735947847366E+002	6.4472485E-001	-2.7036618E+002
3	0	3.364735947721056E+002	6.4580053E-001	-2.7038742E+002
3	0	3.369735947594745E+002	6.4714539E-001	-2.7036972E+002
3	0	3.374735947468434E+002	6.4809066E-001	-2.7036972E+002
3	0	3.379735947342124E+002	6.4853603E-001	-2.7037326E+002
3	0	3.384735947215813E+002	6.4861614E-001	-2.7038031E+002
3	0	3.389735947089503E+002	6.4816064E-001	-2.7038742E+002
3	0	3.394735946963192E+002	6.4712220E-001	-2.7036267E+002
3	0	3.399735946836881E+002	6.4619690E-001	-2.7039447E+002
3	0	3.404735946710571E+002	6.4718425E-001	-2.7038031E+002
3	0	3.409735946584260E+002	6.4920348E-001	-2.7036267E+002
3	0	3.414735946457949E+002	6.5155071E-001	-2.7038742E+002
3	0	3.419735946331639E+002	6.5411055E-001	-2.7036972E+002
3	0	3.424735946205328E+002	6.5712982E-001	-2.7040155E+002
3	0	3.429735946079018E+002	6.6018802E-001	-2.7040506E+002
3	0	3.434735945952707E+002	6.6291308E-001	-2.7039801E+002
3	0	3.439735945826396E+002	6.6608506E-001	-2.7038385E+002
3	0	3.444735945700086E+002	6.7118067E-001	-2.7037326E+002
3	0	3.449735945573775E+002	6.7703503E-001	-2.7038031E+002
3	0	3.454735945447464E+002	6.8272299E-001	-2.7039093E+002
3	0	3.459735945321154E+002	6.8781161E-001	-2.7036618E+002
3	0	3.464735945194843E+002	6.9251311E-001	-2.7039447E+002
3	0	3.469735945068533E+002	6.9631851E-001	-2.7034143E+002
3	0	3.474735944942222E+002	6.9895834E-001	-2.7037677E+002
3	0	3.479735944815911E+002	7.0126218E-001	-2.7036972E+002
3	0	3.484735944689601E+002	7.0488644E-001	-2.7038385E+002
3	0	3.489735944563290E+002	7.0887125E-001	-2.7038031E+002
3	0	3.494735944436979E+002	7.1206379E-001	-2.7036618E+002
3	0	3.499735944310669E+002	7.1406597E-001	-2.7039447E+002
3	0	3.504735944184358E+002	7.1473795E-001	-2.7035913E+002
3	0	3.509735944058048E+002	7.1399695E-001	-2.7039093E+002
3	0	3.514735943931737E+002	7.1175385E-001	-2.7038031E+002
3	0	3.519735943805426E+002	7.0898938E-001	-2.7038742E+002
3	0	3.524735943679116E+002	7.0748144E-001	-2.7035913E+002
3	0	3.529735943552805E+002	7.0652306E-001	-2.7035559E+002
3	0	3.534735943426494E+002	7.0491290E-001	-2.7039447E+002
3	0	3.539735943300184E+002	7.0215160E-001	-2.7036618E+002
3	0	3.544735943173873E+002	6.9851214E-001	-2.7037326E+002
3	0	3.549735943047563E+002	6.9375169E-001	-2.7037677E+002
3	0	3.554735942921252E+002	6.8814588E-001	-2.7038385E+002
3	0	3.559735942794941E+002	6.8265790E-001	-2.7039093E+002
3	0	3.564735942668631E+002	6.7914671E-001	-2.7036972E+002
3	0	3.569735942542320E+002	6.7661130E-001	-2.7038031E+002
3	0	3.574735942416009E+002	6.7393368E-001	-2.7038742E+002
3	0	3.579735942289699E+002	6.7087960E-001	-2.7038742E+002
3	0	3.584735942163388E+002	6.6748381E-001	-2.7038742E+002
3	0	3.589735942037078E+002	6.6355443E-001	-2.7039093E+002
3	0	3.594735941910767E+002	6.5894574E-001	-2.7035913E+002
3	0	3.599735941784456E+002	6.5452182E-001	-2.7038742E+002
3	0	3.604735941658146E+002	6.5232402E-001	-2.7037326E+002
3	0	3.609735941531835E+002	6.5177357E-001	-2.7037677E+002
3	0	3.614735941405525E+002	6.5195632E-001	-2.7037326E+002
3	0	3.619735941279214E+002	6.5285742E-001	-2.7036267E+002
3	0	3.624735941152903E+002	6.5436894E-001	-2.7038385E+002
3	0	3.629735941026593E+002	6.5626931E-001	-2.7037326E+002
3	0	3.634735940900282E+002	6.5824521E-001	-2.7036972E+002
3	0	3.639735940773971E+002	6.6096091E-001	-2.7037677E+002
3	0	3.644735940647661E+002	6.6591871E-001	-2.7036972E+002
3	0	3.649735940521350E+002	6.7225701E-001	-2.7039801E+002
3	0	3.654735940395040E+002	6.7875314E-001	-2.7036972E+002
3	0	3.659735940268729E+002	6.8472034E-001	-2.7039447E+002
3	0	3.664735940142418E+002	6.8982124E-001	-2.7036618E+002
3	0	3.669735940016108E+002	6.9364524E-001	-2.7036267E+002
3	0	3.674735939889797E+002	6.9605315E-001	-2.7038742E+002
3	0	3.679735939763486E+002	6.9776589E-001	-2.7039093E+002
3	0	3.684735939637176E+002	7.0027751E-001	-2.7038385E+002
3	0	3.689735939510865E+002	7.0291036E-001	-2.7037677E+002
3	0	3.694735939384555E+002	7.0461339E-001	-2.7038031E+002
3	0	3.699735939258244E+002	7.0509350E-001	-2.7035205E+002
3	0	3.704735939131933E+002	7.0400995E-001	-2.7036972E+002
3	0	3.709735939005623E+002	7.0130438E-001	-2.7039093E+002
3	0	3.714735938879312E+002	6.9685113E-001	-2.7040506E+002
3	0	3.719735938753001E+002	6.9179100E-001	-2.7040155E+002
3	0	3.724735938626691E+002	6.8800926E-001	-2.7038385E+002
3	0	3.729735938500380E+002	6.8497628E-001	-2.7039447E+002
3	0	3.734735938374070E+002	6.8163329E-001	-2.7036972E+002
3	0	3.739735938247759E+002	6.7751276E-001	-2.7039801E+002
3	0	3.744735938121448E+002	6.7268831E-001	-2.7038031E+002
3	0	3.749735937995138E+002	6.6695768E-001	-2.7039093E+002
3	0	3.754735937868827E+002	6.6036516E-001	-2.7036618E+002
3	0	3.759735937742516E+002	6.5380764E-001	-2.7038385E+002
3	0	3.764735937616206E+002	6.4896947E-001	-2.7038385E+002
3	0	3.769735937489895E+002	6.4521039E-001	-2.7036972E+002
3	0	3.774735937363585E+002	6.4149785E-001	-2.7037677E+002
3	0	3.779735937237274E+002	6.3746780E-001	-2.7034851E+002
3	0	3.784735937110963E+002	6.3298982E-001	-2.7035559E+002
3	0	3.789735936984653E+002	6.2794709E-001	-2.7040506E+002
3	0	3.794735936858342E+002	6.2219608E-001	-2.7036267E+002
3	0	3.799735936732031E+002	6.1669439E-001	-2.7037677E+002
3	0	3.804735936605721E+002	6.1324155E-001	-2.7037326E+002
3	0	3.809735936479410E+002	6.1130625E-001	-2.7039447E+002
3	0	3.814735936353100E+002	6.1021036E-001	-2.7038742E+002
3	0	3.819735936226789E+002	6.0979432E-001	-2.7037326E+002
3	0	3.824735936100478E+002	6.1006194E-001	-2.7036618E+002
3	0	3.829735935974168E+002	6.1095041E-001	-2.7039093E+002
3	0	3.834735935847857E+002	6.1211771E-001	-2.7036618E+002
3	0	3.839735935721546E+002	6.1393929E-001	-2.7036618E+002
3	0	3.844735935595236E+002	6.1776519E-001	-2.7037677E+002
3	0	3.849735935468925E+002	6.2268174E-001	-2.7038385E+002
3	0	3.854735935342615E+002	6.2769604E-001	-2.7040860E+002
3	0	3.859735935216304E+002	6.3234246E-001	-2.7036972E+002
3	0	3.864735935089993E+002	6.3650113E-001	-2.7038031E+002
3	0	3.869735934963683E+002	6.3963646E-001	-2.7036618E+002
3	0	3.874735934837372E+002	6.4161146E-001	-2.7038742E+002
3	0	3.879735934711061E+002	6.4291191E-001	-2.7035913E+002
3	0	3.884735934584751E+002	6.4520609E-001	-2.7036618E+002
3	0	3.889735934458440E+002	6.4774382E-001	-2.7038742E+002
3	0	3.894735934332130E+002	6.4956874E-001	-2.7037326E+002
3	0	3.899735934205819E+002	6.5025222E-001	-2.7038742E+002
3	0	3.904735934079508E+002	6.4974147E-001	-2.7037326E+002
3	0	3.909735933953198E+002	6.4788485E-001	-2.7037677E+002
3	0	3.914735933826887E+002	6.4463973E-001	-2.7038742E+002
3	0	3.919735933700576E+002	6.4079040E-001	-2.7036618E+002
3	0	3.924735933574266E+002	6.3810819E-001	-2.7036618E+002
3	0	3.929735933447955E+002	6.3582212E-001	-2.7038742E+002
3	0	3.934735933321645E+002	6.3313115E-001	-2.7038742E+002
3	0	3.939735933195334E+002	6.2980241E-001	-2.7035913E+002
3	0	3.944735933069023E+002	6.2588948E-001	-2.7038031E+002
3	0	3.949735932942713E+002	6.2130940E-001	-2.7035559E+002
3	0	3.954735932816402E+002	6.1586738E-001	-2.7038031E+002
3	0	3.959735932690091E+002	6.1005670E-001	-2.7037677E+002
3	0	3.964735932563781E+002	6.0574186E-001	-2.7038742E+002
3	0	3.969735932437470E+002	6.0211200E-001	-2.7033789E+002
3	0	3.974735932311160E+002	5.9840399E-001	-2.7040506E+002
3	0	3.979735932184849E+002	5.9424663E-001	-2.7037677E+002
3	0	3.984735932058538E+002	5.8985031E-001	-2.7039447E+002
3	0	3.989735931932228E+002	5.8497345E-001	-2.7038742E+002
3	0	3.994735931805917E+002	5.7942569E-001	-2.7039447E+002
3	0	3.999735931679606E+002	5.7380921E-001	-2.7036972E+002
3	0	4.004735931553296E+002	5.6996661E-001	-2.7039801E+002
3	0	4.009735931426985E+002	5.6734020E-001	-2.7035913E+002
3	0	4.014735931300675E+002	5.6531268E-001	-2.7037326E+002
3	0	4.019735931174364E+002	5.6384331E-001	-2.7036972E+002
3	0	4.024735931048053E+002	5.6311458E-001	-2.7035913E+002
3	0	4.029735930921743E+002	5.6281197E-001	-2.7040155E+002
3	0	4.034735930795432E+002	5.6266302E-001	-2.7038385E+002
3	0	4.039735930669121E+002	5.6322438E-001	-2.7039801E+002
3	0	4.044735930542811E+002	5.6576508E-001	-2.7039801E+002
3	0	4.049735930416500E+002	5.6915438E-001	-2.7036972E+002
3	0	4.049739930416399E+002	5.7089794E-001	-2.7036267E+002