EC-Lab ASCII FILE
Nb header lines : 55                          

Open Circuit Voltage

Run on channel : 1 (SN 81504)
User : 
CE vs. WE compliance from -10 V to 10 V
Electrode connection : standard
Potential control : Ewe
Ewe ctrl range : min = -2.50 V, max = 2.50 V
Safety Limits :
	Do not start on E overload
Acquisition started on : 05/10/2026 04:16:10.113
Loaded Setting File :  C:\PEM-WE_measurements\2026\372_IV_IV IrOx, 5 min Pt, 30 min C, etched cathode\new station\Loopeis new\1,46 V different time gaps closed cell\Loopeis 1,46V_90s_3_PEIS from 6500Hz to 1000Hz.mps
Saved on :
	File : L_18_Loopeis 1,46V_90s_3_PEIS from 6500Hz to 1000Hz_14_OCV_C01.mpr
	Directory : C:\PEM-WE_measurements\2026\372_IV_IV IrOx, 5 min Pt, 30 min C, etched cathode\new station\Loopeis new\1,46 V different time gaps closed cell\
	Host : 192.168.0.2
Device : SP-150e (SN .005491)
Address : 192.168.0.91
EC-LAB for windows v11.71 (software)
Internet server v28.00 (firmware)
Command interpretor v14.01 (firmware)
Electrode material : 
Initial state : 
Electrolyte : 
Comments : 
Current amplifier : SP-150eB-20A
Electrode surface area : 0.001 cm²
Characteristic mass : 0.001 g
Equivalent Weight : 0.000 g/eq.
Density : 0.000 g/cm3
Volume (V) : 0.001 cm³
Record Analogic IN 1
Text export
   Mode : Standard
   Time format : Elapsed
Cycle Definition : Charge/Discharge alternance
External device configuration :
   device type : Temperature Probe
   device name : Other
   Analog IN 1 : 
      unit : T/Â°C
      max : 100.000 at 2.000 V
      min : 0.000 at 1.460 V
tR (h:m:s)          0:01:30.0000        
dER/dt (mV/h)       1.0                 
record              <Ewe>               
dER (mV)            10.00               
dtR (s)             0.5000              
E range min (V)     -2.500              
E range max (V)     2.500               

mode	error	time/s	<Ewe/V>	Analog IN 1/V	
3	0	8.576511883125931E+002	1.2849799E+000	-2.7037677E+002
3	0	8.581511882999621E+002	1.2916970E+000	-2.7036618E+002
3	0	8.586511882873310E+002	1.2925708E+000	-2.7037326E+002
3	0	8.591511882747000E+002	1.2919642E+000	-2.7038031E+002
3	0	8.596511882620689E+002	1.2904694E+000	-2.7038385E+002
3	0	8.601511882494378E+002	1.2881186E+000	-2.7039093E+002
3	0	8.606511882368068E+002	1.2844683E+000	-2.7035913E+002
3	0	8.611511882241757E+002	1.2785546E+000	-2.7038385E+002
3	0	8.616511882115447E+002	1.2687840E+000	-2.7039093E+002
3	0	8.621511881989136E+002	1.2529855E+000	-2.7036972E+002
3	0	8.626511881862825E+002	1.2279227E+000	-2.7037677E+002
3	0	8.631511881736515E+002	1.1877317E+000	-2.7039093E+002
3	0	8.636511881610204E+002	1.1179713E+000	-2.7036972E+002
3	0	8.641511881483893E+002	9.8064291E-001	-2.7037677E+002
3	0	8.646511881357583E+002	7.4343491E-001	-2.7037326E+002
3	0	8.651511881231272E+002	6.1702424E-001	-2.7035913E+002
3	0	8.656511881104962E+002	5.8359587E-001	-2.7037677E+002
3	0	8.661511880978651E+002	5.7218587E-001	-2.7036972E+002
3	0	8.666511880852340E+002	5.6947356E-001	-2.7037326E+002
3	0	8.671511880726030E+002	5.7020766E-001	-2.7037677E+002
3	0	8.676511880599719E+002	5.7318735E-001	-2.7036267E+002
3	0	8.681511880473408E+002	5.7869107E-001	-2.7038385E+002
3	0	8.686511880347098E+002	5.8476371E-001	-2.7036972E+002
3	0	8.691511880220787E+002	5.9060234E-001	-2.7036267E+002
3	0	8.696511880094477E+002	5.9618473E-001	-2.7036267E+002
3	0	8.701511879968166E+002	6.0137278E-001	-2.7037677E+002
3	0	8.706511879841855E+002	6.0567951E-001	-2.7036267E+002
3	0	8.711511879715545E+002	6.0906398E-001	-2.7036267E+002
3	0	8.716511879589234E+002	6.1232698E-001	-2.7036618E+002
3	0	8.721511879462923E+002	6.1668420E-001	-2.7037326E+002
3	0	8.726511879336613E+002	6.2066054E-001	-2.7037677E+002
3	0	8.731511879210302E+002	6.2387097E-001	-2.7037326E+002
3	0	8.736511879083992E+002	6.2661862E-001	-2.7037326E+002
3	0	8.741511878957681E+002	6.2893343E-001	-2.7038385E+002
3	0	8.746511878831370E+002	6.3052797E-001	-2.7035913E+002
3	0	8.751511878705060E+002	6.3122815E-001	-2.7039447E+002
3	0	8.756511878578749E+002	6.3209522E-001	-2.7036267E+002
3	0	8.761511878452438E+002	6.3421464E-001	-2.7038385E+002
3	0	8.766511878326128E+002	6.3603598E-001	-2.7037326E+002
3	0	8.771511878199817E+002	6.3728714E-001	-2.7038385E+002
3	0	8.776511878073507E+002	6.3815457E-001	-2.7036267E+002
3	0	8.781511877947196E+002	6.3876897E-001	-2.7038385E+002
3	0	8.786511877820885E+002	6.3887215E-001	-2.7039447E+002
3	0	8.791511877694575E+002	6.3830715E-001	-2.7038385E+002
3	0	8.796511877568264E+002	6.3789612E-001	-2.7037326E+002
3	0	8.801511877441953E+002	6.3882762E-001	-2.7035913E+002
3	0	8.806511877315643E+002	6.3978958E-001	-2.7037326E+002
3	0	8.811511877189332E+002	6.4032406E-001	-2.7037326E+002
3	0	8.816511877063022E+002	6.4035261E-001	-2.7039801E+002
3	0	8.821511876936711E+002	6.4010018E-001	-2.7039093E+002
3	0	8.826511876810400E+002	6.3941592E-001	-2.7036972E+002
3	0	8.831511876684090E+002	6.3838702E-001	-2.7038385E+002
3	0	8.836511876557779E+002	6.3811767E-001	-2.7036972E+002
3	0	8.841511876431468E+002	6.3974965E-001	-2.7035913E+002
3	0	8.846511876305158E+002	6.4202380E-001	-2.7038031E+002
3	0	8.851511876178847E+002	6.4449710E-001	-2.7038031E+002
3	0	8.856511876052537E+002	6.4738417E-001	-2.7036972E+002
3	0	8.861511875926226E+002	6.5054935E-001	-2.7038385E+002
3	0	8.866511875799915E+002	6.5364587E-001	-2.7038385E+002
3	0	8.871511875673605E+002	6.5629971E-001	-2.7037677E+002
3	0	8.876511875547294E+002	6.5932596E-001	-2.7038385E+002
3	0	8.881511875420983E+002	6.6398627E-001	-2.7035913E+002
3	0	8.886511875294673E+002	6.6884124E-001	-2.7038031E+002
3	0	8.891511875168362E+002	6.7340183E-001	-2.7037326E+002
3	0	8.896511875042052E+002	6.7728591E-001	-2.7034143E+002
3	0	8.901511874915741E+002	6.8065310E-001	-2.7039801E+002
3	0	8.906511874789430E+002	6.8309367E-001	-2.7036972E+002
3	0	8.911511874663120E+002	6.8462211E-001	-2.7038742E+002
3	0	8.916511874536809E+002	6.8603468E-001	-2.7036972E+002
3	0	8.921511874410498E+002	6.8875444E-001	-2.7038385E+002
3	0	8.926511874284188E+002	6.9142675E-001	-2.7035559E+002
3	0	8.931511874157877E+002	6.9322139E-001	-2.7037677E+002
3	0	8.936511874031567E+002	6.9389904E-001	-2.7036972E+002
3	0	8.941511873905256E+002	6.9358009E-001	-2.7035913E+002
3	0	8.946511873778945E+002	6.9185525E-001	-2.7039093E+002
3	0	8.951511873652635E+002	6.8895727E-001	-2.7039447E+002
3	0	8.956511873526324E+002	6.8628460E-001	-2.7036618E+002
3	0	8.961511873400013E+002	6.8512702E-001	-2.7034143E+002
3	0	8.966511873273703E+002	6.8407959E-001	-2.7037677E+002
3	0	8.971511873147392E+002	6.8247682E-001	-2.7036618E+002
3	0	8.976511873021082E+002	6.8013507E-001	-2.7035913E+002
3	0	8.981511872894771E+002	6.7724490E-001	-2.7036972E+002
3	0	8.986511872768460E+002	6.7340487E-001	-2.7039801E+002
3	0	8.991511872642150E+002	6.6859663E-001	-2.7037677E+002
3	0	8.996511872515839E+002	6.6404432E-001	-2.7037677E+002
3	0	9.001511872389528E+002	6.6119289E-001	-2.7039447E+002
3	0	9.006511872263218E+002	6.5874660E-001	-2.7038385E+002
3	0	9.011511872136907E+002	6.5601015E-001	-2.7038742E+002
3	0	9.016511872010597E+002	6.5287304E-001	-2.7036972E+002
3	0	9.021511871884286E+002	6.4947450E-001	-2.7038031E+002
3	0	9.026511871757975E+002	6.4552671E-001	-2.7036267E+002
3	0	9.031511871631665E+002	6.4137512E-001	-2.7036972E+002
3	0	9.036511871505354E+002	6.3811952E-001	-2.7037677E+002
3	0	9.041511871379043E+002	6.3716316E-001	-2.7038031E+002
3	0	9.046511871252733E+002	6.3747168E-001	-2.7037326E+002
3	0	9.051511871126422E+002	6.3846225E-001	-2.7036972E+002
3	0	9.056511871000112E+002	6.4006311E-001	-2.7036618E+002
3	0	9.061511870873801E+002	6.4230305E-001	-2.7038385E+002
3	0	9.066511870747490E+002	6.4455271E-001	-2.7038742E+002
3	0	9.071511870621180E+002	6.4650732E-001	-2.7038742E+002
3	0	9.076511870494869E+002	6.4923698E-001	-2.7035913E+002
3	0	9.081511870368558E+002	6.5383840E-001	-2.7035205E+002
3	0	9.086511870242248E+002	6.5890831E-001	-2.7039093E+002
3	0	9.091511870115937E+002	6.6369110E-001	-2.7035559E+002
3	0	9.096511869989627E+002	6.6785735E-001	-2.7038385E+002
3	0	9.101511869863316E+002	6.7125845E-001	-2.7038742E+002
3	0	9.106511869737005E+002	6.7323518E-001	-2.7037326E+002
3	0	9.111511869610695E+002	6.7376214E-001	-2.7037326E+002
3	0	9.116511869484384E+002	6.7403227E-001	-2.7036618E+002
3	0	9.121511869358073E+002	6.7542446E-001	-2.7038385E+002
3	0	9.126511869231763E+002	6.7673177E-001	-2.7039447E+002
3	0	9.131511869105452E+002	6.7730087E-001	-2.7039093E+002
3	0	9.136511868979142E+002	6.7682016E-001	-2.7038742E+002
3	0	9.141511868852831E+002	6.7515135E-001	-2.7036972E+002
3	0	9.146511868726520E+002	6.7213553E-001	-2.7038742E+002
3	0	9.151511868600210E+002	6.6770583E-001	-2.7038385E+002
3	0	9.156511868473899E+002	6.6313511E-001	-2.7039447E+002
3	0	9.161511868347588E+002	6.5997165E-001	-2.7036267E+002
3	0	9.166511868221278E+002	6.5713912E-001	-2.7038385E+002
3	0	9.171511868094967E+002	6.5388221E-001	-2.7038385E+002
3	0	9.176511867968657E+002	6.5017933E-001	-2.7038385E+002
3	0	9.181511867842346E+002	6.4600813E-001	-2.7038742E+002
3	0	9.186511867716035E+002	6.4108032E-001	-2.7036618E+002
3	0	9.191511867589725E+002	6.3535368E-001	-2.7036972E+002
3	0	9.196511867463414E+002	6.3016355E-001	-2.7036618E+002
3	0	9.201511867337103E+002	6.2660623E-001	-2.7038031E+002
3	0	9.206511867210793E+002	6.2345397E-001	-2.7035913E+002
3	0	9.211511867084482E+002	6.2006712E-001	-2.7038385E+002
3	0	9.216511866958172E+002	6.1628991E-001	-2.7036618E+002
3	0	9.221511866831861E+002	6.1225271E-001	-2.7038742E+002
3	0	9.226511866705550E+002	6.0771346E-001	-2.7039447E+002
3	0	9.231511866579240E+002	6.0273755E-001	-2.7039801E+002
3	0	9.236511866452929E+002	5.9854221E-001	-2.7038031E+002
3	0	9.241511866326618E+002	5.9650332E-001	-2.7038031E+002
3	0	9.246511866200308E+002	5.9560919E-001	-2.7038385E+002
3	0	9.251511866073997E+002	5.9538031E-001	-2.7036267E+002
3	0	9.256511865947687E+002	5.9581667E-001	-2.7040860E+002
3	0	9.261511865821376E+002	5.9686261E-001	-2.7036267E+002
3	0	9.266511865695065E+002	5.9825695E-001	-2.7036267E+002
3	0	9.271511865568755E+002	5.9953862E-001	-2.7036267E+002
3	0	9.276511865442444E+002	6.0133308E-001	-2.7035559E+002
3	0	9.281511865316133E+002	6.0472423E-001	-2.7038031E+002
3	0	9.286511865189823E+002	6.0843694E-001	-2.7041214E+002
3	0	9.291511865063512E+002	6.1188549E-001	-2.7038031E+002
3	0	9.296511864937202E+002	6.1483270E-001	-2.7036618E+002
3	0	9.301511864810891E+002	6.1718100E-001	-2.7039801E+002
3	0	9.306511864684580E+002	6.1848199E-001	-2.7036972E+002
3	0	9.311511864558270E+002	6.1870271E-001	-2.7039093E+002
3	0	9.316511864431959E+002	6.1869681E-001	-2.7040155E+002
3	0	9.321511864305648E+002	6.1978805E-001	-2.7038742E+002
3	0	9.326511864179338E+002	6.2085831E-001	-2.7036618E+002
3	0	9.331511864053027E+002	6.2139577E-001	-2.7036972E+002
3	0	9.336511863926717E+002	6.2125975E-001	-2.7037326E+002
3	0	9.341511863800406E+002	6.2033838E-001	-2.7039447E+002
3	0	9.346511863674095E+002	6.1848152E-001	-2.7038385E+002
3	0	9.351511863547785E+002	6.1558133E-001	-2.7036972E+002
3	0	9.356511863421474E+002	6.1245376E-001	-2.7035913E+002
3	0	9.361511863295163E+002	6.1053443E-001	-2.7037677E+002
3	0	9.366511863168853E+002	6.0867184E-001	-2.7036618E+002
3	0	9.371511863042542E+002	6.0635978E-001	-2.7037677E+002
3	0	9.376511862916232E+002	6.0356760E-001	-2.7036972E+002
3	0	9.381511862789921E+002	6.0025275E-001	-2.7037677E+002
3	0	9.386511862663610E+002	5.9616369E-001	-2.7037326E+002
3	0	9.391511862537300E+002	5.9117067E-001	-2.7039093E+002
3	0	9.396511862410989E+002	5.8638459E-001	-2.7036618E+002
3	0	9.401511862284679E+002	5.8299094E-001	-2.7039093E+002
3	0	9.406511862158368E+002	5.7984203E-001	-2.7037677E+002
3	0	9.411511862032057E+002	5.7652527E-001	-2.7036618E+002
3	0	9.416511861905747E+002	5.7279980E-001	-2.7037677E+002
3	0	9.421511861779436E+002	5.6875730E-001	-2.7035559E+002
3	0	9.426511861653125E+002	5.6407148E-001	-2.7038742E+002
3	0	9.431511861526815E+002	5.5896217E-001	-2.7038031E+002
3	0	9.436511861400504E+002	5.5454075E-001	-2.7038031E+002
3	0	9.441511861274194E+002	5.5205131E-001	-2.7038031E+002
3	0	9.446511861147883E+002	5.5047464E-001	-2.7036972E+002
3	0	9.451511861021572E+002	5.4947340E-001	-2.7038031E+002
3	0	9.456511860895262E+002	5.4908657E-001	-2.7036972E+002
3	0	9.461511860768951E+002	5.4916573E-001	-2.7039801E+002
3	0	9.466511860642640E+002	5.4936719E-001	-2.7036267E+002
3	0	9.471511860516330E+002	5.4939866E-001	-2.7036618E+002
3	0	9.471515860516229E+002	5.4936182E-001	-2.7038385E+002