EC-Lab ASCII FILE
Nb header lines : 55                          

Open Circuit Voltage

Run on channel : 1 (SN 81504)
User : 
CE vs. WE compliance from -10 V to 10 V
Electrode connection : standard
Potential control : Ewe
Ewe ctrl range : min = -2.50 V, max = 2.50 V
Safety Limits :
	Do not start on E overload
Acquisition started on : 05/10/2026 04:38:51.126
Loaded Setting File :  C:\PEM-WE_measurements\2026\372_IV_IV IrOx, 5 min Pt, 30 min C, etched cathode\new station\Loopeis new\1,46 V different time gaps closed cell\Loopeis 1,46V_90s_4_PEIS from 650Hz to 100Hz.mps
Saved on :
	File : L_19_Loopeis 1,46V_90s_4_PEIS from 650Hz to 100Hz_08_OCV_C01.mpr
	Directory : C:\PEM-WE_measurements\2026\372_IV_IV IrOx, 5 min Pt, 30 min C, etched cathode\new station\Loopeis new\1,46 V different time gaps closed cell\
	Host : 192.168.0.2
Device : SP-150e (SN .005491)
Address : 192.168.0.91
EC-LAB for windows v11.71 (software)
Internet server v28.00 (firmware)
Command interpretor v14.01 (firmware)
Electrode material : 
Initial state : 
Electrolyte : 
Comments : 
Current amplifier : SP-150eB-20A
Electrode surface area : 0.001 cm²
Characteristic mass : 0.001 g
Equivalent Weight : 0.000 g/eq.
Density : 0.000 g/cm3
Volume (V) : 0.001 cm³
Record Analogic IN 1
Text export
   Mode : Standard
   Time format : Elapsed
Cycle Definition : Charge/Discharge alternance
External device configuration :
   device type : Temperature Probe
   device name : Other
   Analog IN 1 : 
      unit : T/Â°C
      max : 100.000 at 2.000 V
      min : 0.000 at 1.460 V
tR (h:m:s)          0:01:30.0000        
dER/dt (mV/h)       1.0                 
record              <Ewe>               
dER (mV)            10.00               
dtR (s)             0.5000              
E range min (V)     -2.500              
E range max (V)     2.500               

mode	error	time/s	<Ewe/V>	Analog IN 1/V	
3	0	4.501573951530008E+002	1.1384106E+000	-2.7036618E+002
3	0	4.506573951403698E+002	1.2610213E+000	-2.7037677E+002
3	0	4.511573951277387E+002	1.2627940E+000	-2.7038742E+002
3	0	4.516573951151076E+002	1.2627809E+000	-2.7036618E+002
3	0	4.521573951024766E+002	1.2616858E+000	-2.7039093E+002
3	0	4.526573950898455E+002	1.2595170E+000	-2.7039801E+002
3	0	4.531573950772145E+002	1.2559590E+000	-2.7038385E+002
3	0	4.536573950645834E+002	1.2502513E+000	-2.7039801E+002
3	0	4.541573950519523E+002	1.2409588E+000	-2.7034851E+002
3	0	4.546573950393213E+002	1.2263232E+000	-2.7037326E+002
3	0	4.551573950266902E+002	1.2036270E+000	-2.7038742E+002
3	0	4.556573950140591E+002	1.1672505E+000	-2.7036972E+002
3	0	4.561573950014281E+002	1.1032836E+000	-2.7036618E+002
3	0	4.566573949887970E+002	9.7342533E-001	-2.7036267E+002
3	0	4.571573949761660E+002	7.4060625E-001	-2.7035559E+002
3	0	4.576573949635349E+002	6.1147332E-001	-2.7035913E+002
3	0	4.581573949509038E+002	5.7393456E-001	-2.7035913E+002
3	0	4.586573949382728E+002	5.5975568E-001	-2.7034851E+002
3	0	4.591573949256417E+002	5.5620790E-001	-2.7039093E+002
3	0	4.596573949130106E+002	5.5627382E-001	-2.7037677E+002
3	0	4.601573949003796E+002	5.5811560E-001	-2.7036267E+002
3	0	4.606573948877485E+002	5.6083411E-001	-2.7040860E+002
3	0	4.611573948751175E+002	5.6387490E-001	-2.7038031E+002
3	0	4.616573948624864E+002	5.6675267E-001	-2.7040155E+002
3	0	4.621573948498553E+002	5.6895906E-001	-2.7035913E+002
3	0	4.626573948372243E+002	5.7167679E-001	-2.7039447E+002
3	0	4.631573948245932E+002	5.7558316E-001	-2.7038031E+002
3	0	4.636573948119621E+002	5.7896543E-001	-2.7038385E+002
3	0	4.641573947993311E+002	5.8207595E-001	-2.7036267E+002
3	0	4.646573947867000E+002	5.8492672E-001	-2.7039447E+002
3	0	4.651573947740690E+002	5.8747649E-001	-2.7035913E+002
3	0	4.656573947614379E+002	5.8925170E-001	-2.7038385E+002
3	0	4.661573947488068E+002	5.9017718E-001	-2.7034851E+002
3	0	4.666573947361758E+002	5.9128267E-001	-2.7038385E+002
3	0	4.671573947235447E+002	5.9353489E-001	-2.7038742E+002
3	0	4.676573947109137E+002	5.9543353E-001	-2.7036618E+002
3	0	4.681573946982826E+002	5.9727752E-001	-2.7038742E+002
3	0	4.686573946856515E+002	5.9915590E-001	-2.7038385E+002
3	0	4.691573946730205E+002	6.0109621E-001	-2.7034497E+002
3	0	4.696573946603894E+002	6.0275394E-001	-2.7038031E+002
3	0	4.701573946477583E+002	6.0410577E-001	-2.7039093E+002
3	0	4.706573946351273E+002	6.0640287E-001	-2.7036972E+002
3	0	4.711573946224962E+002	6.1007947E-001	-2.7036972E+002
3	0	4.716573946098652E+002	6.1342710E-001	-2.7036267E+002
3	0	4.721573945972341E+002	6.1675066E-001	-2.7038385E+002
3	0	4.726573945846030E+002	6.1988091E-001	-2.7038031E+002
3	0	4.731573945719720E+002	6.2272269E-001	-2.7038031E+002
3	0	4.736573945593409E+002	6.2493396E-001	-2.7036972E+002
3	0	4.741573945467098E+002	6.2628460E-001	-2.7037677E+002
3	0	4.746573945340788E+002	6.2798011E-001	-2.7039801E+002
3	0	4.751573945214477E+002	6.3087988E-001	-2.7037677E+002
3	0	4.756573945088167E+002	6.3325202E-001	-2.7037326E+002
3	0	4.761573944961856E+002	6.3535285E-001	-2.7038742E+002
3	0	4.766573944835545E+002	6.3716078E-001	-2.7039801E+002
3	0	4.771573944709235E+002	6.3867521E-001	-2.7039447E+002
3	0	4.776573944582924E+002	6.3942838E-001	-2.7038742E+002
3	0	4.781573944456613E+002	6.3941592E-001	-2.7039093E+002
3	0	4.786573944330303E+002	6.3966197E-001	-2.7039093E+002
3	0	4.791573944203992E+002	6.4100844E-001	-2.7039093E+002
3	0	4.796573944077682E+002	6.4190978E-001	-2.7038031E+002
3	0	4.801573943951371E+002	6.4247072E-001	-2.7037326E+002
3	0	4.806573943825060E+002	6.4264798E-001	-2.7037326E+002
3	0	4.811573943698750E+002	6.4239520E-001	-2.7036618E+002
3	0	4.816573943572439E+002	6.4148885E-001	-2.7037326E+002
3	0	4.821573943446128E+002	6.3985765E-001	-2.7037677E+002
3	0	4.826573943319818E+002	6.3852513E-001	-2.7036972E+002
3	0	4.831573943193507E+002	6.3843822E-001	-2.7039447E+002
3	0	4.836573943067197E+002	6.3800395E-001	-2.7039447E+002
3	0	4.841573942940886E+002	6.3744265E-001	-2.7037677E+002
3	0	4.846573942814575E+002	6.3658851E-001	-2.7037677E+002
3	0	4.851573942688265E+002	6.3543826E-001	-2.7038742E+002
3	0	4.856573942561954E+002	6.3357019E-001	-2.7039801E+002
3	0	4.861573942435643E+002	6.3103044E-001	-2.7038031E+002
3	0	4.866573942309333E+002	6.2895584E-001	-2.7036267E+002
3	0	4.871573942183022E+002	6.2828487E-001	-2.7038385E+002
3	0	4.876573942056712E+002	6.2745804E-001	-2.7040155E+002
3	0	4.881573941930401E+002	6.2677246E-001	-2.7035913E+002
3	0	4.886573941804090E+002	6.2629664E-001	-2.7037677E+002
3	0	4.891573941677780E+002	6.2595129E-001	-2.7036972E+002
3	0	4.896573941551469E+002	6.2553352E-001	-2.7039447E+002
3	0	4.901573941425158E+002	6.2507606E-001	-2.7038742E+002
3	0	4.906573941298848E+002	6.2567735E-001	-2.7040506E+002
3	0	4.911573941172537E+002	6.2825358E-001	-2.7037326E+002
3	0	4.916573941046227E+002	6.3115233E-001	-2.7039093E+002
3	0	4.921573940919916E+002	6.3414520E-001	-2.7036618E+002
3	0	4.926573940793605E+002	6.3703167E-001	-2.7035205E+002
3	0	4.931573940667295E+002	6.3952118E-001	-2.7036972E+002
3	0	4.936573940540984E+002	6.4127523E-001	-2.7038031E+002
3	0	4.941573940414673E+002	6.4210659E-001	-2.7037677E+002
3	0	4.946573940288363E+002	6.4315057E-001	-2.7037677E+002
3	0	4.951573940162052E+002	6.4527369E-001	-2.7038742E+002
3	0	4.956573940035742E+002	6.4694548E-001	-2.7036618E+002
3	0	4.961573939909431E+002	6.4810050E-001	-2.7036618E+002
3	0	4.966573939783120E+002	6.4873183E-001	-2.7038031E+002
3	0	4.971573939656810E+002	6.4876240E-001	-2.7038031E+002
3	0	4.976573939530499E+002	6.4782161E-001	-2.7035913E+002
3	0	4.981573939404188E+002	6.4597493E-001	-2.7038385E+002
3	0	4.986573939277878E+002	6.4431030E-001	-2.7039093E+002
3	0	4.991573939151567E+002	6.4384919E-001	-2.7037326E+002
3	0	4.996573939025257E+002	6.4305097E-001	-2.7038385E+002
3	0	5.001573938898946E+002	6.4188033E-001	-2.7040506E+002
3	0	5.006573938772635E+002	6.4027160E-001	-2.7037677E+002
3	0	5.011573938646325E+002	6.3806051E-001	-2.7038385E+002
3	0	5.016573938520014E+002	6.3504124E-001	-2.7040155E+002
3	0	5.021573938393703E+002	6.3127494E-001	-2.7037677E+002
3	0	5.026573938267393E+002	6.2777454E-001	-2.7038385E+002
3	0	5.031573938141082E+002	6.2566966E-001	-2.7038031E+002
3	0	5.036573938014772E+002	6.2339520E-001	-2.7036618E+002
3	0	5.041573937888461E+002	6.2089211E-001	-2.7036618E+002
3	0	5.046573937762150E+002	6.1830169E-001	-2.7035913E+002
3	0	5.051573937635840E+002	6.1538279E-001	-2.7037677E+002
3	0	5.056573937509529E+002	6.1148137E-001	-2.7037326E+002
3	0	5.061573937383218E+002	6.0691470E-001	-2.7037326E+002
3	0	5.066573937256908E+002	6.0312068E-001	-2.7037677E+002
3	0	5.071573937130597E+002	6.0084754E-001	-2.7038742E+002
3	0	5.076573937004287E+002	5.9858572E-001	-2.7036972E+002
3	0	5.081573936877976E+002	5.9653509E-001	-2.7039093E+002
3	0	5.086573936751665E+002	5.9469944E-001	-2.7038031E+002
3	0	5.091573936625355E+002	5.9318340E-001	-2.7037677E+002
3	0	5.096573936499044E+002	5.9163898E-001	-2.7038385E+002
3	0	5.101573936372733E+002	5.9017879E-001	-2.7039093E+002
3	0	5.106573936246423E+002	5.9000379E-001	-2.7036267E+002
3	0	5.111573936120112E+002	5.9188002E-001	-2.7036267E+002
3	0	5.116573935993802E+002	5.9432822E-001	-2.7038031E+002
3	0	5.121573935867491E+002	5.9735340E-001	-2.7038031E+002
3	0	5.126573935741180E+002	6.0050279E-001	-2.7038385E+002
3	0	5.131573935614870E+002	6.0360479E-001	-2.7038031E+002
3	0	5.136573935488559E+002	6.0607660E-001	-2.7037677E+002
3	0	5.141573935362248E+002	6.0792047E-001	-2.7036972E+002
3	0	5.146573935235938E+002	6.1016566E-001	-2.7036618E+002
3	0	5.151573935109627E+002	6.1353368E-001	-2.7038742E+002
3	0	5.156573934983317E+002	6.1643618E-001	-2.7037326E+002
3	0	5.161573934857006E+002	6.1890972E-001	-2.7037677E+002
3	0	5.166573934730695E+002	6.2073672E-001	-2.7038385E+002
3	0	5.171573934604385E+002	6.2180841E-001	-2.7038742E+002
3	0	5.176573934478074E+002	6.2176728E-001	-2.7037326E+002
3	0	5.181573934351763E+002	6.2050533E-001	-2.7038385E+002
3	0	5.186573934225453E+002	6.1955643E-001	-2.7039093E+002
3	0	5.191573934099142E+002	6.1971253E-001	-2.7039801E+002
3	0	5.196573933972832E+002	6.1938775E-001	-2.7039447E+002
3	0	5.201573933846521E+002	6.1866140E-001	-2.7038385E+002
3	0	5.206573933720210E+002	6.1728734E-001	-2.7037326E+002
3	0	5.211573933593900E+002	6.1527216E-001	-2.7042273E+002
3	0	5.216573933467589E+002	6.1218691E-001	-2.7035559E+002
3	0	5.221573933341278E+002	6.0810667E-001	-2.7036618E+002
3	0	5.226573933214968E+002	6.0439938E-001	-2.7039093E+002
3	0	5.231573933088657E+002	6.0199875E-001	-2.7036972E+002
3	0	5.236573932962347E+002	5.9932679E-001	-2.7040506E+002
3	0	5.241573932836036E+002	5.9650558E-001	-2.7038385E+002
3	0	5.246573932709725E+002	5.9334588E-001	-2.7037326E+002
3	0	5.251573932583415E+002	5.8978194E-001	-2.7040860E+002
3	0	5.256573932457104E+002	5.8537781E-001	-2.7037677E+002
3	0	5.261573932330793E+002	5.8035189E-001	-2.7038385E+002
3	0	5.266573932204483E+002	5.7569385E-001	-2.7037677E+002
3	0	5.271573932078172E+002	5.7237059E-001	-2.7038385E+002
3	0	5.276573931951862E+002	5.6896049E-001	-2.7036972E+002
3	0	5.281573931825551E+002	5.6567520E-001	-2.7035913E+002
3	0	5.286573931699240E+002	5.6247640E-001	-2.7034497E+002
3	0	5.291573931572930E+002	5.5941463E-001	-2.7037326E+002
3	0	5.296573931446619E+002	5.5631185E-001	-2.7036972E+002
3	0	5.301573931320308E+002	5.5340892E-001	-2.7038031E+002
3	0	5.306573931193998E+002	5.5181819E-001	-2.7036972E+002
3	0	5.311573931067687E+002	5.5214894E-001	-2.7039093E+002
3	0	5.316573930941377E+002	5.5281258E-001	-2.7036267E+002
3	0	5.321573930815066E+002	5.5390960E-001	-2.7036972E+002
3	0	5.326573930688755E+002	5.5503064E-001	-2.7039093E+002
3	0	5.331573930562445E+002	5.5602026E-001	-2.7040860E+002
3	0	5.336573930436134E+002	5.5643606E-001	-2.7035913E+002
3	0	5.341573930309823E+002	5.5621910E-001	-2.7037326E+002
3	0	5.346573930183513E+002	5.5636078E-001	-2.7039801E+002
3	0	5.351573930057202E+002	5.5766416E-001	-2.7038031E+002
3	0	5.356573929930892E+002	5.5855876E-001	-2.7036972E+002
3	0	5.361573929804581E+002	5.5929124E-001	-2.7040155E+002
3	0	5.366573929678270E+002	5.5957448E-001	-2.7039093E+002
3	0	5.371573929551960E+002	5.5924630E-001	-2.7035205E+002
3	0	5.376573929425649E+002	5.5804986E-001	-2.7038031E+002
3	0	5.381573929299338E+002	5.5597550E-001	-2.7038385E+002
3	0	5.386573929173028E+002	5.5417156E-001	-2.7037677E+002
3	0	5.391573929046717E+002	5.5333477E-001	-2.7038031E+002
3	0	5.396573928920407E+002	5.5203235E-001	-2.7039447E+002
3	0	5.396807928914495E+002	5.5132377E-001	-2.7038742E+002