EC-Lab ASCII FILE
Nb header lines : 55                          

Open Circuit Voltage

Run on channel : 1 (SN 81504)
User : 
CE vs. WE compliance from -10 V to 10 V
Electrode connection : standard
Potential control : Ewe
Ewe ctrl range : min = -2.50 V, max = 2.50 V
Safety Limits :
	Do not start on E overload
Acquisition started on : 05/10/2026 04:38:51.126
Loaded Setting File :  C:\PEM-WE_measurements\2026\372_IV_IV IrOx, 5 min Pt, 30 min C, etched cathode\new station\Loopeis new\1,46 V different time gaps closed cell\Loopeis 1,46V_90s_4_PEIS from 650Hz to 100Hz.mps
Saved on :
	File : L_19_Loopeis 1,46V_90s_4_PEIS from 650Hz to 100Hz_20_OCV_C01.mpr
	Directory : C:\PEM-WE_measurements\2026\372_IV_IV IrOx, 5 min Pt, 30 min C, etched cathode\new station\Loopeis new\1,46 V different time gaps closed cell\
	Host : 192.168.0.2
Device : SP-150e (SN .005491)
Address : 192.168.0.91
EC-LAB for windows v11.71 (software)
Internet server v28.00 (firmware)
Command interpretor v14.01 (firmware)
Electrode material : 
Initial state : 
Electrolyte : 
Comments : 
Current amplifier : SP-150eB-20A
Electrode surface area : 0.001 cm²
Characteristic mass : 0.001 g
Equivalent Weight : 0.000 g/eq.
Density : 0.000 g/cm3
Volume (V) : 0.001 cm³
Record Analogic IN 1
Text export
   Mode : Standard
   Time format : Elapsed
Cycle Definition : Charge/Discharge alternance
External device configuration :
   device type : Temperature Probe
   device name : Other
   Analog IN 1 : 
      unit : T/Â°C
      max : 100.000 at 2.000 V
      min : 0.000 at 1.460 V
tR (h:m:s)          0:01:30.0000        
dER/dt (mV/h)       1.0                 
record              <Ewe>               
dER (mV)            10.00               
dtR (s)             0.5000              
E range min (V)     -2.500              
E range max (V)     2.500               

mode	error	time/s	<Ewe/V>	Analog IN 1/V	
3	0	1.266813584829069E+003	1.1363260E+000	-2.7036972E+002
3	0	1.267313584816438E+003	1.2605680E+000	-2.7035559E+002
3	0	1.267813584803807E+003	1.2621379E+000	-2.7038742E+002
3	0	1.268313584791176E+003	1.2617111E+000	-2.7037326E+002
3	0	1.268813584778545E+003	1.2597474E+000	-2.7038385E+002
3	0	1.269313584765914E+003	1.2559390E+000	-2.7039093E+002
3	0	1.269813584753283E+003	1.2492766E+000	-2.7038385E+002
3	0	1.270313584740652E+003	1.2380066E+000	-2.7041214E+002
3	0	1.270813584728021E+003	1.2197231E+000	-2.7037326E+002
3	0	1.271313584715390E+003	1.1901326E+000	-2.7038031E+002
3	0	1.271813584702759E+003	1.1402649E+000	-2.7037326E+002
3	0	1.272313584690128E+003	1.0448072E+000	-2.7039447E+002
3	0	1.272813584677497E+003	8.2920748E-001	-2.7039093E+002
3	0	1.273313584664866E+003	6.1940104E-001	-2.7038385E+002
3	0	1.273813584652235E+003	5.5574226E-001	-2.7035913E+002
3	0	1.274313584639604E+003	5.3132224E-001	-2.7037326E+002
3	0	1.274813584626972E+003	5.2455360E-001	-2.7039447E+002
3	0	1.275313584614341E+003	5.2444851E-001	-2.7038031E+002
3	0	1.275813584601710E+003	5.2681696E-001	-2.7038742E+002
3	0	1.276313584589079E+003	5.3045070E-001	-2.7038031E+002
3	0	1.276813584576448E+003	5.3483558E-001	-2.7039801E+002
3	0	1.277313584563817E+003	5.3915411E-001	-2.7039093E+002
3	0	1.277813584551186E+003	5.4320568E-001	-2.7039093E+002
3	0	1.278313584538555E+003	5.4794651E-001	-2.7037677E+002
3	0	1.278813584525924E+003	5.5402553E-001	-2.7038385E+002
3	0	1.279313584513293E+003	5.5992413E-001	-2.7039093E+002
3	0	1.279813584500662E+003	5.6528753E-001	-2.7036972E+002
3	0	1.280313584488031E+003	5.7034051E-001	-2.7037677E+002
3	0	1.280813584475400E+003	5.7507938E-001	-2.7036267E+002
3	0	1.281313584462769E+003	5.7908058E-001	-2.7038031E+002
3	0	1.281813584450138E+003	5.8220011E-001	-2.7036618E+002
3	0	1.282313584437507E+003	5.8546722E-001	-2.7039801E+002
3	0	1.282813584424875E+003	5.8976626E-001	-2.7038031E+002
3	0	1.283313584412244E+003	5.9367853E-001	-2.7035913E+002
3	0	1.283813584399613E+003	5.9681785E-001	-2.7039801E+002
3	0	1.284313584386982E+003	5.9939373E-001	-2.7038031E+002
3	0	1.284813584374351E+003	6.0162020E-001	-2.7039801E+002
3	0	1.285313584361720E+003	6.0299909E-001	-2.7036267E+002
3	0	1.285813584349089E+003	6.0353547E-001	-2.7035559E+002
3	0	1.286313584336458E+003	6.0437965E-001	-2.7039801E+002
3	0	1.286813584323827E+003	6.0638160E-001	-2.7037326E+002
3	0	1.287313584311196E+003	6.0812068E-001	-2.7038031E+002
3	0	1.287813584298565E+003	6.0922152E-001	-2.7039801E+002
3	0	1.288313584285934E+003	6.0991716E-001	-2.7038742E+002
3	0	1.288813584273303E+003	6.1038530E-001	-2.7039801E+002
3	0	1.289313584260672E+003	6.1021727E-001	-2.7038385E+002
3	0	1.289813584248041E+003	6.0942155E-001	-2.7038385E+002
3	0	1.290313584235410E+003	6.0899556E-001	-2.7037677E+002
3	0	1.290813584222778E+003	6.0990644E-001	-2.7037677E+002
3	0	1.291313584210147E+003	6.1081529E-001	-2.7039447E+002
3	0	1.291813584197516E+003	6.1121517E-001	-2.7038742E+002
3	0	1.292313584184885E+003	6.1130393E-001	-2.7036618E+002
3	0	1.292813584172254E+003	6.1137736E-001	-2.7036972E+002
3	0	1.293313584159623E+003	6.1129546E-001	-2.7040155E+002
3	0	1.293813584146992E+003	6.1096126E-001	-2.7037677E+002
3	0	1.294313584134361E+003	6.1138040E-001	-2.7038742E+002
3	0	1.294813584121730E+003	6.1357850E-001	-2.7038031E+002
3	0	1.295313584109099E+003	6.1616796E-001	-2.7038385E+002
3	0	1.295813584096468E+003	6.1864412E-001	-2.7038385E+002
3	0	1.296313584083837E+003	6.2103552E-001	-2.7037677E+002
3	0	1.296813584071206E+003	6.2337250E-001	-2.7038031E+002
3	0	1.297313584058575E+003	6.2504905E-001	-2.7037677E+002
3	0	1.297813584045944E+003	6.2613684E-001	-2.7039093E+002
3	0	1.298313584033313E+003	6.2761134E-001	-2.7039447E+002
3	0	1.298813584020681E+003	6.3035852E-001	-2.7038742E+002
3	0	1.299313584008050E+003	6.3301581E-001	-2.7036618E+002
3	0	1.299813583995419E+003	6.3509661E-001	-2.7039447E+002
3	0	1.300313583982788E+003	6.3676882E-001	-2.7037326E+002
3	0	1.300813583970157E+003	6.3812274E-001	-2.7037677E+002
3	0	1.301313583957526E+003	6.3875538E-001	-2.7036972E+002
3	0	1.301813583944895E+003	6.3852870E-001	-2.7038742E+002
3	0	1.302313583932264E+003	6.3845438E-001	-2.7037677E+002
3	0	1.302813583919633E+003	6.3959306E-001	-2.7038385E+002
3	0	1.303313583907002E+003	6.4061666E-001	-2.7039447E+002
3	0	1.303813583894371E+003	6.4091408E-001	-2.7037677E+002
3	0	1.304313583881740E+003	6.4065796E-001	-2.7039447E+002
3	0	1.304813583869109E+003	6.3986367E-001	-2.7040155E+002
3	0	1.305313583856478E+003	6.3845545E-001	-2.7038385E+002
3	0	1.305813583843847E+003	6.3606018E-001	-2.7039801E+002
3	0	1.306313583831216E+003	6.3387096E-001	-2.7035559E+002
3	0	1.306813583818584E+003	6.3316923E-001	-2.7038385E+002
3	0	1.307313583805953E+003	6.3254994E-001	-2.7036267E+002
3	0	1.307813583793322E+003	6.3134557E-001	-2.7038742E+002
3	0	1.308313583780691E+003	6.2974024E-001	-2.7038742E+002
3	0	1.308813583768060E+003	6.2774909E-001	-2.7037677E+002
3	0	1.309313583755429E+003	6.2495434E-001	-2.7037326E+002
3	0	1.309813583742798E+003	6.2164205E-001	-2.7038031E+002
3	0	1.310313583730167E+003	6.1883032E-001	-2.7037326E+002
3	0	1.310813583717536E+003	6.1752182E-001	-2.7037677E+002
3	0	1.311313583704905E+003	6.1633515E-001	-2.7035559E+002
3	0	1.311813583692274E+003	6.1469662E-001	-2.7037677E+002
3	0	1.312313583679643E+003	6.1260110E-001	-2.7039801E+002
3	0	1.312813583667012E+003	6.1041152E-001	-2.7034497E+002
3	0	1.313313583654381E+003	6.0799432E-001	-2.7038742E+002
3	0	1.313813583641750E+003	6.0541856E-001	-2.7037326E+002
3	0	1.314313583629119E+003	6.0384941E-001	-2.7036267E+002
3	0	1.314813583616487E+003	6.0438240E-001	-2.7039447E+002
3	0	1.315313583603856E+003	6.0573226E-001	-2.7038031E+002
3	0	1.315813583591225E+003	6.0723424E-001	-2.7036972E+002
3	0	1.316313583578594E+003	6.0900086E-001	-2.7038385E+002
3	0	1.316813583565963E+003	6.1089772E-001	-2.7038385E+002
3	0	1.317313583553332E+003	6.1241031E-001	-2.7039447E+002
3	0	1.317813583540701E+003	6.1330742E-001	-2.7038031E+002
3	0	1.318313583528070E+003	6.1459076E-001	-2.7038031E+002
3	0	1.318813583515439E+003	6.1727589E-001	-2.7036618E+002
3	0	1.319313583502808E+003	6.2002200E-001	-2.7036972E+002
3	0	1.319813583490177E+003	6.2212825E-001	-2.7036972E+002
3	0	1.320313583477546E+003	6.2360173E-001	-2.7038742E+002
3	0	1.320813583464915E+003	6.2443161E-001	-2.7038385E+002
3	0	1.321313583452284E+003	6.2430429E-001	-2.7038385E+002
3	0	1.321813583439653E+003	6.2327850E-001	-2.7035913E+002
3	0	1.322313583427022E+003	6.2247926E-001	-2.7038385E+002
3	0	1.322813583414390E+003	6.2294197E-001	-2.7038742E+002
3	0	1.323313583401759E+003	6.2327641E-001	-2.7038742E+002
3	0	1.323813583389128E+003	6.2286079E-001	-2.7036618E+002
3	0	1.324313583376497E+003	6.2173599E-001	-2.7038031E+002
3	0	1.324813583363866E+003	6.2015587E-001	-2.7039093E+002
3	0	1.325313583351235E+003	6.1768043E-001	-2.7038031E+002
3	0	1.325813583338604E+003	6.1427212E-001	-2.7038385E+002
3	0	1.326313583325973E+003	6.1113185E-001	-2.7038031E+002
3	0	1.326813583313342E+003	6.0940272E-001	-2.7038385E+002
3	0	1.327313583300711E+003	6.0773271E-001	-2.7036267E+002
3	0	1.327813583288080E+003	6.0546339E-001	-2.7039093E+002
3	0	1.328313583275449E+003	6.0285276E-001	-2.7037677E+002
3	0	1.328813583262818E+003	5.9994656E-001	-2.7036972E+002
3	0	1.329313583250187E+003	5.9637380E-001	-2.7037326E+002
3	0	1.329813583237556E+003	5.9211630E-001	-2.7037677E+002
3	0	1.330313583224925E+003	5.8816290E-001	-2.7038385E+002
3	0	1.330813583212293E+003	5.8578670E-001	-2.7038742E+002
3	0	1.331313583199662E+003	5.8361834E-001	-2.7040860E+002
3	0	1.331813583187031E+003	5.8094734E-001	-2.7040860E+002
3	0	1.332313583174400E+003	5.7799476E-001	-2.7036618E+002
3	0	1.332813583161769E+003	5.7487059E-001	-2.7036972E+002
3	0	1.333313583149138E+003	5.7133728E-001	-2.7038385E+002
3	0	1.333813583136507E+003	5.6766611E-001	-2.7036267E+002
3	0	1.334313583123876E+003	5.6482440E-001	-2.7039093E+002
3	0	1.334813583111245E+003	5.6397039E-001	-2.7036267E+002
3	0	1.335313583098614E+003	5.6387204E-001	-2.7037677E+002
3	0	1.335813583085983E+003	5.6404608E-001	-2.7038031E+002
3	0	1.336313583073352E+003	5.6458461E-001	-2.7038742E+002
3	0	1.336813583060721E+003	5.6540215E-001	-2.7039801E+002
3	0	1.337313583048090E+003	5.6609666E-001	-2.7041214E+002
3	0	1.337813583035459E+003	5.6624502E-001	-2.7038385E+002
3	0	1.338313583022828E+003	5.6682903E-001	-2.7037677E+002
3	0	1.338813583010196E+003	5.6879359E-001	-2.7040860E+002
3	0	1.339313582997565E+003	5.7077873E-001	-2.7036618E+002
3	0	1.339813582984934E+003	5.7224381E-001	-2.7038031E+002
3	0	1.340313582972303E+003	5.7320237E-001	-2.7038385E+002
3	0	1.340813582959672E+003	5.7372177E-001	-2.7038742E+002
3	0	1.341313582947041E+003	5.7324749E-001	-2.7038385E+002
3	0	1.341813582934410E+003	5.7189798E-001	-2.7035913E+002
3	0	1.342313582921779E+003	5.7052773E-001	-2.7037677E+002
3	0	1.342813582909148E+003	5.7038140E-001	-2.7037326E+002
3	0	1.343313582896517E+003	5.7026052E-001	-2.7040155E+002
3	0	1.343813582883886E+003	5.6950319E-001	-2.7040506E+002
3	0	1.344313582871255E+003	5.6817710E-001	-2.7039093E+002
3	0	1.344813582858624E+003	5.6644911E-001	-2.7038031E+002
3	0	1.345313582845993E+003	5.6393206E-001	-2.7037677E+002
3	0	1.345813582833362E+003	5.6054211E-001	-2.7035559E+002
3	0	1.346313582820731E+003	5.5730879E-001	-2.7039447E+002
3	0	1.346813582808099E+003	5.5532098E-001	-2.7036972E+002
3	0	1.347313582795468E+003	5.5334055E-001	-2.7037326E+002
3	0	1.347813582782837E+003	5.5087245E-001	-2.7035913E+002
3	0	1.348313582770206E+003	5.4792744E-001	-2.7036618E+002
3	0	1.348813582757575E+003	5.4468894E-001	-2.7037677E+002
3	0	1.349313582744944E+003	5.4086858E-001	-2.7038385E+002
3	0	1.349813582732313E+003	5.3639925E-001	-2.7040506E+002
3	0	1.350313582719682E+003	5.3213918E-001	-2.7037326E+002
3	0	1.350813582707051E+003	5.2923340E-001	-2.7040506E+002
3	0	1.351313582694420E+003	5.2639180E-001	-2.7036267E+002
3	0	1.351813582681789E+003	5.2305597E-001	-2.7036972E+002
3	0	1.352313582669158E+003	5.1942247E-001	-2.7038742E+002
3	0	1.352813582656527E+003	5.1580703E-001	-2.7037326E+002
3	0	1.353313582643896E+003	5.1181489E-001	-2.7041214E+002
3	0	1.353813582631265E+003	5.0778109E-001	-2.7039447E+002
3	0	1.354313582618634E+003	5.0454265E-001	-2.7040506E+002
3	0	1.354813582606002E+003	5.0304139E-001	-2.7038385E+002
3	0	1.355313582593371E+003	5.0219703E-001	-2.7038031E+002
3	0	1.355813582580740E+003	5.0154734E-001	-2.7040155E+002
3	0	1.356313582568109E+003	5.0118631E-001	-2.7040155E+002
3	0	1.356338182567488E+003	5.0107086E-001	-2.7039801E+002