EC-Lab ASCII FILE
Nb header lines : 55                          

Open Circuit Voltage

Run on channel : 1 (SN 81504)
User : 
CE vs. WE compliance from -10 V to 10 V
Electrode connection : standard
Potential control : Ewe
Ewe ctrl range : min = -2.50 V, max = 2.50 V
Safety Limits :
	Do not start on E overload
Acquisition started on : 05/10/2026 05:01:31.658
Loaded Setting File :  C:\PEM-WE_measurements\2026\372_IV_IV IrOx, 5 min Pt, 30 min C, etched cathode\new station\Loopeis new\1,46 V different time gaps closed cell\Loopeis 1,46V_90s_5_PEIS from 65Hz to 10Hz.mps
Saved on :
	File : L_20_Loopeis 1,46V_90s_5_PEIS from 65Hz to 10Hz_16_OCV_C01.mpr
	Directory : C:\PEM-WE_measurements\2026\372_IV_IV IrOx, 5 min Pt, 30 min C, etched cathode\new station\Loopeis new\1,46 V different time gaps closed cell\
	Host : 192.168.0.2
Device : SP-150e (SN .005491)
Address : 192.168.0.91
EC-LAB for windows v11.71 (software)
Internet server v28.00 (firmware)
Command interpretor v14.01 (firmware)
Electrode material : 
Initial state : 
Electrolyte : 
Comments : 
Current amplifier : SP-150eB-20A
Electrode surface area : 0.001 cm²
Characteristic mass : 0.001 g
Equivalent Weight : 0.000 g/eq.
Density : 0.000 g/cm3
Volume (V) : 0.001 cm³
Record Analogic IN 1
Text export
   Mode : Standard
   Time format : Elapsed
Cycle Definition : Charge/Discharge alternance
External device configuration :
   device type : Temperature Probe
   device name : Other
   Analog IN 1 : 
      unit : T/Â°C
      max : 100.000 at 2.000 V
      min : 0.000 at 1.460 V
tR (h:m:s)          0:01:30.0000        
dER/dt (mV/h)       1.0                 
record              <Ewe>               
dER (mV)            10.00               
dtR (s)             0.5000              
E range min (V)     -2.500              
E range max (V)     2.500               

mode	error	time/s	<Ewe/V>	Analog IN 1/V	
3	0	1.000887788569307E+003	1.2877122E+000	-2.7039801E+002
3	0	1.001387788556676E+003	1.2948126E+000	-2.7038385E+002
3	0	1.001887788544045E+003	1.2953333E+000	-2.7039093E+002
3	0	1.002387788531414E+003	1.2942842E+000	-2.7035913E+002
3	0	1.002887788518783E+003	1.2919763E+000	-2.7039093E+002
3	0	1.003387788506152E+003	1.2880783E+000	-2.7039093E+002
3	0	1.003887788493521E+003	1.2815740E+000	-2.7040506E+002
3	0	1.004387788480890E+003	1.2709522E+000	-2.7035913E+002
3	0	1.004887788468259E+003	1.2542938E+000	-2.7035913E+002
3	0	1.005387788455628E+003	1.2290608E+000	-2.7039093E+002
3	0	1.005887788442997E+003	1.1901481E+000	-2.7038031E+002
3	0	1.006387788430366E+003	1.1221176E+000	-2.7036267E+002
3	0	1.006887788417735E+003	9.7114545E-001	-2.7036618E+002
3	0	1.007387788405103E+003	6.9739354E-001	-2.7039447E+002
3	0	1.007887788392472E+003	5.8104897E-001	-2.7036618E+002
3	0	1.008387788379841E+003	5.4377747E-001	-2.7037326E+002
3	0	1.008887788367210E+003	5.2854490E-001	-2.7037326E+002
3	0	1.009387788354579E+003	5.2139163E-001	-2.7035913E+002
3	0	1.009887788341948E+003	5.1866132E-001	-2.7036972E+002
3	0	1.010387788329317E+003	5.1810062E-001	-2.7037326E+002
3	0	1.010887788316686E+003	5.1799637E-001	-2.7038385E+002
3	0	1.011387788304055E+003	5.1850289E-001	-2.7036972E+002
3	0	1.011887788291424E+003	5.1915711E-001	-2.7036972E+002
3	0	1.012387788278793E+003	5.1993108E-001	-2.7036972E+002
3	0	1.012887788266162E+003	5.2048159E-001	-2.7036972E+002
3	0	1.013387788253531E+003	5.2091950E-001	-2.7039093E+002
3	0	1.013887788240900E+003	5.2245295E-001	-2.7039093E+002
3	0	1.014387788228269E+003	5.2465451E-001	-2.7038742E+002
3	0	1.014887788215638E+003	5.2656639E-001	-2.7036972E+002
3	0	1.015387788203006E+003	5.2858800E-001	-2.7039447E+002
3	0	1.015887788190375E+003	5.3041720E-001	-2.7037677E+002
3	0	1.016387788177744E+003	5.3218067E-001	-2.7040506E+002
3	0	1.016887788165113E+003	5.3348804E-001	-2.7039093E+002
3	0	1.017387788152482E+003	5.3434366E-001	-2.7038742E+002
3	0	1.017887788139851E+003	5.3621227E-001	-2.7037326E+002
3	0	1.018387788127220E+003	5.3857332E-001	-2.7038031E+002
3	0	1.018887788114589E+003	5.4070771E-001	-2.7036972E+002
3	0	1.019387788101958E+003	5.4306531E-001	-2.7037326E+002
3	0	1.019887788089327E+003	5.4534614E-001	-2.7035913E+002
3	0	1.020387788076696E+003	5.4793191E-001	-2.7038385E+002
3	0	1.020887788064065E+003	5.5040455E-001	-2.7038385E+002
3	0	1.021387788051434E+003	5.5289400E-001	-2.7039801E+002
3	0	1.021887788038803E+003	5.5685455E-001	-2.7037677E+002
3	0	1.022387788026172E+003	5.6170398E-001	-2.7038031E+002
3	0	1.022887788013541E+003	5.6639546E-001	-2.7036267E+002
3	0	1.023387788000910E+003	5.7107925E-001	-2.7036972E+002
3	0	1.023887787988278E+003	5.7550937E-001	-2.7035559E+002
3	0	1.024387787975647E+003	5.7958323E-001	-2.7038031E+002
3	0	1.024887787963016E+003	5.8303416E-001	-2.7036618E+002
3	0	1.025387787950385E+003	5.8589435E-001	-2.7037326E+002
3	0	1.025887787937754E+003	5.8940589E-001	-2.7039093E+002
3	0	1.026387787925123E+003	5.9330773E-001	-2.7040506E+002
3	0	1.026887787912492E+003	5.9652668E-001	-2.7040155E+002
3	0	1.027387787899861E+003	5.9949332E-001	-2.7036618E+002
3	0	1.027887787887230E+003	6.0182136E-001	-2.7039447E+002
3	0	1.028387787874599E+003	6.0365081E-001	-2.7035205E+002
3	0	1.028887787861968E+003	6.0460633E-001	-2.7038385E+002
3	0	1.029387787849337E+003	6.0480624E-001	-2.7037677E+002
3	0	1.029887787836706E+003	6.0588938E-001	-2.7040155E+002
3	0	1.030387787824075E+003	6.0747772E-001	-2.7038385E+002
3	0	1.030887787811444E+003	6.0858786E-001	-2.7038742E+002
3	0	1.031387787798813E+003	6.0953021E-001	-2.7038385E+002
3	0	1.031887787786181E+003	6.0987514E-001	-2.7036618E+002
3	0	1.032387787773550E+003	6.0983187E-001	-2.7037677E+002
3	0	1.032887787760919E+003	6.0901755E-001	-2.7035205E+002
3	0	1.033387787748288E+003	6.0766429E-001	-2.7039093E+002
3	0	1.033887787735657E+003	6.0719389E-001	-2.7038742E+002
3	0	1.034387787723026E+003	6.0729390E-001	-2.7038031E+002
3	0	1.034887787710395E+003	6.0692942E-001	-2.7037677E+002
3	0	1.035387787697764E+003	6.0640150E-001	-2.7038031E+002
3	0	1.035887787685133E+003	6.0546452E-001	-2.7039447E+002
3	0	1.036387787672502E+003	6.0425091E-001	-2.7039447E+002
3	0	1.036887787659871E+003	6.0226411E-001	-2.7038031E+002
3	0	1.037387787647240E+003	5.9963059E-001	-2.7037326E+002
3	0	1.037887787634609E+003	5.9796566E-001	-2.7039093E+002
3	0	1.038387787621978E+003	5.9721488E-001	-2.7038385E+002
3	0	1.038887787609347E+003	5.9623671E-001	-2.7037677E+002
3	0	1.039387787596716E+003	5.9538019E-001	-2.7037326E+002
3	0	1.039887787584084E+003	5.9466755E-001	-2.7039093E+002
3	0	1.040387787571453E+003	5.9406549E-001	-2.7039093E+002
3	0	1.040887787558822E+003	5.9343386E-001	-2.7038031E+002
3	0	1.041387787546191E+003	5.9289086E-001	-2.7035913E+002
3	0	1.041887787533560E+003	5.9395880E-001	-2.7040506E+002
3	0	1.042387787520929E+003	5.9630114E-001	-2.7037677E+002
3	0	1.042887787508298E+003	5.9864032E-001	-2.7039801E+002
3	0	1.043387787495667E+003	6.0089415E-001	-2.7038385E+002
3	0	1.043887787483036E+003	6.0293740E-001	-2.7036972E+002
3	0	1.044387787470405E+003	6.0456049E-001	-2.7037677E+002
3	0	1.044887787457774E+003	6.0550493E-001	-2.7036972E+002
3	0	1.045387787445143E+003	6.0575956E-001	-2.7039093E+002
3	0	1.045887787432512E+003	6.0688913E-001	-2.7036972E+002
3	0	1.046387787419881E+003	6.0853410E-001	-2.7038385E+002
3	0	1.046887787407250E+003	6.0958850E-001	-2.7039447E+002
3	0	1.047387787394619E+003	6.1037618E-001	-2.7039093E+002
3	0	1.047887787381987E+003	6.1065829E-001	-2.7034851E+002
3	0	1.048387787369356E+003	6.0979807E-001	-2.7037326E+002
3	0	1.048887787356725E+003	6.0840410E-001	-2.7034497E+002
3	0	1.049387787344094E+003	6.0765934E-001	-2.7037677E+002
3	0	1.049887787331463E+003	6.0739094E-001	-2.7038385E+002
3	0	1.050387787318832E+003	6.0779500E-001	-2.7038385E+002
3	0	1.050887787306201E+003	6.0738456E-001	-2.7036972E+002
3	0	1.051387787293570E+003	6.0622197E-001	-2.7040860E+002
3	0	1.051887787280939E+003	6.0469222E-001	-2.7038385E+002
3	0	1.052387787268308E+003	6.0258687E-001	-2.7040155E+002
3	0	1.052887787255677E+003	5.9948725E-001	-2.7035205E+002
3	0	1.053387787243046E+003	5.9584290E-001	-2.7036972E+002
3	0	1.053887787230415E+003	5.9336013E-001	-2.7038031E+002
3	0	1.054387787217784E+003	5.9195191E-001	-2.7039801E+002
3	0	1.054887787205153E+003	5.9017229E-001	-2.7038742E+002
3	0	1.055387787192522E+003	5.8786684E-001	-2.7037326E+002
3	0	1.055887787179890E+003	5.8534133E-001	-2.7038742E+002
3	0	1.056387787167259E+003	5.8255690E-001	-2.7036972E+002
3	0	1.056887787154628E+003	5.7892215E-001	-2.7037326E+002
3	0	1.057387787141997E+003	5.7483095E-001	-2.7034851E+002
3	0	1.057887787129366E+003	5.7181430E-001	-2.7037326E+002
3	0	1.058387787116735E+003	5.6984586E-001	-2.7035205E+002
3	0	1.058887787104104E+003	5.6769449E-001	-2.7036972E+002
3	0	1.059387787091473E+003	5.6521255E-001	-2.7038742E+002
3	0	1.059887787078842E+003	5.6282663E-001	-2.7035913E+002
3	0	1.060387787066211E+003	5.6064802E-001	-2.7035205E+002
3	0	1.060887787053580E+003	5.5838311E-001	-2.7039801E+002
3	0	1.061387787040949E+003	5.5634934E-001	-2.7038742E+002
3	0	1.061887787028318E+003	5.5578142E-001	-2.7037326E+002
3	0	1.062387787015687E+003	5.5683285E-001	-2.7038742E+002
3	0	1.062887787003056E+003	5.5820149E-001	-2.7038742E+002
3	0	1.063387786990425E+003	5.5944544E-001	-2.7039093E+002
3	0	1.063887786977793E+003	5.6064755E-001	-2.7038385E+002
3	0	1.064387786965162E+003	5.6175590E-001	-2.7038031E+002
3	0	1.064887786952531E+003	5.6210881E-001	-2.7036972E+002
3	0	1.065387786939900E+003	5.6198972E-001	-2.7036618E+002
3	0	1.065887786927269E+003	5.6280529E-001	-2.7040155E+002
3	0	1.066387786914638E+003	5.6445366E-001	-2.7036972E+002
3	0	1.066887786902007E+003	5.6567615E-001	-2.7036267E+002
3	0	1.067387786889376E+003	5.6621838E-001	-2.7034497E+002
3	0	1.067887786876745E+003	5.6641257E-001	-2.7037326E+002
3	0	1.068387786864114E+003	5.6604445E-001	-2.7039093E+002
3	0	1.068887786851483E+003	5.6478339E-001	-2.7041214E+002
3	0	1.069387786838852E+003	5.6285512E-001	-2.7038031E+002
3	0	1.069887786826221E+003	5.6168520E-001	-2.7037677E+002
3	0	1.070387786813590E+003	5.6132561E-001	-2.7037677E+002
3	0	1.070887786800959E+003	5.6047279E-001	-2.7038742E+002
3	0	1.071387786788328E+003	5.5892801E-001	-2.7041214E+002
3	0	1.071887786775696E+003	5.5710262E-001	-2.7037326E+002
3	0	1.072387786763065E+003	5.5491638E-001	-2.7036267E+002
3	0	1.072887786750434E+003	5.5198216E-001	-2.7038031E+002
3	0	1.073387786737803E+003	5.4849499E-001	-2.7039801E+002
3	0	1.073887786725172E+003	5.4579598E-001	-2.7037326E+002
3	0	1.074387786712541E+003	5.4387343E-001	-2.7035913E+002
3	0	1.074887786699910E+003	5.4161716E-001	-2.7039093E+002
3	0	1.075387786687279E+003	5.3888303E-001	-2.7037326E+002
3	0	1.075887786674648E+003	5.3599215E-001	-2.7035913E+002
3	0	1.076387786662017E+003	5.3275865E-001	-2.7038031E+002
3	0	1.076887786649386E+003	5.2884406E-001	-2.7037677E+002
3	0	1.077387786636755E+003	5.2459496E-001	-2.7038385E+002
3	0	1.077887786624124E+003	5.2130020E-001	-2.7036618E+002
3	0	1.078387786611493E+003	5.1881820E-001	-2.7038031E+002
3	0	1.078887786598862E+003	5.1608795E-001	-2.7036972E+002
3	0	1.079387786586231E+003	5.1307851E-001	-2.7037326E+002
3	0	1.079887786573599E+003	5.1021504E-001	-2.7038742E+002
3	0	1.080387786560968E+003	5.0753379E-001	-2.7038742E+002
3	0	1.080887786548337E+003	5.0482446E-001	-2.7036972E+002
3	0	1.081387786535706E+003	5.0219673E-001	-2.7036267E+002
3	0	1.081887786523075E+003	5.0096834E-001	-2.7039447E+002
3	0	1.082387786510444E+003	5.0106627E-001	-2.7038031E+002
3	0	1.082887786497813E+003	5.0137347E-001	-2.7039801E+002
3	0	1.083387786485182E+003	5.0161386E-001	-2.7036972E+002
3	0	1.083887786472551E+003	5.0187653E-001	-2.7036972E+002
3	0	1.084387786459920E+003	5.0197828E-001	-2.7036972E+002
3	0	1.084887786447289E+003	5.0159669E-001	-2.7039801E+002
3	0	1.085387786434658E+003	5.0084227E-001	-2.7039447E+002
3	0	1.085887786422027E+003	5.0071502E-001	-2.7039093E+002
3	0	1.086387786409396E+003	5.0133002E-001	-2.7039447E+002
3	0	1.086887786396765E+003	5.0170553E-001	-2.7035913E+002
3	0	1.087387786384134E+003	5.0165099E-001	-2.7038385E+002
3	0	1.087887786371502E+003	5.0139695E-001	-2.7036972E+002
3	0	1.088387786358871E+003	5.0058353E-001	-2.7038385E+002
3	0	1.088887786346240E+003	4.9892947E-001	-2.7038742E+002
3	0	1.089387786333609E+003	4.9692693E-001	-2.7036618E+002
3	0	1.089887786320978E+003	4.9571544E-001	-2.7037326E+002
3	0	1.090387786308347E+003	4.9514484E-001	-2.7035559E+002
3	0	1.090412386307726E+003	4.9474671E-001	-2.7039801E+002