EC-Lab ASCII FILE
Nb header lines : 55                          

Open Circuit Voltage

Run on channel : 1 (SN 81504)
User : 
CE vs. WE compliance from -10 V to 10 V
Electrode connection : standard
Potential control : Ewe
Ewe ctrl range : min = -2.50 V, max = 2.50 V
Safety Limits :
	Do not start on E overload
Acquisition started on : 05/10/2026 05:01:31.658
Loaded Setting File :  C:\PEM-WE_measurements\2026\372_IV_IV IrOx, 5 min Pt, 30 min C, etched cathode\new station\Loopeis new\1,46 V different time gaps closed cell\Loopeis 1,46V_90s_5_PEIS from 65Hz to 10Hz.mps
Saved on :
	File : L_20_Loopeis 1,46V_90s_5_PEIS from 65Hz to 10Hz_06_OCV_C01.mpr
	Directory : C:\PEM-WE_measurements\2026\372_IV_IV IrOx, 5 min Pt, 30 min C, etched cathode\new station\Loopeis new\1,46 V different time gaps closed cell\
	Host : 192.168.0.2
Device : SP-150e (SN .005491)
Address : 192.168.0.91
EC-LAB for windows v11.71 (software)
Internet server v28.00 (firmware)
Command interpretor v14.01 (firmware)
Electrode material : 
Initial state : 
Electrolyte : 
Comments : 
Current amplifier : SP-150eB-20A
Electrode surface area : 0.001 cm²
Characteristic mass : 0.001 g
Equivalent Weight : 0.000 g/eq.
Density : 0.000 g/cm3
Volume (V) : 0.001 cm³
Record Analogic IN 1
Text export
   Mode : Standard
   Time format : Elapsed
Cycle Definition : Charge/Discharge alternance
External device configuration :
   device type : Temperature Probe
   device name : Other
   Analog IN 1 : 
      unit : T/Â°C
      max : 100.000 at 2.000 V
      min : 0.000 at 1.460 V
tR (h:m:s)          0:01:30.0000        
dER/dt (mV/h)       1.0                 
record              <Ewe>               
dER (mV)            10.00               
dtR (s)             0.5000              
E range min (V)     -2.500              
E range max (V)     2.500               

mode	error	time/s	<Ewe/V>	Analog IN 1/V	
3	0	3.192035954797757E+002	1.2874357E+000	-2.7037677E+002
3	0	3.197035954671446E+002	1.2942531E+000	-2.7040155E+002
3	0	3.202035954545136E+002	1.2948539E+000	-2.7036618E+002
3	0	3.207035954418825E+002	1.2939266E+000	-2.7038031E+002
3	0	3.212035954292514E+002	1.2918268E+000	-2.7036972E+002
3	0	3.217035954166204E+002	1.2882899E+000	-2.7034851E+002
3	0	3.222035954039893E+002	1.2826374E+000	-2.7039093E+002
3	0	3.227035953913582E+002	1.2736756E+000	-2.7037677E+002
3	0	3.232035953787272E+002	1.2594850E+000	-2.7038742E+002
3	0	3.237035953660961E+002	1.2374756E+000	-2.7034497E+002
3	0	3.242035953534651E+002	1.2028850E+000	-2.7038385E+002
3	0	3.247035953408340E+002	1.1434798E+000	-2.7039093E+002
3	0	3.252035953282029E+002	1.0191278E+000	-2.7039801E+002
3	0	3.257035953155719E+002	7.5722092E-001	-2.7038742E+002
3	0	3.262035953029408E+002	6.0022467E-001	-2.7039447E+002
3	0	3.267035952903098E+002	5.5771023E-001	-2.7035913E+002
3	0	3.272035952776787E+002	5.4241395E-001	-2.7038031E+002
3	0	3.277035952650476E+002	5.3703338E-001	-2.7035913E+002
3	0	3.282035952524166E+002	5.3532946E-001	-2.7036972E+002
3	0	3.287035952397855E+002	5.3545529E-001	-2.7034497E+002
3	0	3.292035952271544E+002	5.3590459E-001	-2.7039801E+002
3	0	3.297035952145234E+002	5.3642434E-001	-2.7038742E+002
3	0	3.302035952018923E+002	5.3755254E-001	-2.7038031E+002
3	0	3.307035951892613E+002	5.4005998E-001	-2.7036267E+002
3	0	3.312035951766302E+002	5.4267108E-001	-2.7036972E+002
3	0	3.317035951639991E+002	5.4521984E-001	-2.7038031E+002
3	0	3.322035951513681E+002	5.4749441E-001	-2.7038385E+002
3	0	3.327035951387370E+002	5.4950774E-001	-2.7038031E+002
3	0	3.332035951261059E+002	5.5070716E-001	-2.7036618E+002
3	0	3.337035951134749E+002	5.5238497E-001	-2.7037326E+002
3	0	3.342035951008438E+002	5.5436778E-001	-2.7036972E+002
3	0	3.347035950882128E+002	5.5722642E-001	-2.7037326E+002
3	0	3.352035950755817E+002	5.5984539E-001	-2.7037677E+002
3	0	3.357035950629506E+002	5.6232029E-001	-2.7038031E+002
3	0	3.362035950503196E+002	5.6492835E-001	-2.7035913E+002
3	0	3.367035950376885E+002	5.6766784E-001	-2.7039093E+002
3	0	3.372035950250574E+002	5.7037342E-001	-2.7038031E+002
3	0	3.377035950124264E+002	5.7287180E-001	-2.7037677E+002
3	0	3.382035949997953E+002	5.7567328E-001	-2.7039447E+002
3	0	3.387035949871643E+002	5.7996684E-001	-2.7039447E+002
3	0	3.392035949745332E+002	5.8411682E-001	-2.7038385E+002
3	0	3.397035949619021E+002	5.8814764E-001	-2.7040155E+002
3	0	3.402035949492711E+002	5.9189928E-001	-2.7039447E+002
3	0	3.407035949366400E+002	5.9521866E-001	-2.7038742E+002
3	0	3.412035949240089E+002	5.9796202E-001	-2.7036267E+002
3	0	3.417035949113779E+002	5.9983915E-001	-2.7036618E+002
3	0	3.422035948987468E+002	6.0169637E-001	-2.7036618E+002
3	0	3.427035948861158E+002	6.0467166E-001	-2.7037677E+002
3	0	3.432035948734847E+002	6.0723424E-001	-2.7037677E+002
3	0	3.437035948608536E+002	6.0951799E-001	-2.7036972E+002
3	0	3.442035948482226E+002	6.1136985E-001	-2.7035913E+002
3	0	3.447035948355915E+002	6.1288774E-001	-2.7039801E+002
3	0	3.452035948229604E+002	6.1364502E-001	-2.7034143E+002
3	0	3.457035948103294E+002	6.1359292E-001	-2.7038742E+002
3	0	3.462035947976983E+002	6.1353415E-001	-2.7038031E+002
3	0	3.467035947850673E+002	6.1477727E-001	-2.7038385E+002
3	0	3.472035947724362E+002	6.1562610E-001	-2.7037677E+002
3	0	3.477035947598051E+002	6.1621058E-001	-2.7036267E+002
3	0	3.482035947471741E+002	6.1643988E-001	-2.7037677E+002
3	0	3.487035947345430E+002	6.1637849E-001	-2.7038742E+002
3	0	3.492035947219119E+002	6.1563909E-001	-2.7038031E+002
3	0	3.497035947092809E+002	6.1428493E-001	-2.7037677E+002
3	0	3.502035946966498E+002	6.1307591E-001	-2.7036618E+002
3	0	3.507035946840188E+002	6.1330891E-001	-2.7037326E+002
3	0	3.512035946713877E+002	6.1324537E-001	-2.7035913E+002
3	0	3.517035946587566E+002	6.1291409E-001	-2.7039801E+002
3	0	3.522035946461256E+002	6.1237538E-001	-2.7037326E+002
3	0	3.527035946334945E+002	6.1138636E-001	-2.7039447E+002
3	0	3.532035946208634E+002	6.1005729E-001	-2.7037326E+002
3	0	3.537035946082324E+002	6.0798734E-001	-2.7038031E+002
3	0	3.542035945956013E+002	6.0607564E-001	-2.7035559E+002
3	0	3.547035945829703E+002	6.0562569E-001	-2.7038385E+002
3	0	3.552035945703392E+002	6.0522521E-001	-2.7037326E+002
3	0	3.557035945577081E+002	6.0488564E-001	-2.7036972E+002
3	0	3.562035945450771E+002	6.0469162E-001	-2.7036972E+002
3	0	3.567035945324460E+002	6.0467350E-001	-2.7037677E+002
3	0	3.572035945198149E+002	6.0454261E-001	-2.7036972E+002
3	0	3.577035945071839E+002	6.0431719E-001	-2.7035913E+002
3	0	3.582035944945528E+002	6.0464978E-001	-2.7036267E+002
3	0	3.587035944819218E+002	6.0685813E-001	-2.7038031E+002
3	0	3.592035944692907E+002	6.0925299E-001	-2.7039447E+002
3	0	3.597035944566596E+002	6.1170697E-001	-2.7038031E+002
3	0	3.602035944440286E+002	6.1396474E-001	-2.7038742E+002
3	0	3.607035944313975E+002	6.1587739E-001	-2.7039093E+002
3	0	3.612035944187664E+002	6.1718547E-001	-2.7039093E+002
3	0	3.617035944061354E+002	6.1771476E-001	-2.7039801E+002
3	0	3.622035943935043E+002	6.1813134E-001	-2.7038031E+002
3	0	3.627035943808733E+002	6.1970997E-001	-2.7036618E+002
3	0	3.632035943682422E+002	6.2094545E-001	-2.7037326E+002
3	0	3.637035943556111E+002	6.2190866E-001	-2.7037326E+002
3	0	3.642035943429801E+002	6.2242585E-001	-2.7036267E+002
3	0	3.647035943303490E+002	6.2253177E-001	-2.7036267E+002
3	0	3.652035943177179E+002	6.2186235E-001	-2.7039093E+002
3	0	3.657035943050869E+002	6.2043262E-001	-2.7037677E+002
3	0	3.662035942924558E+002	6.1897737E-001	-2.7040155E+002
3	0	3.667035942798248E+002	6.1878866E-001	-2.7039093E+002
3	0	3.672035942671937E+002	6.1843699E-001	-2.7035559E+002
3	0	3.677035942545626E+002	6.1783057E-001	-2.7038385E+002
3	0	3.682035942419316E+002	6.1682850E-001	-2.7039093E+002
3	0	3.687035942293005E+002	6.1549520E-001	-2.7035559E+002
3	0	3.692035942166694E+002	6.1351174E-001	-2.7038385E+002
3	0	3.697035942040384E+002	6.1067790E-001	-2.7037677E+002
3	0	3.702035941914073E+002	6.0784715E-001	-2.7037326E+002
3	0	3.707035941787763E+002	6.0640174E-001	-2.7036972E+002
3	0	3.712035941661452E+002	6.0481262E-001	-2.7036972E+002
3	0	3.717035941535141E+002	6.0307127E-001	-2.7039093E+002
3	0	3.722035941408831E+002	6.0103452E-001	-2.7035913E+002
3	0	3.727035941282520E+002	5.9858948E-001	-2.7037326E+002
3	0	3.732035941156209E+002	5.9566313E-001	-2.7036618E+002
3	0	3.737035941029899E+002	5.9223968E-001	-2.7037326E+002
3	0	3.742035940903588E+002	5.8881748E-001	-2.7037326E+002
3	0	3.747035940777278E+002	5.8686149E-001	-2.7039801E+002
3	0	3.752035940650967E+002	5.8482575E-001	-2.7038742E+002
3	0	3.757035940524656E+002	5.8289176E-001	-2.7036972E+002
3	0	3.762035940398346E+002	5.8110762E-001	-2.7038031E+002
3	0	3.767035940272035E+002	5.7948738E-001	-2.7038031E+002
3	0	3.772035940145724E+002	5.7805657E-001	-2.7037326E+002
3	0	3.777035940019414E+002	5.7651627E-001	-2.7039447E+002
3	0	3.782035939893103E+002	5.7581151E-001	-2.7036267E+002
3	0	3.787035939766793E+002	5.7712185E-001	-2.7036972E+002
3	0	3.792035939640482E+002	5.7889962E-001	-2.7037677E+002
3	0	3.797035939514171E+002	5.8090019E-001	-2.7037677E+002
3	0	3.802035939387861E+002	5.8299839E-001	-2.7038031E+002
3	0	3.807035939261550E+002	5.8465093E-001	-2.7039093E+002
3	0	3.812035939135239E+002	5.8525193E-001	-2.7038385E+002
3	0	3.817035939008929E+002	5.8640283E-001	-2.7038385E+002
3	0	3.822035938882618E+002	5.8766258E-001	-2.7038031E+002
3	0	3.827035938756308E+002	5.8978081E-001	-2.7038031E+002
3	0	3.832035938629997E+002	5.9165102E-001	-2.7035205E+002
3	0	3.837035938503686E+002	5.9265155E-001	-2.7039447E+002
3	0	3.842035938377376E+002	5.9303975E-001	-2.7037677E+002
3	0	3.847035938251065E+002	5.9288901E-001	-2.7036972E+002
3	0	3.852035938124754E+002	5.9186375E-001	-2.7038742E+002
3	0	3.857035937998444E+002	5.8990330E-001	-2.7037677E+002
3	0	3.862035937872133E+002	5.8761692E-001	-2.7036267E+002
3	0	3.867035937745823E+002	5.8671683E-001	-2.7038385E+002
3	0	3.872035937619512E+002	5.8587581E-001	-2.7038031E+002
3	0	3.877035937493201E+002	5.8427942E-001	-2.7038031E+002
3	0	3.882035937366891E+002	5.8199555E-001	-2.7036618E+002
3	0	3.887035937240580E+002	5.7930535E-001	-2.7036618E+002
3	0	3.892035937114269E+002	5.7609421E-001	-2.7038031E+002
3	0	3.897035936987959E+002	5.7198262E-001	-2.7035559E+002
3	0	3.902035936861648E+002	5.6792885E-001	-2.7039801E+002
3	0	3.907035936735338E+002	5.6533700E-001	-2.7035559E+002
3	0	3.912035936609027E+002	5.6299925E-001	-2.7040155E+002
3	0	3.917035936482716E+002	5.6008923E-001	-2.7038742E+002
3	0	3.922035936356406E+002	5.5668104E-001	-2.7036972E+002
3	0	3.927035936230095E+002	5.5303973E-001	-2.7038385E+002
3	0	3.932035936103784E+002	5.4886037E-001	-2.7038742E+002
3	0	3.937035935977474E+002	5.4393232E-001	-2.7036972E+002
3	0	3.942035935851163E+002	5.3917074E-001	-2.7037677E+002
3	0	3.947035935724853E+002	5.3589100E-001	-2.7038031E+002
3	0	3.952035935598542E+002	5.3287059E-001	-2.7036972E+002
3	0	3.957035935472231E+002	5.2955741E-001	-2.7037677E+002
3	0	3.962035935345921E+002	5.2627069E-001	-2.7039801E+002
3	0	3.967035935219610E+002	5.2321541E-001	-2.7036618E+002
3	0	3.972035935093299E+002	5.2028304E-001	-2.7038385E+002
3	0	3.977035934966989E+002	5.1734483E-001	-2.7036972E+002
3	0	3.982035934840678E+002	5.1503748E-001	-2.7035913E+002
3	0	3.987035934714368E+002	5.1470453E-001	-2.7038742E+002
3	0	3.992035934588057E+002	5.1508248E-001	-2.7037326E+002
3	0	3.997035934461746E+002	5.1534158E-001	-2.7037677E+002
3	0	4.002035934335436E+002	5.1556009E-001	-2.7038742E+002
3	0	4.007035934209125E+002	5.1570523E-001	-2.7038385E+002
3	0	4.012035934082814E+002	5.1544195E-001	-2.7036267E+002
3	0	4.017035933956504E+002	5.1469541E-001	-2.7040860E+002
3	0	4.022035933830193E+002	5.1392788E-001	-2.7035559E+002
3	0	4.027035933703883E+002	5.1448691E-001	-2.7039801E+002
3	0	4.032035933577572E+002	5.1515663E-001	-2.7038385E+002
3	0	4.037035933451261E+002	5.1526535E-001	-2.7038742E+002
3	0	4.042035933324951E+002	5.1492858E-001	-2.7037326E+002
3	0	4.047035933198640E+002	5.1429433E-001	-2.7038742E+002
3	0	4.052035933072330E+002	5.1301003E-001	-2.7035205E+002
3	0	4.057035932946019E+002	5.1093012E-001	-2.7038385E+002
3	0	4.062035932819708E+002	5.0902712E-001	-2.7038031E+002
3	0	4.067035932693398E+002	5.0835299E-001	-2.7037677E+002
3	0	4.072035932567087E+002	5.0754946E-001	-2.7040155E+002
3	0	4.077035932440776E+002	5.0615007E-001	-2.7038385E+002
3	0	4.082035932314466E+002	5.0434303E-001	-2.7039093E+002
3	0	4.087035932188155E+002	5.0216383E-001	-2.7038385E+002
3	0	4.087039932188054E+002	5.0099379E-001	-2.7037677E+002