EC-Lab ASCII FILE
Nb header lines : 55                          

Open Circuit Voltage

Run on channel : 1 (SN 81504)
User : 
CE vs. WE compliance from -10 V to 10 V
Electrode connection : standard
Potential control : Ewe
Ewe ctrl range : min = -2.50 V, max = 2.50 V
Safety Limits :
	Do not start on E overload
Acquisition started on : 05/10/2026 05:01:31.658
Loaded Setting File :  C:\PEM-WE_measurements\2026\372_IV_IV IrOx, 5 min Pt, 30 min C, etched cathode\new station\Loopeis new\1,46 V different time gaps closed cell\Loopeis 1,46V_90s_5_PEIS from 65Hz to 10Hz.mps
Saved on :
	File : L_20_Loopeis 1,46V_90s_5_PEIS from 65Hz to 10Hz_14_OCV_C01.mpr
	Directory : C:\PEM-WE_measurements\2026\372_IV_IV IrOx, 5 min Pt, 30 min C, etched cathode\new station\Loopeis new\1,46 V different time gaps closed cell\
	Host : 192.168.0.2
Device : SP-150e (SN .005491)
Address : 192.168.0.91
EC-LAB for windows v11.71 (software)
Internet server v28.00 (firmware)
Command interpretor v14.01 (firmware)
Electrode material : 
Initial state : 
Electrolyte : 
Comments : 
Current amplifier : SP-150eB-20A
Electrode surface area : 0.001 cm²
Characteristic mass : 0.001 g
Equivalent Weight : 0.000 g/eq.
Density : 0.000 g/cm3
Volume (V) : 0.001 cm³
Record Analogic IN 1
Text export
   Mode : Standard
   Time format : Elapsed
Cycle Definition : Charge/Discharge alternance
External device configuration :
   device type : Temperature Probe
   device name : Other
   Analog IN 1 : 
      unit : T/Â°C
      max : 100.000 at 2.000 V
      min : 0.000 at 1.460 V
tR (h:m:s)          0:01:30.0000        
dER/dt (mV/h)       1.0                 
record              <Ewe>               
dER (mV)            10.00               
dtR (s)             0.5000              
E range min (V)     -2.500              
E range max (V)     2.500               

mode	error	time/s	<Ewe/V>	Analog IN 1/V	
3	0	8.642691886269313E+002	1.2885902E+000	-2.7038385E+002
3	0	8.647691886143002E+002	1.2954164E+000	-2.7038742E+002
3	0	8.652691886016692E+002	1.2958322E+000	-2.7039093E+002
3	0	8.657691885890381E+002	1.2947500E+000	-2.7037677E+002
3	0	8.662691885764070E+002	1.2925588E+000	-2.7036267E+002
3	0	8.667691885637760E+002	1.2888008E+000	-2.7038385E+002
3	0	8.672691885511449E+002	1.2824368E+000	-2.7038385E+002
3	0	8.677691885385138E+002	1.2718104E+000	-2.7034497E+002
3	0	8.682691885258828E+002	1.2547767E+000	-2.7038742E+002
3	0	8.687691885132517E+002	1.2280687E+000	-2.7037677E+002
3	0	8.692691885006207E+002	1.1852129E+000	-2.7039093E+002
3	0	8.697691884879896E+002	1.1071230E+000	-2.7037677E+002
3	0	8.702691884753585E+002	9.2325181E-001	-2.7036618E+002
3	0	8.707691884627275E+002	6.5370899E-001	-2.7040860E+002
3	0	8.712691884500964E+002	5.6412476E-001	-2.7038742E+002
3	0	8.717691884374653E+002	5.3217041E-001	-2.7038385E+002
3	0	8.722691884248343E+002	5.1934189E-001	-2.7038385E+002
3	0	8.727691884122032E+002	5.1323080E-001	-2.7035559E+002
3	0	8.732691883995722E+002	5.0953841E-001	-2.7036618E+002
3	0	8.737691883869411E+002	5.0759578E-001	-2.7035559E+002
3	0	8.742691883743100E+002	5.0756449E-001	-2.7039801E+002
3	0	8.747691883616790E+002	5.0790399E-001	-2.7036267E+002
3	0	8.752691883490479E+002	5.0837600E-001	-2.7037677E+002
3	0	8.757691883364168E+002	5.0890744E-001	-2.7036618E+002
3	0	8.762691883237858E+002	5.0960648E-001	-2.7039801E+002
3	0	8.767691883111547E+002	5.1019293E-001	-2.7037677E+002
3	0	8.772691882985237E+002	5.1026922E-001	-2.7038742E+002
3	0	8.777691882858926E+002	5.1072985E-001	-2.7039801E+002
3	0	8.782691882732615E+002	5.1253664E-001	-2.7037677E+002
3	0	8.787691882606305E+002	5.1456946E-001	-2.7036267E+002
3	0	8.792691882479994E+002	5.1671922E-001	-2.7036618E+002
3	0	8.797691882353683E+002	5.1906466E-001	-2.7039447E+002
3	0	8.802691882227373E+002	5.2179140E-001	-2.7038031E+002
3	0	8.807691882101062E+002	5.2465194E-001	-2.7038385E+002
3	0	8.812691881974752E+002	5.2752942E-001	-2.7037326E+002
3	0	8.817691881848441E+002	5.3092909E-001	-2.7038742E+002
3	0	8.822691881722130E+002	5.3566200E-001	-2.7036972E+002
3	0	8.827691881595820E+002	5.4043829E-001	-2.7038031E+002
3	0	8.832691881469509E+002	5.4515696E-001	-2.7036972E+002
3	0	8.837691881343198E+002	5.4959190E-001	-2.7037326E+002
3	0	8.842691881216888E+002	5.5393392E-001	-2.7038742E+002
3	0	8.847691881090577E+002	5.5791873E-001	-2.7036267E+002
3	0	8.852691880964267E+002	5.6126517E-001	-2.7035559E+002
3	0	8.857691880837956E+002	5.6467205E-001	-2.7038742E+002
3	0	8.862691880711645E+002	5.6920701E-001	-2.7036267E+002
3	0	8.867691880585335E+002	5.7352442E-001	-2.7036972E+002
3	0	8.872691880459024E+002	5.7751572E-001	-2.7037326E+002
3	0	8.877691880332713E+002	5.8096319E-001	-2.7037326E+002
3	0	8.882691880206403E+002	5.8411628E-001	-2.7040155E+002
3	0	8.887691880080092E+002	5.8642268E-001	-2.7034851E+002
3	0	8.892691879953782E+002	5.8787823E-001	-2.7038385E+002
3	0	8.897691879827471E+002	5.8919412E-001	-2.7036972E+002
3	0	8.902691879701160E+002	5.9153163E-001	-2.7036972E+002
3	0	8.907691879574850E+002	5.9357911E-001	-2.7039447E+002
3	0	8.912691879448539E+002	5.9531111E-001	-2.7039093E+002
3	0	8.917691879322228E+002	5.9644300E-001	-2.7037326E+002
3	0	8.922691879195918E+002	5.9719765E-001	-2.7038031E+002
3	0	8.927691879069607E+002	5.9741616E-001	-2.7039093E+002
3	0	8.932691878943297E+002	5.9683365E-001	-2.7037326E+002
3	0	8.937691878816986E+002	5.9630311E-001	-2.7039093E+002
3	0	8.942691878690675E+002	5.9688610E-001	-2.7037677E+002
3	0	8.947691878564365E+002	5.9747249E-001	-2.7038031E+002
3	0	8.952691878438054E+002	5.9779787E-001	-2.7038742E+002
3	0	8.957691878311743E+002	5.9769005E-001	-2.7035205E+002
3	0	8.962691878185433E+002	5.9725815E-001	-2.7037326E+002
3	0	8.967691878059122E+002	5.9621173E-001	-2.7037326E+002
3	0	8.972691877932812E+002	5.9459716E-001	-2.7038385E+002
3	0	8.977691877806501E+002	5.9315252E-001	-2.7041919E+002
3	0	8.982691877680190E+002	5.9308577E-001	-2.7036267E+002
3	0	8.987691877553880E+002	5.9325784E-001	-2.7038385E+002
3	0	8.992691877427569E+002	5.9359789E-001	-2.7037326E+002
3	0	8.997691877301259E+002	5.9403384E-001	-2.7037326E+002
3	0	9.002691877174948E+002	5.9476346E-001	-2.7036972E+002
3	0	9.007691877048637E+002	5.9561390E-001	-2.7037326E+002
3	0	9.012691876922327E+002	5.9621102E-001	-2.7036972E+002
3	0	9.017691876796016E+002	5.9747595E-001	-2.7036618E+002
3	0	9.022691876669705E+002	6.0042030E-001	-2.7036972E+002
3	0	9.027691876543395E+002	6.0355538E-001	-2.7038031E+002
3	0	9.032691876417084E+002	6.0654962E-001	-2.7037326E+002
3	0	9.037691876290774E+002	6.0910571E-001	-2.7037677E+002
3	0	9.042691876164463E+002	6.1129379E-001	-2.7038031E+002
3	0	9.047691876038152E+002	6.1284781E-001	-2.7038031E+002
3	0	9.052691875911842E+002	6.1348182E-001	-2.7038385E+002
3	0	9.057691875785531E+002	6.1392897E-001	-2.7039801E+002
3	0	9.062691875659220E+002	6.1561900E-001	-2.7038385E+002
3	0	9.067691875532910E+002	6.1715549E-001	-2.7037326E+002
3	0	9.072691875406599E+002	6.1825991E-001	-2.7039093E+002
3	0	9.077691875280289E+002	6.1883003E-001	-2.7038385E+002
3	0	9.082691875153978E+002	6.1888951E-001	-2.7036618E+002
3	0	9.087691875027667E+002	6.1818570E-001	-2.7039093E+002
3	0	9.092691874901357E+002	6.1661983E-001	-2.7038031E+002
3	0	9.097691874775046E+002	6.1514449E-001	-2.7038031E+002
3	0	9.102691874648735E+002	6.1494470E-001	-2.7036618E+002
3	0	9.107691874522425E+002	6.1474973E-001	-2.7037677E+002
3	0	9.112691874396114E+002	6.1421514E-001	-2.7038385E+002
3	0	9.117691874269804E+002	6.1320257E-001	-2.7036618E+002
3	0	9.122691874143493E+002	6.1178201E-001	-2.7036618E+002
3	0	9.127691874017182E+002	6.0964280E-001	-2.7040155E+002
3	0	9.132691873890872E+002	6.0661036E-001	-2.7040860E+002
3	0	9.137691873764561E+002	6.0347646E-001	-2.7038385E+002
3	0	9.142691873638250E+002	6.0174078E-001	-2.7039093E+002
3	0	9.147691873511940E+002	6.0009074E-001	-2.7038742E+002
3	0	9.152691873385629E+002	5.9815645E-001	-2.7037677E+002
3	0	9.157691873259319E+002	5.9590495E-001	-2.7037326E+002
3	0	9.162691873133008E+002	5.9326476E-001	-2.7036618E+002
3	0	9.167691873006697E+002	5.9001964E-001	-2.7036618E+002
3	0	9.172691872880387E+002	5.8616185E-001	-2.7037677E+002
3	0	9.177691872754076E+002	5.8239138E-001	-2.7035913E+002
3	0	9.182691872627765E+002	5.8000559E-001	-2.7038031E+002
3	0	9.187691872501455E+002	5.7807195E-001	-2.7034143E+002
3	0	9.192691872375144E+002	5.7633138E-001	-2.7039093E+002
3	0	9.197691872248834E+002	5.7476628E-001	-2.7038385E+002
3	0	9.202691872122523E+002	5.7344043E-001	-2.7039093E+002
3	0	9.207691871996212E+002	5.7177705E-001	-2.7036972E+002
3	0	9.212691871869902E+002	5.6951970E-001	-2.7038031E+002
3	0	9.217691871743591E+002	5.6757176E-001	-2.7038385E+002
3	0	9.222691871617280E+002	5.6699163E-001	-2.7037677E+002
3	0	9.227691871490970E+002	5.6648755E-001	-2.7039447E+002
3	0	9.232691871364659E+002	5.6579512E-001	-2.7036618E+002
3	0	9.237691871238349E+002	5.6476659E-001	-2.7038031E+002
3	0	9.242691871112038E+002	5.6345963E-001	-2.7037326E+002
3	0	9.247691870985727E+002	5.6165469E-001	-2.7040506E+002
3	0	9.252691870859417E+002	5.5920637E-001	-2.7037677E+002
3	0	9.257691870733106E+002	5.5684066E-001	-2.7036618E+002
3	0	9.262691870606795E+002	5.5565596E-001	-2.7037677E+002
3	0	9.267691870480485E+002	5.5446702E-001	-2.7039447E+002
3	0	9.272691870354174E+002	5.5319846E-001	-2.7035913E+002
3	0	9.277691870227864E+002	5.5147183E-001	-2.7038031E+002
3	0	9.282691870101553E+002	5.4949534E-001	-2.7034497E+002
3	0	9.287691869975242E+002	5.4700100E-001	-2.7037326E+002
3	0	9.292691869848932E+002	5.4382086E-001	-2.7037326E+002
3	0	9.297691869722621E+002	5.4075158E-001	-2.7037326E+002
3	0	9.302691869596310E+002	5.3885204E-001	-2.7038385E+002
3	0	9.307691869470000E+002	5.3695750E-001	-2.7038385E+002
3	0	9.312691869343689E+002	5.3489625E-001	-2.7038742E+002
3	0	9.317691869217379E+002	5.3262401E-001	-2.7036618E+002
3	0	9.322691869091068E+002	5.2982479E-001	-2.7037326E+002
3	0	9.327691868964757E+002	5.2619338E-001	-2.7036267E+002
3	0	9.332691868838447E+002	5.2322108E-001	-2.7036972E+002
3	0	9.337691868712136E+002	5.2045798E-001	-2.7036972E+002
3	0	9.342691868585825E+002	5.1861733E-001	-2.7038031E+002
3	0	9.347691868459515E+002	5.1633805E-001	-2.7037326E+002
3	0	9.352691868333204E+002	5.1382142E-001	-2.7038031E+002
3	0	9.357691868206894E+002	5.1114565E-001	-2.7038742E+002
3	0	9.362691868080583E+002	5.0841647E-001	-2.7039447E+002
3	0	9.367691867954272E+002	5.0536537E-001	-2.7039093E+002
3	0	9.372691867827962E+002	5.0188720E-001	-2.7038742E+002
3	0	9.377691867701651E+002	4.9861068E-001	-2.7037677E+002
3	0	9.382691867575340E+002	4.9654001E-001	-2.7035913E+002
3	0	9.387691867449030E+002	4.9438909E-001	-2.7039093E+002
3	0	9.392691867322719E+002	4.9241033E-001	-2.7038031E+002
3	0	9.397691867196409E+002	4.9073797E-001	-2.7039093E+002
3	0	9.402691867070098E+002	4.8942092E-001	-2.7039093E+002
3	0	9.407691866943787E+002	4.8815098E-001	-2.7036267E+002
3	0	9.412691866817477E+002	4.8695961E-001	-2.7038742E+002
3	0	9.417691866691166E+002	4.8632351E-001	-2.7036618E+002
3	0	9.422691866564855E+002	4.8722157E-001	-2.7040155E+002
3	0	9.427691866438545E+002	4.8830500E-001	-2.7036618E+002
3	0	9.432691866312234E+002	4.8948509E-001	-2.7039447E+002
3	0	9.437691866185924E+002	4.9071771E-001	-2.7039801E+002
3	0	9.442691866059613E+002	4.9189499E-001	-2.7039093E+002
3	0	9.447691865933302E+002	4.9272862E-001	-2.7035205E+002
3	0	9.452691865806992E+002	4.9299628E-001	-2.7037326E+002
3	0	9.457691865680681E+002	4.9333328E-001	-2.7036972E+002
3	0	9.462691865554370E+002	4.9454734E-001	-2.7038385E+002
3	0	9.467691865428060E+002	4.9538943E-001	-2.7038385E+002
3	0	9.472691865301749E+002	4.9591228E-001	-2.7037326E+002
3	0	9.477691865175439E+002	4.9623102E-001	-2.7036267E+002
3	0	9.482691865049128E+002	4.9622917E-001	-2.7038031E+002
3	0	9.487691864922817E+002	4.9569124E-001	-2.7038031E+002
3	0	9.492691864796507E+002	4.9461150E-001	-2.7037326E+002
3	0	9.497691864670196E+002	4.9348742E-001	-2.7038385E+002
3	0	9.502691864543885E+002	4.9327409E-001	-2.7038385E+002
3	0	9.507691864417575E+002	4.9270716E-001	-2.7038742E+002
3	0	9.512691864291264E+002	4.9183089E-001	-2.7036267E+002
3	0	9.517691864164954E+002	4.9080735E-001	-2.7035913E+002
3	0	9.522691864038643E+002	4.8959208E-001	-2.7036267E+002
3	0	9.527691863912332E+002	4.8776668E-001	-2.7038031E+002
3	0	9.532691863786022E+002	4.8546532E-001	-2.7038385E+002
3	0	9.537691863659711E+002	4.8316291E-001	-2.7037677E+002
3	0	9.537695863659610E+002	4.8238704E-001	-2.7038031E+002