EC-Lab ASCII FILE
Nb header lines : 55                          

Open Circuit Voltage

Run on channel : 1 (SN 81504)
User : 
CE vs. WE compliance from -10 V to 10 V
Electrode connection : standard
Potential control : Ewe
Ewe ctrl range : min = -2.50 V, max = 2.50 V
Safety Limits :
	Do not start on E overload
Acquisition started on : 05/10/2026 05:01:31.658
Loaded Setting File :  C:\PEM-WE_measurements\2026\372_IV_IV IrOx, 5 min Pt, 30 min C, etched cathode\new station\Loopeis new\1,46 V different time gaps closed cell\Loopeis 1,46V_90s_5_PEIS from 65Hz to 10Hz.mps
Saved on :
	File : L_20_Loopeis 1,46V_90s_5_PEIS from 65Hz to 10Hz_02_OCV_C01.mpr
	Directory : C:\PEM-WE_measurements\2026\372_IV_IV IrOx, 5 min Pt, 30 min C, etched cathode\new station\Loopeis new\1,46 V different time gaps closed cell\
	Host : 192.168.0.2
Device : SP-150e (SN .005491)
Address : 192.168.0.91
EC-LAB for windows v11.71 (software)
Internet server v28.00 (firmware)
Command interpretor v14.01 (firmware)
Electrode material : 
Initial state : 
Electrolyte : 
Comments : 
Current amplifier : SP-150eB-20A
Electrode surface area : 0.001 cm²
Characteristic mass : 0.001 g
Equivalent Weight : 0.000 g/eq.
Density : 0.000 g/cm3
Volume (V) : 0.001 cm³
Record Analogic IN 1
Text export
   Mode : Standard
   Time format : Elapsed
Cycle Definition : Charge/Discharge alternance
External device configuration :
   device type : Temperature Probe
   device name : Other
   Analog IN 1 : 
      unit : T/Â°C
      max : 100.000 at 2.000 V
      min : 0.000 at 1.460 V
tR (h:m:s)          0:01:30.0000        
dER/dt (mV/h)       1.0                 
record              <Ewe>               
dER (mV)            10.00               
dtR (s)             0.5000              
E range min (V)     -2.500              
E range max (V)     2.500               

mode	error	time/s	<Ewe/V>	Analog IN 1/V	
3	0	4.549979885057837E+001	1.2870567E+000	-2.7036972E+002
3	0	4.599979883794731E+001	1.2937599E+000	-2.7038031E+002
3	0	4.649979882531625E+001	1.2942393E+000	-2.7039801E+002
3	0	4.699979881268519E+001	1.2932154E+000	-2.7038031E+002
3	0	4.749979880005412E+001	1.2908829E+000	-2.7036618E+002
3	0	4.799979878742306E+001	1.2867231E+000	-2.7038031E+002
3	0	4.849979877479200E+001	1.2794970E+000	-2.7036972E+002
3	0	4.899979876216094E+001	1.2672600E+000	-2.7039093E+002
3	0	4.949979874952987E+001	1.2474124E+000	-2.7038742E+002
3	0	4.999979873689881E+001	1.2158486E+000	-2.7036267E+002
3	0	5.049979872426775E+001	1.1634949E+000	-2.7038031E+002
3	0	5.099979871163669E+001	1.0609924E+000	-2.7036618E+002
3	0	5.149979869900562E+001	8.1730080E-001	-2.7038031E+002
3	0	5.199979868637456E+001	6.0705692E-001	-2.7038031E+002
3	0	5.249979867374350E+001	5.4717296E-001	-2.7037326E+002
3	0	5.299979866111244E+001	5.2399182E-001	-2.7039093E+002
3	0	5.349979864848137E+001	5.1481742E-001	-2.7037677E+002
3	0	5.399979863585031E+001	5.1071745E-001	-2.7038742E+002
3	0	5.449979862321925E+001	5.0928152E-001	-2.7038031E+002
3	0	5.499979861058819E+001	5.1052856E-001	-2.7035205E+002
3	0	5.549979859795712E+001	5.1284391E-001	-2.7037677E+002
3	0	5.599979858532606E+001	5.1552898E-001	-2.7036618E+002
3	0	5.649979857269500E+001	5.1856184E-001	-2.7038742E+002
3	0	5.699979856006394E+001	5.2220285E-001	-2.7037677E+002
3	0	5.749979854743287E+001	5.2590883E-001	-2.7038385E+002
3	0	5.799979853480181E+001	5.2922523E-001	-2.7039801E+002
3	0	5.849979852217075E+001	5.3288913E-001	-2.7037326E+002
3	0	5.899979850953969E+001	5.3789747E-001	-2.7037677E+002
3	0	5.949979849690862E+001	5.4300159E-001	-2.7037326E+002
3	0	5.999979848427756E+001	5.4781032E-001	-2.7039093E+002
3	0	6.049979847164650E+001	5.5246031E-001	-2.7039801E+002
3	0	6.099979845901544E+001	5.5706573E-001	-2.7039447E+002
3	0	6.149979844638438E+001	5.6133342E-001	-2.7037677E+002
3	0	6.199979843375331E+001	5.6465244E-001	-2.7038031E+002
3	0	6.249979842112225E+001	5.6789654E-001	-2.7039093E+002
3	0	6.299979840849119E+001	5.7234842E-001	-2.7035205E+002
3	0	6.349979839586013E+001	5.7671946E-001	-2.7037677E+002
3	0	6.399979838322906E+001	5.8046687E-001	-2.7036972E+002
3	0	6.449979837059800E+001	5.8377576E-001	-2.7038742E+002
3	0	6.499979835796694E+001	5.8683300E-001	-2.7038031E+002
3	0	6.549979834533588E+001	5.8912957E-001	-2.7040506E+002
3	0	6.599979833270481E+001	5.9069979E-001	-2.7037677E+002
3	0	6.649979832007375E+001	5.9196913E-001	-2.7039093E+002
3	0	6.699979830744269E+001	5.9429729E-001	-2.7035913E+002
3	0	6.749979829481163E+001	5.9660870E-001	-2.7036618E+002
3	0	6.799979828218056E+001	5.9828132E-001	-2.7038031E+002
3	0	6.849979826954950E+001	5.9948313E-001	-2.7037677E+002
3	0	6.899979825691844E+001	6.0052395E-001	-2.7035559E+002
3	0	6.949979824428738E+001	6.0088241E-001	-2.7039801E+002
3	0	6.999979823165631E+001	6.0047698E-001	-2.7037326E+002
3	0	7.049979821902525E+001	6.0004050E-001	-2.7039447E+002
3	0	7.099979820639419E+001	6.0090393E-001	-2.7036972E+002
3	0	7.149979819376313E+001	6.0187078E-001	-2.7037677E+002
3	0	7.199979818113206E+001	6.0245383E-001	-2.7036972E+002
3	0	7.249979816850100E+001	6.0257047E-001	-2.7037677E+002
3	0	7.299979815586994E+001	6.0265398E-001	-2.7039801E+002
3	0	7.349979814323888E+001	6.0235733E-001	-2.7036972E+002
3	0	7.399979813060781E+001	6.0136443E-001	-2.7040506E+002
3	0	7.449979811797675E+001	6.0036665E-001	-2.7036972E+002
3	0	7.499979810534569E+001	6.0110599E-001	-2.7037677E+002
3	0	7.549979809271463E+001	6.0256344E-001	-2.7038742E+002
3	0	7.599979808008356E+001	6.0399652E-001	-2.7037326E+002
3	0	7.649979806745250E+001	6.0557204E-001	-2.7038385E+002
3	0	7.699979805482144E+001	6.0740882E-001	-2.7038385E+002
3	0	7.749979804219038E+001	6.0924488E-001	-2.7038385E+002
3	0	7.799979802955932E+001	6.1055636E-001	-2.7038742E+002
3	0	7.849979801692825E+001	6.1183298E-001	-2.7038742E+002
3	0	7.899979800429719E+001	6.1433893E-001	-2.7039447E+002
3	0	7.949979799166613E+001	6.1709142E-001	-2.7039801E+002
3	0	7.999979797903507E+001	6.1936826E-001	-2.7037677E+002
3	0	8.049979796640400E+001	6.2123567E-001	-2.7037326E+002
3	0	8.099979795377294E+001	6.2283003E-001	-2.7035559E+002
3	0	8.149979794114188E+001	6.2377137E-001	-2.7039093E+002
3	0	8.199979792851082E+001	6.2398022E-001	-2.7038031E+002
3	0	8.249979791587975E+001	6.2401921E-001	-2.7036618E+002
3	0	8.299979790324869E+001	6.2522644E-001	-2.7039093E+002
3	0	8.349979789061763E+001	6.2647456E-001	-2.7038385E+002
3	0	8.399979787798657E+001	6.2711924E-001	-2.7037326E+002
3	0	8.449979786535550E+001	6.2714815E-001	-2.7039093E+002
3	0	8.499979785272444E+001	6.2682903E-001	-2.7036972E+002
3	0	8.549979784009338E+001	6.2595111E-001	-2.7037677E+002
3	0	8.599979782746232E+001	6.2421525E-001	-2.7039447E+002
3	0	8.649979781483125E+001	6.2228614E-001	-2.7036618E+002
3	0	8.699979780220019E+001	6.2164670E-001	-2.7038742E+002
3	0	8.749979778956913E+001	6.2121284E-001	-2.7038742E+002
3	0	8.799979777693807E+001	6.2028551E-001	-2.7038031E+002
3	0	8.849979776430700E+001	6.1882335E-001	-2.7037677E+002
3	0	8.899979775167594E+001	6.1716372E-001	-2.7035205E+002
3	0	8.949979773904488E+001	6.1507827E-001	-2.7036972E+002
3	0	8.999979772641382E+001	6.1222655E-001	-2.7039801E+002
3	0	9.049979771378275E+001	6.0917765E-001	-2.7039447E+002
3	0	9.099979770115169E+001	6.0761237E-001	-2.7037677E+002
3	0	9.149979768852063E+001	6.0650891E-001	-2.7036618E+002
3	0	9.199979767588957E+001	6.0506082E-001	-2.7039093E+002
3	0	9.249979766325851E+001	6.0329360E-001	-2.7039093E+002
3	0	9.299979765062744E+001	6.0132909E-001	-2.7036972E+002
3	0	9.349979763799638E+001	5.9896922E-001	-2.7038031E+002
3	0	9.399979762536532E+001	5.9608543E-001	-2.7035913E+002
3	0	9.449979761273426E+001	5.9337711E-001	-2.7038031E+002
3	0	9.499979760010319E+001	5.9246951E-001	-2.7039093E+002
3	0	9.549979758747213E+001	5.9231848E-001	-2.7037677E+002
3	0	9.599979757484107E+001	5.9240204E-001	-2.7038385E+002
3	0	9.649979756221001E+001	5.9285545E-001	-2.7037326E+002
3	0	9.699979754957894E+001	5.9366810E-001	-2.7036972E+002
3	0	9.749979753694788E+001	5.9481722E-001	-2.7038742E+002
3	0	9.799979752431682E+001	5.9560388E-001	-2.7037326E+002
3	0	9.849979751168576E+001	5.9650046E-001	-2.7037326E+002
3	0	9.899979749905469E+001	5.9890682E-001	-2.7037677E+002
3	0	9.949979748642363E+001	6.0166669E-001	-2.7036618E+002
3	0	9.999979747379257E+001	6.0402346E-001	-2.7035913E+002
3	0	1.004997974611615E+002	6.0589045E-001	-2.7039801E+002
3	0	1.009997974485304E+002	6.0740060E-001	-2.7036618E+002
3	0	1.014997974358994E+002	6.0823798E-001	-2.7038031E+002
3	0	1.019997974232683E+002	6.0807586E-001	-2.7034497E+002
3	0	1.024997974106373E+002	6.0758621E-001	-2.7037326E+002
3	0	1.029997973980062E+002	6.0819727E-001	-2.7038385E+002
3	0	1.034997973853751E+002	6.0897458E-001	-2.7039447E+002
3	0	1.039997973727441E+002	6.0922366E-001	-2.7036972E+002
3	0	1.044997973601130E+002	6.0891229E-001	-2.7038385E+002
3	0	1.049997973474819E+002	6.0806698E-001	-2.7040506E+002
3	0	1.054997973348509E+002	6.0654092E-001	-2.7038385E+002
3	0	1.059997973222198E+002	6.0398597E-001	-2.7037326E+002
3	0	1.064997973095888E+002	6.0112280E-001	-2.7038031E+002
3	0	1.069997972969577E+002	5.9943932E-001	-2.7038742E+002
3	0	1.074997972843266E+002	5.9798145E-001	-2.7038031E+002
3	0	1.079997972716956E+002	5.9610242E-001	-2.7038385E+002
3	0	1.084997972590645E+002	5.9376723E-001	-2.7036972E+002
3	0	1.089997972464334E+002	5.9120500E-001	-2.7038031E+002
3	0	1.094997972338024E+002	5.8816922E-001	-2.7039093E+002
3	0	1.099997972211713E+002	5.8416283E-001	-2.7038031E+002
3	0	1.104997972085403E+002	5.7995921E-001	-2.7040506E+002
3	0	1.109997971959092E+002	5.7720983E-001	-2.7038742E+002
3	0	1.114997971832781E+002	5.7475471E-001	-2.7040506E+002
3	0	1.119997971706471E+002	5.7202744E-001	-2.7038385E+002
3	0	1.124997971580160E+002	5.6891030E-001	-2.7037677E+002
3	0	1.129997971453849E+002	5.6558120E-001	-2.7036618E+002
3	0	1.134997971327539E+002	5.6186467E-001	-2.7038031E+002
3	0	1.139997971201228E+002	5.5756766E-001	-2.7037326E+002
3	0	1.144997971074918E+002	5.5345911E-001	-2.7038385E+002
3	0	1.149997970948607E+002	5.5092323E-001	-2.7035913E+002
3	0	1.154997970822296E+002	5.4923636E-001	-2.7035559E+002
3	0	1.159997970695986E+002	5.4777467E-001	-2.7039093E+002
3	0	1.164997970569675E+002	5.4663843E-001	-2.7038385E+002
3	0	1.169997970443364E+002	5.4609042E-001	-2.7039447E+002
3	0	1.174997970317054E+002	5.4573786E-001	-2.7036618E+002
3	0	1.179997970190743E+002	5.4517037E-001	-2.7038742E+002
3	0	1.184997970064433E+002	5.4484046E-001	-2.7036972E+002
3	0	1.189997969938122E+002	5.4600525E-001	-2.7037677E+002
3	0	1.194997969811811E+002	5.4749036E-001	-2.7038742E+002
3	0	1.199997969685501E+002	5.4867810E-001	-2.7036618E+002
3	0	1.204997969559190E+002	5.4953611E-001	-2.7038031E+002
3	0	1.209997969432879E+002	5.5021155E-001	-2.7039447E+002
3	0	1.214997969306569E+002	5.5030829E-001	-2.7037326E+002
3	0	1.219997969180258E+002	5.4957581E-001	-2.7038031E+002
3	0	1.224997969053948E+002	5.4851472E-001	-2.7038742E+002
3	0	1.229997968927637E+002	5.4857624E-001	-2.7038031E+002
3	0	1.234997968801326E+002	5.4875642E-001	-2.7038031E+002
3	0	1.239997968675016E+002	5.4845560E-001	-2.7037677E+002
3	0	1.244997968548705E+002	5.4769361E-001	-2.7036972E+002
3	0	1.249997968422394E+002	5.4657781E-001	-2.7035205E+002
3	0	1.254997968296084E+002	5.4476893E-001	-2.7036267E+002
3	0	1.259997968169773E+002	5.4219031E-001	-2.7037326E+002
3	0	1.264997968043463E+002	5.3936881E-001	-2.7039093E+002
3	0	1.269997967917152E+002	5.3758591E-001	-2.7038742E+002
3	0	1.274997967790841E+002	5.3590542E-001	-2.7037677E+002
3	0	1.279997967664531E+002	5.3376794E-001	-2.7036618E+002
3	0	1.284997967538220E+002	5.3130865E-001	-2.7038031E+002
3	0	1.289997967411909E+002	5.2850419E-001	-2.7040860E+002
3	0	1.294997967285599E+002	5.2510828E-001	-2.7036267E+002
3	0	1.299997967159288E+002	5.2108651E-001	-2.7036972E+002
3	0	1.304997967032978E+002	5.1707613E-001	-2.7037677E+002
3	0	1.309997966906667E+002	5.1417220E-001	-2.7039447E+002
3	0	1.314997966780356E+002	5.1145375E-001	-2.7036972E+002
3	0	1.319997966654046E+002	5.0845760E-001	-2.7035913E+002
3	0	1.324997966527735E+002	5.0524861E-001	-2.7038385E+002
3	0	1.329997966401424E+002	5.0201166E-001	-2.7039801E+002
3	0	1.334997966275114E+002	4.9848971E-001	-2.7038031E+002
3	0	1.339997966148803E+002	4.9434978E-001	-2.7036972E+002
3	0	1.344997966022493E+002	4.9039641E-001	-2.7036267E+002
3	0	1.349997965896182E+002	4.8792669E-001	-2.7038031E+002
3	0	1.350001965896081E+002	4.8689082E-001	-2.7038385E+002