EC-Lab ASCII FILE
Nb header lines : 55                          

Open Circuit Voltage

Run on channel : 1 (SN 81504)
User : 
CE vs. WE compliance from -10 V to 10 V
Electrode connection : standard
Potential control : Ewe
Ewe ctrl range : min = -2.50 V, max = 2.50 V
Safety Limits :
	Do not start on E overload
Acquisition started on : 05/10/2026 05:01:31.658
Loaded Setting File :  C:\PEM-WE_measurements\2026\372_IV_IV IrOx, 5 min Pt, 30 min C, etched cathode\new station\Loopeis new\1,46 V different time gaps closed cell\Loopeis 1,46V_90s_5_PEIS from 65Hz to 10Hz.mps
Saved on :
	File : L_20_Loopeis 1,46V_90s_5_PEIS from 65Hz to 10Hz_12_OCV_C01.mpr
	Directory : C:\PEM-WE_measurements\2026\372_IV_IV IrOx, 5 min Pt, 30 min C, etched cathode\new station\Loopeis new\1,46 V different time gaps closed cell\
	Host : 192.168.0.2
Device : SP-150e (SN .005491)
Address : 192.168.0.91
EC-LAB for windows v11.71 (software)
Internet server v28.00 (firmware)
Command interpretor v14.01 (firmware)
Electrode material : 
Initial state : 
Electrolyte : 
Comments : 
Current amplifier : SP-150eB-20A
Electrode surface area : 0.001 cm²
Characteristic mass : 0.001 g
Equivalent Weight : 0.000 g/eq.
Density : 0.000 g/cm3
Volume (V) : 0.001 cm³
Record Analogic IN 1
Text export
   Mode : Standard
   Time format : Elapsed
Cycle Definition : Charge/Discharge alternance
External device configuration :
   device type : Temperature Probe
   device name : Other
   Analog IN 1 : 
      unit : T/Â°C
      max : 100.000 at 2.000 V
      min : 0.000 at 1.460 V
tR (h:m:s)          0:01:30.0000        
dER/dt (mV/h)       1.0                 
record              <Ewe>               
dER (mV)            10.00               
dtR (s)             0.5000              
E range min (V)     -2.500              
E range max (V)     2.500               

mode	error	time/s	<Ewe/V>	Analog IN 1/V	
3	0	7.292439920379547E+002	1.2882209E+000	-2.7038031E+002
3	0	7.297439920253237E+002	1.2951654E+000	-2.7037677E+002
3	0	7.302439920126926E+002	1.2957816E+000	-2.7036618E+002
3	0	7.307439920000616E+002	1.2947766E+000	-2.7039801E+002
3	0	7.312439919874305E+002	1.2924203E+000	-2.7038031E+002
3	0	7.317439919747994E+002	1.2882320E+000	-2.7039093E+002
3	0	7.322439919621684E+002	1.2809219E+000	-2.7039093E+002
3	0	7.327439919495373E+002	1.2685422E+000	-2.7037677E+002
3	0	7.332439919369062E+002	1.2486465E+000	-2.7035913E+002
3	0	7.337439919242752E+002	1.2175916E+000	-2.7037677E+002
3	0	7.342439919116441E+002	1.1667753E+000	-2.7038742E+002
3	0	7.347439918990131E+002	1.0675262E+000	-2.7037326E+002
3	0	7.352439918863820E+002	8.2537115E-001	-2.7036618E+002
3	0	7.357439918737509E+002	6.0666400E-001	-2.7039093E+002
3	0	7.362439918611199E+002	5.4278558E-001	-2.7035559E+002
3	0	7.367439918484888E+002	5.1741570E-001	-2.7036618E+002
3	0	7.372439918358577E+002	5.0658745E-001	-2.7037326E+002
3	0	7.377439918232267E+002	5.0160861E-001	-2.7035205E+002
3	0	7.382439918105956E+002	5.0057274E-001	-2.7036267E+002
3	0	7.387439917979646E+002	5.0105774E-001	-2.7037326E+002
3	0	7.392439917853335E+002	5.0219530E-001	-2.7038031E+002
3	0	7.397439917727024E+002	5.0392985E-001	-2.7038742E+002
3	0	7.402439917600714E+002	5.0616175E-001	-2.7038031E+002
3	0	7.407439917474403E+002	5.0862461E-001	-2.7037677E+002
3	0	7.412439917348092E+002	5.1090145E-001	-2.7035205E+002
3	0	7.417439917221782E+002	5.1364923E-001	-2.7037677E+002
3	0	7.422439917095471E+002	5.1788753E-001	-2.7037677E+002
3	0	7.427439916969161E+002	5.2229393E-001	-2.7039447E+002
3	0	7.432439916842850E+002	5.2659392E-001	-2.7037326E+002
3	0	7.437439916716539E+002	5.3083152E-001	-2.7039093E+002
3	0	7.442439916590229E+002	5.3507978E-001	-2.7036618E+002
3	0	7.447439916463918E+002	5.3897822E-001	-2.7038385E+002
3	0	7.452439916337607E+002	5.4236585E-001	-2.7038742E+002
3	0	7.457439916211297E+002	5.4583931E-001	-2.7039093E+002
3	0	7.462439916084986E+002	5.5064160E-001	-2.7038385E+002
3	0	7.467439915958676E+002	5.5546671E-001	-2.7037326E+002
3	0	7.472439915832365E+002	5.5997902E-001	-2.7036972E+002
3	0	7.477439915706054E+002	5.6407142E-001	-2.7038742E+002
3	0	7.482439915579744E+002	5.6785357E-001	-2.7038742E+002
3	0	7.487439915453433E+002	5.7124585E-001	-2.7037326E+002
3	0	7.492439915327122E+002	5.7441789E-001	-2.7039447E+002
3	0	7.497439915200812E+002	5.7827711E-001	-2.7036972E+002
3	0	7.502439915074501E+002	5.9379929E-001	-2.7039447E+002
3	0	7.507439914948191E+002	6.0567081E-001	-2.7038742E+002
3	0	7.512439914821880E+002	6.1069870E-001	-2.7039801E+002
3	0	7.517439914695569E+002	6.1286783E-001	-2.7039447E+002
3	0	7.522439914569259E+002	6.1402977E-001	-2.7039093E+002
3	0	7.527439914442948E+002	6.1432415E-001	-2.7036618E+002
3	0	7.532439914316637E+002	6.1362362E-001	-2.7036972E+002
3	0	7.537439914190327E+002	6.1298215E-001	-2.7039801E+002
3	0	7.542439914064016E+002	6.1355495E-001	-2.7039093E+002
3	0	7.547439913937706E+002	6.1397278E-001	-2.7040155E+002
3	0	7.552439913811395E+002	6.1396509E-001	-2.7038031E+002
3	0	7.557439913685084E+002	6.1361021E-001	-2.7038031E+002
3	0	7.562439913558774E+002	6.1316001E-001	-2.7039801E+002
3	0	7.567439913432463E+002	6.1229390E-001	-2.7038031E+002
3	0	7.572439913306152E+002	6.1057585E-001	-2.7039447E+002
3	0	7.577439913179842E+002	6.0905784E-001	-2.7036267E+002
3	0	7.582439913053531E+002	6.0940975E-001	-2.7040860E+002
3	0	7.587439912927221E+002	6.1024749E-001	-2.7036972E+002
3	0	7.592439912800910E+002	6.1118847E-001	-2.7038385E+002
3	0	7.597439912674599E+002	6.1216348E-001	-2.7034143E+002
3	0	7.602439912548289E+002	6.1350691E-001	-2.7038031E+002
3	0	7.607439912421978E+002	6.1490208E-001	-2.7040155E+002
3	0	7.612439912295667E+002	6.1597240E-001	-2.7038031E+002
3	0	7.617439912169357E+002	6.1726886E-001	-2.7035913E+002
3	0	7.622439912043046E+002	6.2002796E-001	-2.7036267E+002
3	0	7.627439911916736E+002	6.2272865E-001	-2.7039801E+002
3	0	7.632439911790425E+002	6.2492597E-001	-2.7038385E+002
3	0	7.637439911664114E+002	6.2667805E-001	-2.7035913E+002
3	0	7.642439911537804E+002	6.2804675E-001	-2.7037326E+002
3	0	7.647439911411493E+002	6.2861097E-001	-2.7038385E+002
3	0	7.652439911285182E+002	6.2826270E-001	-2.7039447E+002
3	0	7.657439911158872E+002	6.2793738E-001	-2.7038031E+002
3	0	7.662439911032561E+002	6.2890631E-001	-2.7038385E+002
3	0	7.667439910906251E+002	6.2982059E-001	-2.7038742E+002
3	0	7.672439910779940E+002	6.3014650E-001	-2.7036618E+002
3	0	7.677439910653629E+002	6.2995762E-001	-2.7036972E+002
3	0	7.682439910527319E+002	6.2933719E-001	-2.7036267E+002
3	0	7.687439910401008E+002	6.2814718E-001	-2.7039447E+002
3	0	7.692439910274697E+002	6.2612683E-001	-2.7036618E+002
3	0	7.697439910148387E+002	6.2414485E-001	-2.7038385E+002
3	0	7.702439910022076E+002	6.2348950E-001	-2.7037677E+002
3	0	7.707439909895766E+002	6.2286156E-001	-2.7037326E+002
3	0	7.712439909769455E+002	6.2177420E-001	-2.7035913E+002
3	0	7.717439909643144E+002	6.2025851E-001	-2.7036972E+002
3	0	7.722439909516834E+002	6.1832994E-001	-2.7036267E+002
3	0	7.727439909390523E+002	6.1597615E-001	-2.7035913E+002
3	0	7.732439909264212E+002	6.1284155E-001	-2.7038385E+002
3	0	7.737439909137902E+002	6.0974705E-001	-2.7038742E+002
3	0	7.742439909011591E+002	6.0810125E-001	-2.7039447E+002
3	0	7.747439908885281E+002	6.0661179E-001	-2.7036972E+002
3	0	7.752439908758970E+002	6.0475451E-001	-2.7038031E+002
3	0	7.757439908632659E+002	6.0263652E-001	-2.7036618E+002
3	0	7.762439908506349E+002	6.0011387E-001	-2.7039093E+002
3	0	7.767439908380038E+002	5.9691316E-001	-2.7038385E+002
3	0	7.772439908253727E+002	5.9318960E-001	-2.7036618E+002
3	0	7.777439908127417E+002	5.8979046E-001	-2.7040155E+002
3	0	7.782439908001106E+002	5.8829391E-001	-2.7038742E+002
3	0	7.787439907874796E+002	5.8741170E-001	-2.7036972E+002
3	0	7.792439907748485E+002	5.8677918E-001	-2.7035913E+002
3	0	7.797439907622174E+002	5.8665478E-001	-2.7036972E+002
3	0	7.802439907495864E+002	5.8704215E-001	-2.7040506E+002
3	0	7.807439907369553E+002	5.8751321E-001	-2.7038742E+002
3	0	7.812439907243242E+002	5.8774304E-001	-2.7038031E+002
3	0	7.817439907116932E+002	5.8841360E-001	-2.7038031E+002
3	0	7.822439906990621E+002	5.9070247E-001	-2.7036972E+002
3	0	7.827439906864311E+002	5.9319705E-001	-2.7037677E+002
3	0	7.832439906738000E+002	5.9540093E-001	-2.7037677E+002
3	0	7.837439906611689E+002	5.9725457E-001	-2.7041214E+002
3	0	7.842439906485379E+002	5.9877419E-001	-2.7039447E+002
3	0	7.847439906359068E+002	5.9956676E-001	-2.7040155E+002
3	0	7.852439906232757E+002	5.9950513E-001	-2.7038742E+002
3	0	7.857439906106447E+002	5.9922689E-001	-2.7037677E+002
3	0	7.862439905980136E+002	6.0018855E-001	-2.7039801E+002
3	0	7.867439905853826E+002	6.0115016E-001	-2.7034851E+002
3	0	7.872439905727515E+002	6.0148311E-001	-2.7039801E+002
3	0	7.877439905601204E+002	6.0132760E-001	-2.7039801E+002
3	0	7.882439905474894E+002	6.0048974E-001	-2.7038031E+002
3	0	7.887439905348583E+002	5.9897691E-001	-2.7036618E+002
3	0	7.892439905222273E+002	5.9657669E-001	-2.7038031E+002
3	0	7.897439905095962E+002	5.9406990E-001	-2.7036618E+002
3	0	7.902439904969651E+002	5.9290570E-001	-2.7040155E+002
3	0	7.907439904843341E+002	5.9171897E-001	-2.7038031E+002
3	0	7.912439904717030E+002	5.8996779E-001	-2.7038742E+002
3	0	7.917439904590719E+002	5.8775431E-001	-2.7037677E+002
3	0	7.922439904464409E+002	5.8517510E-001	-2.7038031E+002
3	0	7.927439904338098E+002	5.8183235E-001	-2.7037326E+002
3	0	7.932439904211788E+002	5.7762563E-001	-2.7037677E+002
3	0	7.937439904085477E+002	5.7352096E-001	-2.7037677E+002
3	0	7.942439903959166E+002	5.7080418E-001	-2.7038031E+002
3	0	7.947439903832856E+002	5.6820428E-001	-2.7035205E+002
3	0	7.952439903706545E+002	5.6528616E-001	-2.7039801E+002
3	0	7.957439903580234E+002	5.6220579E-001	-2.7037326E+002
3	0	7.962439903453924E+002	5.5876213E-001	-2.7039801E+002
3	0	7.967439903327613E+002	5.5484766E-001	-2.7036618E+002
3	0	7.972439903201303E+002	5.5031312E-001	-2.7039093E+002
3	0	7.977439903074992E+002	5.4595691E-001	-2.7036618E+002
3	0	7.982439902948681E+002	5.4320598E-001	-2.7040155E+002
3	0	7.987439902822371E+002	5.4100090E-001	-2.7038742E+002
3	0	7.992439902696060E+002	5.3909010E-001	-2.7038031E+002
3	0	7.997439902569749E+002	5.3756666E-001	-2.7037326E+002
3	0	8.002439902443439E+002	5.3655583E-001	-2.7039093E+002
3	0	8.007439902317128E+002	5.3572142E-001	-2.7039447E+002
3	0	8.012439902190818E+002	5.3483021E-001	-2.7036267E+002
3	0	8.017439902064507E+002	5.3437579E-001	-2.7037677E+002
3	0	8.022439901938196E+002	5.3557718E-001	-2.7036972E+002
3	0	8.027439901811886E+002	5.3711981E-001	-2.7037677E+002
3	0	8.032439901685575E+002	5.3855604E-001	-2.7036618E+002
3	0	8.037439901559264E+002	5.3965092E-001	-2.7039447E+002
3	0	8.042439901432954E+002	5.4054248E-001	-2.7038742E+002
3	0	8.047439901306643E+002	5.4095548E-001	-2.7038031E+002
3	0	8.052439901180333E+002	5.4056114E-001	-2.7039093E+002
3	0	8.057439901054022E+002	5.3994274E-001	-2.7037677E+002
3	0	8.062439900927711E+002	5.4049540E-001	-2.7037326E+002
3	0	8.067439900801401E+002	5.4102117E-001	-2.7038031E+002
3	0	8.072439900675090E+002	5.4115617E-001	-2.7039447E+002
3	0	8.077439900548779E+002	5.4086077E-001	-2.7038742E+002
3	0	8.082439900422469E+002	5.4010701E-001	-2.7037326E+002
3	0	8.087439900296158E+002	5.3870803E-001	-2.7035559E+002
3	0	8.092439900169848E+002	5.3633904E-001	-2.7038385E+002
3	0	8.097439900043537E+002	5.3384006E-001	-2.7038031E+002
3	0	8.102439899917226E+002	5.3244585E-001	-2.7038385E+002
3	0	8.107439899790916E+002	5.3109574E-001	-2.7038385E+002
3	0	8.112439899664605E+002	5.2931750E-001	-2.7039447E+002
3	0	8.117439899538294E+002	5.2708244E-001	-2.7038385E+002
3	0	8.122439899411984E+002	5.2435589E-001	-2.7039093E+002
3	0	8.127439899285673E+002	5.2103281E-001	-2.7038031E+002
3	0	8.132439899159363E+002	5.1702499E-001	-2.7036267E+002
3	0	8.137439899033052E+002	5.1304364E-001	-2.7035913E+002
3	0	8.142439898906741E+002	5.1023692E-001	-2.7038031E+002
3	0	8.147439898780431E+002	5.0753003E-001	-2.7040860E+002
3	0	8.152439898654120E+002	5.0463408E-001	-2.7036618E+002
3	0	8.157439898527809E+002	5.0155389E-001	-2.7036972E+002
3	0	8.162439898401499E+002	4.9826145E-001	-2.7037326E+002
3	0	8.167439898275188E+002	4.9454880E-001	-2.7039801E+002
3	0	8.172439898148878E+002	4.9031863E-001	-2.7035559E+002
3	0	8.177439898022567E+002	4.8632616E-001	-2.7037326E+002
3	0	8.182439897896256E+002	4.8363397E-001	-2.7037326E+002
3	0	8.187439897769946E+002	4.8139256E-001	-2.7037326E+002
3	0	8.187685897763731E+002	4.8029858E-001	-2.7038742E+002