EC-Lab ASCII FILE
Nb header lines : 55                          

Open Circuit Voltage

Run on channel : 1 (SN 81504)
User : 
CE vs. WE compliance from -10 V to 10 V
Electrode connection : standard
Potential control : Ewe
Ewe ctrl range : min = -2.50 V, max = 2.50 V
Safety Limits :
	Do not start on E overload
Acquisition started on : 05/10/2026 05:01:31.658
Loaded Setting File :  C:\PEM-WE_measurements\2026\372_IV_IV IrOx, 5 min Pt, 30 min C, etched cathode\new station\Loopeis new\1,46 V different time gaps closed cell\Loopeis 1,46V_90s_5_PEIS from 65Hz to 10Hz.mps
Saved on :
	File : L_20_Loopeis 1,46V_90s_5_PEIS from 65Hz to 10Hz_04_OCV_C01.mpr
	Directory : C:\PEM-WE_measurements\2026\372_IV_IV IrOx, 5 min Pt, 30 min C, etched cathode\new station\Loopeis new\1,46 V different time gaps closed cell\
	Host : 192.168.0.2
Device : SP-150e (SN .005491)
Address : 192.168.0.91
EC-LAB for windows v11.71 (software)
Internet server v28.00 (firmware)
Command interpretor v14.01 (firmware)
Electrode material : 
Initial state : 
Electrolyte : 
Comments : 
Current amplifier : SP-150eB-20A
Electrode surface area : 0.001 cm²
Characteristic mass : 0.001 g
Equivalent Weight : 0.000 g/eq.
Density : 0.000 g/cm3
Volume (V) : 0.001 cm³
Record Analogic IN 1
Text export
   Mode : Standard
   Time format : Elapsed
Cycle Definition : Charge/Discharge alternance
External device configuration :
   device type : Temperature Probe
   device name : Other
   Analog IN 1 : 
      unit : T/Â°C
      max : 100.000 at 2.000 V
      min : 0.000 at 1.460 V
tR (h:m:s)          0:01:30.0000        
dER/dt (mV/h)       1.0                 
record              <Ewe>               
dER (mV)            10.00               
dtR (s)             0.5000              
E range min (V)     -2.500              
E range max (V)     2.500               

mode	error	time/s	<Ewe/V>	Analog IN 1/V	
3	0	1.841795988907688E+002	1.1375388E+000	-2.7038385E+002
3	0	1.846795988781378E+002	1.2608969E+000	-2.7039801E+002
3	0	1.851795988655067E+002	1.2624727E+000	-2.7036972E+002
3	0	1.856795988528756E+002	1.2620648E+000	-2.7038742E+002
3	0	1.861795988402446E+002	1.2602478E+000	-2.7038742E+002
3	0	1.866795988276135E+002	1.2568882E+000	-2.7039093E+002
3	0	1.871795988149825E+002	1.2509948E+000	-2.7039447E+002
3	0	1.876795988023514E+002	1.2406240E+000	-2.7036972E+002
3	0	1.881795987897203E+002	1.2232113E+000	-2.7038742E+002
3	0	1.886795987770893E+002	1.1949329E+000	-2.7039447E+002
3	0	1.891795987644582E+002	1.1477876E+000	-2.7040155E+002
3	0	1.896795987518271E+002	1.0590216E+000	-2.7039447E+002
3	0	1.901795987391961E+002	8.5636479E-001	-2.7037326E+002
3	0	1.906795987265650E+002	6.2952417E-001	-2.7035205E+002
3	0	1.911795987139340E+002	5.5985177E-001	-2.7036972E+002
3	0	1.916795987013029E+002	5.3317159E-001	-2.7038031E+002
3	0	1.921795986886718E+002	5.2319652E-001	-2.7036618E+002
3	0	1.926795986760408E+002	5.2024359E-001	-2.7037677E+002
3	0	1.931795986634097E+002	5.1965731E-001	-2.7038031E+002
3	0	1.936795986507786E+002	5.1991165E-001	-2.7038031E+002
3	0	1.941795986381476E+002	5.2091277E-001	-2.7038385E+002
3	0	1.946795986255165E+002	5.2377701E-001	-2.7039447E+002
3	0	1.951795986128855E+002	5.2722317E-001	-2.7039801E+002
3	0	1.956795986002544E+002	5.3082699E-001	-2.7036267E+002
3	0	1.961795985876233E+002	5.3458035E-001	-2.7036972E+002
3	0	1.966795985749923E+002	5.3874236E-001	-2.7036972E+002
3	0	1.971795985623612E+002	5.4293096E-001	-2.7036618E+002
3	0	1.976795985497301E+002	5.4693645E-001	-2.7036618E+002
3	0	1.981795985370991E+002	5.5131954E-001	-2.7040155E+002
3	0	1.986795985244680E+002	5.5696893E-001	-2.7038385E+002
3	0	1.991795985118370E+002	5.6288338E-001	-2.7036972E+002
3	0	1.996795984992059E+002	5.6852484E-001	-2.7038031E+002
3	0	2.001795984865748E+002	5.7397461E-001	-2.7038742E+002
3	0	2.006795984739438E+002	5.7902247E-001	-2.7039801E+002
3	0	2.011795984613127E+002	5.8351719E-001	-2.7039093E+002
3	0	2.016795984486816E+002	5.8698362E-001	-2.7038031E+002
3	0	2.021795984360506E+002	5.9010673E-001	-2.7037326E+002
3	0	2.026795984234195E+002	5.9411037E-001	-2.7038742E+002
3	0	2.031795984107885E+002	5.9786183E-001	-2.7039447E+002
3	0	2.036795983981574E+002	6.0110140E-001	-2.7036618E+002
3	0	2.041795983855263E+002	6.0381490E-001	-2.7035205E+002
3	0	2.046795983728953E+002	6.0625052E-001	-2.7038385E+002
3	0	2.051795983602642E+002	6.0782081E-001	-2.7037326E+002
3	0	2.056795983476331E+002	6.0849017E-001	-2.7039093E+002
3	0	2.061795983350021E+002	6.0912001E-001	-2.7039801E+002
3	0	2.066795983223710E+002	6.1086392E-001	-2.7038385E+002
3	0	2.071795983097400E+002	6.1245859E-001	-2.7038385E+002
3	0	2.076795982971089E+002	6.1372793E-001	-2.7037326E+002
3	0	2.081795982844778E+002	6.1451840E-001	-2.7038031E+002
3	0	2.086795982718468E+002	6.1504114E-001	-2.7039093E+002
3	0	2.091795982592157E+002	6.1516064E-001	-2.7037677E+002
3	0	2.096795982465846E+002	6.1455482E-001	-2.7036267E+002
3	0	2.101795982339536E+002	6.1389601E-001	-2.7039093E+002
3	0	2.106795982213225E+002	6.1448342E-001	-2.7037677E+002
3	0	2.111795982086915E+002	6.1512142E-001	-2.7035205E+002
3	0	2.116795981960604E+002	6.1550027E-001	-2.7039447E+002
3	0	2.121795981834293E+002	6.1544460E-001	-2.7038742E+002
3	0	2.126795981707983E+002	6.1513180E-001	-2.7037326E+002
3	0	2.131795981581672E+002	6.1443835E-001	-2.7037326E+002
3	0	2.136795981455361E+002	6.1292988E-001	-2.7036972E+002
3	0	2.141795981329051E+002	6.1148477E-001	-2.7038385E+002
3	0	2.146795981202740E+002	6.1162084E-001	-2.7036618E+002
3	0	2.151795981076430E+002	6.1218572E-001	-2.7036972E+002
3	0	2.156795980950119E+002	6.1285591E-001	-2.7039447E+002
3	0	2.161795980823808E+002	6.1367208E-001	-2.7039447E+002
3	0	2.166795980697498E+002	6.1465526E-001	-2.7036618E+002
3	0	2.171795980571187E+002	6.1571091E-001	-2.7039093E+002
3	0	2.176795980444876E+002	6.1651081E-001	-2.7037326E+002
3	0	2.181795980318566E+002	6.1755699E-001	-2.7037677E+002
3	0	2.186795980192255E+002	6.2012482E-001	-2.7034497E+002
3	0	2.191795980065945E+002	6.2287462E-001	-2.7036972E+002
3	0	2.196795979939634E+002	6.2542307E-001	-2.7035205E+002
3	0	2.201795979813323E+002	6.2747490E-001	-2.7036618E+002
3	0	2.206795979687013E+002	6.2931728E-001	-2.7038385E+002
3	0	2.211795979560702E+002	6.3056815E-001	-2.7040506E+002
3	0	2.216795979434391E+002	6.3100481E-001	-2.7038742E+002
3	0	2.221795979308081E+002	6.3123602E-001	-2.7038385E+002
3	0	2.226795979181770E+002	6.3269138E-001	-2.7036972E+002
3	0	2.231795979055460E+002	6.3425142E-001	-2.7039801E+002
3	0	2.236795978929149E+002	6.3536072E-001	-2.7038385E+002
3	0	2.241795978802838E+002	6.3587683E-001	-2.7039801E+002
3	0	2.246795978676528E+002	6.3591015E-001	-2.7035913E+002
3	0	2.251795978550217E+002	6.3511771E-001	-2.7035913E+002
3	0	2.256795978423906E+002	6.3348699E-001	-2.7041214E+002
3	0	2.261795978297596E+002	6.3158673E-001	-2.7038742E+002
3	0	2.266795978171285E+002	6.3091975E-001	-2.7038031E+002
3	0	2.271795978044975E+002	6.3034451E-001	-2.7036267E+002
3	0	2.276795977918664E+002	6.2937504E-001	-2.7036618E+002
3	0	2.281795977792353E+002	6.2792265E-001	-2.7037326E+002
3	0	2.286795977666043E+002	6.2622851E-001	-2.7038031E+002
3	0	2.291795977539732E+002	6.2386316E-001	-2.7037326E+002
3	0	2.296795977413422E+002	6.2081659E-001	-2.7039801E+002
3	0	2.301795977287111E+002	6.1769503E-001	-2.7033789E+002
3	0	2.306795977160800E+002	6.1595154E-001	-2.7038385E+002
3	0	2.311795977034490E+002	6.1450428E-001	-2.7036972E+002
3	0	2.316795976908179E+002	6.1287606E-001	-2.7040506E+002
3	0	2.321795976781868E+002	6.1093819E-001	-2.7038031E+002
3	0	2.326795976655558E+002	6.0869038E-001	-2.7036972E+002
3	0	2.331795976529247E+002	6.0595143E-001	-2.7037677E+002
3	0	2.336795976402937E+002	6.0255730E-001	-2.7039447E+002
3	0	2.341795976276626E+002	5.9921658E-001	-2.7038031E+002
3	0	2.346795976150315E+002	5.9736896E-001	-2.7038742E+002
3	0	2.351795976024005E+002	5.9617281E-001	-2.7039801E+002
3	0	2.356795975897694E+002	5.9532070E-001	-2.7039093E+002
3	0	2.361795975771383E+002	5.9463465E-001	-2.7038742E+002
3	0	2.366795975645073E+002	5.9435987E-001	-2.7038031E+002
3	0	2.371795975518762E+002	5.9429830E-001	-2.7036267E+002
3	0	2.376795975392452E+002	5.9423155E-001	-2.7037326E+002
3	0	2.381795975266141E+002	5.9461147E-001	-2.7039447E+002
3	0	2.386795975139830E+002	5.9664762E-001	-2.7036267E+002
3	0	2.391795975013520E+002	5.9926313E-001	-2.7038385E+002
3	0	2.396795974887209E+002	6.0188812E-001	-2.7038742E+002
3	0	2.401795974760898E+002	6.0427999E-001	-2.7036972E+002
3	0	2.406795974634588E+002	6.0636467E-001	-2.7038742E+002
3	0	2.411795974508277E+002	6.0782146E-001	-2.7034851E+002
3	0	2.416795974381967E+002	6.0833818E-001	-2.7036972E+002
3	0	2.421795974255656E+002	6.0846329E-001	-2.7038031E+002
3	0	2.426795974129345E+002	6.0970384E-001	-2.7039093E+002
3	0	2.431795974003035E+002	6.1102962E-001	-2.7038742E+002
3	0	2.436795973876724E+002	6.1194396E-001	-2.7036618E+002
3	0	2.441795973750413E+002	6.1223060E-001	-2.7038031E+002
3	0	2.446795973624103E+002	6.1193919E-001	-2.7039093E+002
3	0	2.451795973497792E+002	6.1088431E-001	-2.7035559E+002
3	0	2.456795973371482E+002	6.0880297E-001	-2.7039801E+002
3	0	2.461795973245171E+002	6.0651886E-001	-2.7035913E+002
3	0	2.466795973118860E+002	6.0540330E-001	-2.7035559E+002
3	0	2.471795972992550E+002	6.0444313E-001	-2.7038385E+002
3	0	2.476795972866239E+002	6.0309976E-001	-2.7035559E+002
3	0	2.481795972739928E+002	6.0130703E-001	-2.7038742E+002
3	0	2.486795972613618E+002	5.9899145E-001	-2.7038031E+002
3	0	2.491795972487307E+002	5.9599060E-001	-2.7036618E+002
3	0	2.496795972360997E+002	5.9217215E-001	-2.7038031E+002
3	0	2.501795972234686E+002	5.8820617E-001	-2.7038742E+002
3	0	2.506795972108375E+002	5.8560646E-001	-2.7035913E+002
3	0	2.511795971982065E+002	5.8326668E-001	-2.7039447E+002
3	0	2.516795971855754E+002	5.8079332E-001	-2.7036267E+002
3	0	2.521795971729443E+002	5.7784635E-001	-2.7038385E+002
3	0	2.526795971603133E+002	5.7473403E-001	-2.7038385E+002
3	0	2.531795971476822E+002	5.7102197E-001	-2.7038742E+002
3	0	2.536795971350512E+002	5.6673348E-001	-2.7037677E+002
3	0	2.541795971224201E+002	5.6240898E-001	-2.7039447E+002
3	0	2.546795971097890E+002	5.5951953E-001	-2.7038742E+002
3	0	2.551795970971580E+002	5.5710495E-001	-2.7036267E+002
3	0	2.556795970845269E+002	5.5501026E-001	-2.7037677E+002
3	0	2.561795970718958E+002	5.5307621E-001	-2.7037677E+002
3	0	2.566795970592648E+002	5.5156296E-001	-2.7036972E+002
3	0	2.571795970466337E+002	5.5025536E-001	-2.7037326E+002
3	0	2.576795970340027E+002	5.4905838E-001	-2.7040860E+002
3	0	2.581795970213716E+002	5.4841375E-001	-2.7036972E+002
3	0	2.586795970087405E+002	5.4943246E-001	-2.7038031E+002
3	0	2.591795969961095E+002	5.5103749E-001	-2.7036972E+002
3	0	2.596795969834784E+002	5.5275345E-001	-2.7035913E+002
3	0	2.601795969708473E+002	5.5412191E-001	-2.7038385E+002
3	0	2.606795969582163E+002	5.5528229E-001	-2.7038742E+002
3	0	2.611795969455852E+002	5.5587262E-001	-2.7038385E+002
3	0	2.616795969329542E+002	5.5560726E-001	-2.7038385E+002
3	0	2.621795969203231E+002	5.5528706E-001	-2.7037677E+002
3	0	2.626795969076920E+002	5.5608177E-001	-2.7039801E+002
3	0	2.631795968950610E+002	5.5689758E-001	-2.7036267E+002
3	0	2.636795968824299E+002	5.5736518E-001	-2.7037326E+002
3	0	2.641795968697988E+002	5.5718434E-001	-2.7038031E+002
3	0	2.646795968571678E+002	5.5645496E-001	-2.7036972E+002
3	0	2.651795968445367E+002	5.5505419E-001	-2.7039447E+002
3	0	2.656795968319057E+002	5.5261141E-001	-2.7039093E+002
3	0	2.661795968192746E+002	5.4993606E-001	-2.7036972E+002
3	0	2.666795968066435E+002	5.4842860E-001	-2.7039447E+002
3	0	2.671795967940125E+002	5.4690874E-001	-2.7040860E+002
3	0	2.676795967813814E+002	5.4508084E-001	-2.7039093E+002
3	0	2.681795967687503E+002	5.4271019E-001	-2.7039447E+002
3	0	2.686795967561193E+002	5.3988773E-001	-2.7036972E+002
3	0	2.691795967434882E+002	5.3643572E-001	-2.7038742E+002
3	0	2.696795967308572E+002	5.3216445E-001	-2.7039093E+002
3	0	2.701795967182261E+002	5.2790278E-001	-2.7040155E+002
3	0	2.706795967055950E+002	5.2483577E-001	-2.7036972E+002
3	0	2.711795966929640E+002	5.2192104E-001	-2.7038742E+002
3	0	2.716795966803329E+002	5.1878583E-001	-2.7038742E+002
3	0	2.721795966677018E+002	5.1526994E-001	-2.7037326E+002
3	0	2.726795966550708E+002	5.1156425E-001	-2.7037677E+002
3	0	2.731795966424397E+002	5.0745106E-001	-2.7036267E+002
3	0	2.736795966298087E+002	5.0278091E-001	-2.7038031E+002
3	0	2.737029966292175E+002	5.0023633E-001	-2.7036618E+002