EC-Lab ASCII FILE
Nb header lines : 48                          

Open Circuit Voltage

Run on channel : 1 (SN 81504)
User : 
CE vs. WE compliance from -10 V to 10 V
Electrode connection : standard
Potential control : Ewe
Ewe ctrl range : min = -2.50 V, max = 2.50 V
Safety Limits :
	Do not start on E overload
Acquisition started on : 05/10/2026 05:54:37.151
Loaded Setting File :  C:\PEM-WE_measurements\2026\372_IV_IV IrOx, 5 min Pt, 30 min C, etched cathode\new station\Loopeis new\1,46 V different time gaps closed cell\Loopeis 1,46V_120s_2_PEIS from 65kHz to 10kHz.mps
Saved on :
	File : L_22_Loopeis 1,46V_120s_2_PEIS from 65kHz to 10kHz_06_OCV_C01.mpr
	Directory : C:\PEM-WE_measurements\2026\372_IV_IV IrOx, 5 min Pt, 30 min C, etched cathode\new station\Loopeis new\1,46 V different time gaps closed cell\
	Host : 192.168.0.2
Device : SP-150e (SN .005491)
Address : 192.168.0.91
EC-LAB for windows v11.71 (software)
Internet server v28.00 (firmware)
Command interpretor v14.01 (firmware)
Electrode material : 
Initial state : 
Electrolyte : 
Comments : 
Current amplifier : SP-150eB-20A
Electrode surface area : 0.001 cm²
Characteristic mass : 0.001 g
Equivalent Weight : 0.000 g/eq.
Density : 0.000 g/cm3
Volume (V) : 0.001 cm³
Record Analogic IN 1
Text export
   Mode : Standard
   Time format : Elapsed
Cycle Definition : Charge/Discharge alternance
tR (h:m:s)          0:02:0.0000         
dER/dt (mV/h)       1.0                 
record              <Ewe>               
dER (mV)            10.00               
dtR (s)             0.5000              
E range min (V)     -2.500              
E range max (V)     2.500               

mode	error	time/s	<Ewe/V>	Analog IN 1/V	
3	0	3.760685938151437E+002	1.2921551E+000	-1.5220648E-005
3	0	3.765685938025126E+002	1.2989804E+000	-5.3391734E-005
3	0	3.770685937898816E+002	1.2964931E+000	3.8648941E-006
3	0	3.775685937772505E+002	1.2893840E+000	2.2950437E-005
3	0	3.780685937646194E+002	1.2759976E+000	2.2950437E-005
3	0	3.785685937519884E+002	1.2537652E+000	-1.5220648E-005
3	0	3.790685937393573E+002	1.2181636E+000	-9.1562819E-005
3	0	3.795685937267262E+002	1.1581447E+000	-3.4306191E-005
3	0	3.800685937140952E+002	1.0206212E+000	4.2035979E-005
3	0	3.805685937014641E+002	6.6682410E-001	9.9292607E-005
3	0	3.810685936888331E+002	4.9182025E-001	6.1121522E-005
3	0	3.815685936762020E+002	4.3563572E-001	-5.3391734E-005
3	0	3.820685936635709E+002	4.1854748E-001	3.8648941E-006
3	0	3.825685936509399E+002	4.1239831E-001	-7.2477276E-005
3	0	3.830685936383088E+002	4.0895471E-001	-1.4881945E-004
3	0	3.835685936256778E+002	4.0618655E-001	-1.2973390E-004
3	0	3.840685936130467E+002	4.0353945E-001	-1.5220648E-005
3	0	3.845685936004156E+002	4.0149823E-001	-1.5220648E-005
3	0	3.850685935877846E+002	4.0049234E-001	9.9292607E-005
3	0	3.855685935751535E+002	3.9966372E-001	-5.3391734E-005
3	0	3.860685935625224E+002	3.9881647E-001	-1.2973390E-004
3	0	3.865685935498914E+002	3.9799184E-001	-7.2477276E-005
3	0	3.870685935372603E+002	3.9730889E-001	4.2035979E-005
3	0	3.875685935246293E+002	3.9657047E-001	-1.5220648E-005
3	0	3.880685935119982E+002	3.9570695E-001	-7.2477276E-005
3	0	3.885685934993671E+002	3.9510301E-001	-1.1064836E-004
3	0	3.890685934867361E+002	3.9523119E-001	-1.2973390E-004
3	0	3.895685934741050E+002	3.9524943E-001	3.8648941E-006
3	0	3.900685934614739E+002	3.9518932E-001	3.8648941E-006
3	0	3.905685934488429E+002	3.9514342E-001	2.2950437E-005
3	0	3.910685934362118E+002	3.9528632E-001	-1.5220648E-005
3	0	3.915685934235808E+002	3.9536548E-001	-7.2477276E-005
3	0	3.920685934109497E+002	3.9532831E-001	-7.2477276E-005
3	0	3.925685933983186E+002	3.9551416E-001	-5.3391734E-005
3	0	3.930685933856876E+002	3.9649364E-001	-9.1562819E-005
3	0	3.935685933730565E+002	3.9749119E-001	-9.1562819E-005
3	0	3.940685933604254E+002	3.9835879E-001	-1.5220648E-005
3	0	3.945685933477944E+002	3.9914584E-001	-3.4306191E-005
3	0	3.950685933351633E+002	3.9993113E-001	2.2950437E-005
3	0	3.955685933225323E+002	4.0049914E-001	3.8648941E-006
3	0	3.960685933099012E+002	4.0078491E-001	3.8648941E-006
3	0	3.965685932972701E+002	4.0109867E-001	-5.3391734E-005
3	0	3.970685932846391E+002	4.0197664E-001	4.2035979E-005
3	0	3.975685932720080E+002	4.0278634E-001	-1.5220648E-005
3	0	3.980685932593769E+002	4.0337759E-001	3.8648941E-006
3	0	3.985685932467459E+002	4.0380076E-001	-3.4306191E-005
3	0	3.990685932341148E+002	4.0421015E-001	-7.2477276E-005
3	0	3.995685932214838E+002	4.0432128E-001	-2.0607607E-004
3	0	4.000685932088527E+002	4.0421551E-001	-5.3391734E-005
3	0	4.005685931962216E+002	4.0419576E-001	-3.4306191E-005
3	0	4.010685931835906E+002	4.0478027E-001	-1.5220648E-005
3	0	4.015685931709595E+002	4.0525785E-001	-1.1064836E-004
3	0	4.020685931583284E+002	4.0553197E-001	-3.4306191E-005
3	0	4.025685931456974E+002	4.0566626E-001	4.2035979E-005
3	0	4.030685931330663E+002	4.0578225E-001	3.8648941E-006
3	0	4.035685931204353E+002	4.0569684E-001	-1.2973390E-004
3	0	4.040685931078042E+002	4.0530303E-001	8.0207064E-005
3	0	4.045685930951731E+002	4.0490961E-001	-3.4306191E-005
3	0	4.050685930825421E+002	4.0514132E-001	-2.2516162E-004
3	0	4.055685930699110E+002	4.0531132E-001	-3.4306191E-005
3	0	4.060685930572799E+002	4.0528187E-001	4.2035979E-005
3	0	4.065685930446489E+002	4.0510601E-001	4.2035979E-005
3	0	4.070685930320178E+002	4.0490523E-001	4.2035979E-005
3	0	4.075685930193868E+002	4.0454572E-001	-7.2477276E-005
3	0	4.080685930067557E+002	4.0397677E-001	-1.5220648E-005
3	0	4.085685929941246E+002	4.0343699E-001	-3.4306191E-005
3	0	4.090685929814936E+002	4.0350920E-001	-3.4306191E-005
3	0	4.095685929688625E+002	4.0354952E-001	3.8648941E-006
3	0	4.100685929562314E+002	4.0344459E-001	-1.1064836E-004
3	0	4.105685929436004E+002	4.0322816E-001	3.8648941E-006
3	0	4.110685929309693E+002	4.0309885E-001	2.2950437E-005
3	0	4.115685929183383E+002	4.0294194E-001	-1.1064836E-004
3	0	4.120685929057072E+002	4.0265134E-001	-3.4306191E-005
3	0	4.125685928930761E+002	4.0259513E-001	3.8648941E-006
3	0	4.130685928804451E+002	4.0321812E-001	8.0207064E-005
3	0	4.135685928678140E+002	4.0384126E-001	2.2950437E-005
3	0	4.140685928551829E+002	4.0437216E-001	-1.1064836E-004
3	0	4.145685928425519E+002	4.0481141E-001	-7.2477276E-005
3	0	4.150685928299208E+002	4.0527540E-001	2.2950437E-005
3	0	4.155685928172898E+002	4.0549904E-001	-3.4306191E-005
3	0	4.160685928046587E+002	4.0544400E-001	-1.1064836E-004
3	0	4.165685927920276E+002	4.0532780E-001	-7.2477276E-005
3	0	4.170685927793966E+002	4.0579695E-001	2.2950437E-005
3	0	4.175685927667655E+002	4.0611610E-001	-3.4306191E-005
3	0	4.180685927541344E+002	4.0628079E-001	-2.6333271E-004
3	0	4.185685927415034E+002	4.0633568E-001	-1.1064836E-004
3	0	4.190685927288723E+002	4.0625331E-001	-1.1064836E-004
3	0	4.195685927162413E+002	4.0598351E-001	6.1121522E-005
3	0	4.200685927036102E+002	4.0550098E-001	8.0207064E-005
3	0	4.205685926909791E+002	4.0504554E-001	-7.2477276E-005
3	0	4.210685926783481E+002	4.0516573E-001	3.8648941E-006
3	0	4.215685926657170E+002	4.0519017E-001	3.8648941E-006
3	0	4.220685926530859E+002	4.0503627E-001	-3.4306191E-005
3	0	4.225685926404549E+002	4.0472639E-001	-2.4424717E-004
3	0	4.230685926278238E+002	4.0437341E-001	-1.5220648E-005
3	0	4.235685926151928E+002	4.0383708E-001	2.2950437E-005
3	0	4.240685926025617E+002	4.0313503E-001	6.1121522E-005
3	0	4.245685925899306E+002	4.0250465E-001	6.1121522E-005
3	0	4.250685925772996E+002	4.0238738E-001	2.2950437E-005
3	0	4.255685925646685E+002	4.0216976E-001	6.1121522E-005
3	0	4.260685925520374E+002	4.0180305E-001	4.2035979E-005
3	0	4.265685925394064E+002	4.0133291E-001	3.8648941E-006
3	0	4.270685925267753E+002	4.0089589E-001	-1.2973390E-004
3	0	4.275685925141443E+002	4.0032154E-001	6.1121522E-005
3	0	4.280685925015132E+002	3.9955470E-001	-9.1562819E-005
3	0	4.285685924888821E+002	3.9883769E-001	3.8648941E-006
3	0	4.290685924762511E+002	3.9863500E-001	-5.3391734E-005
3	0	4.295685924636200E+002	3.9836305E-001	3.8648941E-006
3	0	4.300685924509889E+002	3.9803928E-001	-5.3391734E-005
3	0	4.305685924383579E+002	3.9763203E-001	2.2950437E-005
3	0	4.310685924257268E+002	3.9729074E-001	3.8648941E-006
3	0	4.315685924130958E+002	3.9688715E-001	-1.5220648E-005
3	0	4.320685924004647E+002	3.9641708E-001	-7.2477276E-005
3	0	4.325685923878336E+002	3.9615172E-001	3.8648941E-006
3	0	4.330685923752026E+002	3.9649260E-001	-7.2477276E-005
3	0	4.335685923625715E+002	3.9687672E-001	-1.4881945E-004
3	0	4.340685923499404E+002	3.9718649E-001	-7.2477276E-005
3	0	4.345685923373094E+002	3.9738268E-001	2.2950437E-005
3	0	4.350685923246783E+002	3.9750913E-001	-5.3391734E-005
3	0	4.355685923120473E+002	3.9750320E-001	3.8648941E-006
3	0	4.360685922994162E+002	3.9721954E-001	-1.4881945E-004
3	0	4.365685922867851E+002	3.9697203E-001	-1.5220648E-005
3	0	4.370685922741541E+002	3.9718473E-001	-1.8699054E-004
3	0	4.375685922615230E+002	3.9729276E-001	9.9292607E-005
3	0	4.380685922488919E+002	3.9728451E-001	4.2035979E-005
3	0	4.385685922362609E+002	3.9712429E-001	-1.5220648E-005
3	0	4.390685922236298E+002	3.9690685E-001	-5.3391734E-005
3	0	4.395685922109988E+002	3.9655265E-001	-3.4306191E-005
3	0	4.400685921983677E+002	3.9601251E-001	3.8648941E-006
3	0	4.405685921857366E+002	3.9549345E-001	-5.3391734E-005
3	0	4.410685921731056E+002	3.9545980E-001	-3.4306191E-005
3	0	4.415685921604745E+002	3.9535639E-001	2.2950437E-005
3	0	4.420685921478434E+002	3.9512444E-001	-1.2973390E-004
3	0	4.425685921352124E+002	3.9475411E-001	-1.5220648E-005
3	0	4.430685921225813E+002	3.9435801E-001	-1.4881945E-004
3	0	4.435685921099503E+002	3.9385805E-001	-5.3391734E-005
3	0	4.440685920973192E+002	3.9322081E-001	-9.1562819E-005
3	0	4.445685920846881E+002	3.9261195E-001	6.1121522E-005
3	0	4.450685920720571E+002	3.9245477E-001	-5.3391734E-005
3	0	4.455685920594260E+002	3.9224502E-001	-7.2477276E-005
3	0	4.460685920467949E+002	3.9193887E-001	-9.1562819E-005
3	0	4.465685920341639E+002	3.9154044E-001	-1.2973390E-004
3	0	4.470685920215328E+002	3.9111710E-001	-7.2477276E-005
3	0	4.475685920089018E+002	3.9054504E-001	-3.4306191E-005
3	0	4.480685919962707E+002	3.8982692E-001	-2.0607607E-004
3	0	4.485685919836396E+002	3.8922217E-001	3.8648941E-006
3	0	4.490685919710086E+002	3.8906416E-001	-9.1562819E-005
3	0	4.495685919583775E+002	3.8886264E-001	3.8648941E-006
3	0	4.500685919457464E+002	3.8858619E-001	8.0207064E-005
3	0	4.505685919331154E+002	3.8823324E-001	-1.2973390E-004
3	0	4.510685919204843E+002	3.8793260E-001	-3.4306191E-005
3	0	4.515685919078533E+002	3.8759157E-001	-9.1562819E-005
3	0	4.520685918952222E+002	3.8719928E-001	3.8648941E-006
3	0	4.525685918825911E+002	3.8693824E-001	9.9292607E-005
3	0	4.530685918699601E+002	3.8717806E-001	1.3746369E-004
3	0	4.535685918573290E+002	3.8747907E-001	-1.4881945E-004
3	0	4.540685918446979E+002	3.8776600E-001	-2.0607607E-004
3	0	4.545685918320669E+002	3.8793787E-001	2.2950437E-005
3	0	4.550685918194358E+002	3.8805819E-001	4.2035979E-005
3	0	4.555685918068048E+002	3.8806078E-001	-5.3391734E-005
3	0	4.560685917941737E+002	3.8786522E-001	-1.1064836E-004
3	0	4.565685917815426E+002	3.8765872E-001	-1.5220648E-005
3	0	4.570685917689116E+002	3.8780785E-001	-1.1064836E-004
3	0	4.575685917562805E+002	3.8792628E-001	-3.4306191E-005
3	0	4.580685917436494E+002	3.8793623E-001	-1.5220648E-005
3	0	4.585685917310184E+002	3.8782138E-001	3.8648941E-006
3	0	4.590685917183873E+002	3.8763198E-001	-1.1064836E-004
3	0	4.595685917057563E+002	3.8732913E-001	-5.3391734E-005
3	0	4.600685916931252E+002	3.8682905E-001	-1.5220648E-005
3	0	4.605685916804941E+002	3.8639137E-001	3.8648941E-006
3	0	4.610685916678631E+002	3.8634458E-001	-1.2973390E-004
3	0	4.615685916552320E+002	3.8626847E-001	-3.4306191E-005
3	0	4.620685916426010E+002	3.8608450E-001	-7.2477276E-005
3	0	4.625685916299699E+002	3.8580924E-001	2.2950437E-005
3	0	4.630685916173388E+002	3.8549680E-001	3.8648941E-006
3	0	4.635685916047078E+002	3.8505974E-001	-1.1064836E-004
3	0	4.640685915920767E+002	3.8449028E-001	-1.1064836E-004
3	0	4.645685915794456E+002	3.8396701E-001	2.2950437E-005
3	0	4.650685915668146E+002	3.8381898E-001	-5.3391734E-005
3	0	4.655685915541835E+002	3.8364601E-001	2.2950437E-005
3	0	4.660685915415525E+002	3.8340795E-001	-9.1562819E-005
3	0	4.665685915289214E+002	3.8305774E-001	-1.5220648E-005
3	0	4.670685915162903E+002	3.8268116E-001	-5.3391734E-005
3	0	4.675685915036593E+002	3.8222191E-001	2.2950437E-005
3	0	4.680685914910282E+002	3.8159931E-001	2.2950437E-005
3	0	4.685685914783971E+002	3.8103524E-001	-7.2477276E-005
3	0	4.690685914657661E+002	3.8084891E-001	-9.1562819E-005
3	0	4.695685914531350E+002	3.8065612E-001	-1.5220648E-005
3	0	4.700685914405040E+002	3.8040403E-001	-9.1562819E-005
3	0	4.705685914278729E+002	3.8006896E-001	-1.4881945E-004
3	0	4.710685914152418E+002	3.7973285E-001	-1.4881945E-004
3	0	4.715685914026108E+002	3.7937692E-001	-1.2973390E-004
3	0	4.720685913899797E+002	3.7898540E-001	-7.2477276E-005
3	0	4.725685913773486E+002	3.7871462E-001	6.1121522E-005
3	0	4.730685913647176E+002	3.7888426E-001	1.1837815E-004
3	0	4.735685913520865E+002	3.7911159E-001	4.2035979E-005
3	0	4.740685913394555E+002	3.7933215E-001	-7.2477276E-005
3	0	4.745685913268244E+002	3.7950507E-001	4.2035979E-005
3	0	4.750685913141933E+002	3.7963772E-001	3.8648941E-006
3	0	4.755685913015623E+002	3.7964144E-001	-5.3391734E-005
3	0	4.760685912889312E+002	3.7946388E-001	-3.4306191E-005
3	0	4.765685912763001E+002	3.7927291E-001	-7.2477276E-005
3	0	4.770685912636691E+002	3.7942994E-001	-7.2477276E-005
3	0	4.775685912510380E+002	3.7954602E-001	3.8648941E-006
3	0	4.780685912384070E+002	3.7955067E-001	-1.5220648E-005
3	0	4.785685912257759E+002	3.7942711E-001	-5.3391734E-005
3	0	4.790685912131448E+002	3.7926182E-001	-5.3391734E-005
3	0	4.795685912005138E+002	3.7899300E-001	-7.2477276E-005
3	0	4.800685911878827E+002	3.7856326E-001	-7.2477276E-005
3	0	4.805685911752516E+002	3.7816814E-001	-3.4306191E-005
3	0	4.810685911626206E+002	3.7809691E-001	-5.3391734E-005
3	0	4.815685911499895E+002	3.7801710E-001	4.2035979E-005
3	0	4.820685911373585E+002	3.7784886E-001	-1.2973390E-004
3	0	4.825685911247274E+002	3.7758228E-001	-2.2516162E-004
3	0	4.830685911120963E+002	3.7727270E-001	-1.6790499E-004
3	0	4.835685910994653E+002	3.7688783E-001	-1.5220648E-005
3	0	4.840685910868342E+002	3.7633625E-001	-1.5220648E-005
3	0	4.845685910742031E+002	3.7583151E-001	3.8648941E-006
3	0	4.850685910615721E+002	3.7568229E-001	9.9292607E-005
3	0	4.855685910489410E+002	3.7553462E-001	4.2035979E-005
3	0	4.860685910363100E+002	3.7532037E-001	2.2950437E-005
3	0	4.865685910236789E+002	3.7502795E-001	-1.4881945E-004
3	0	4.870685910110478E+002	3.7470233E-001	-5.3391734E-005
3	0	4.875685909984168E+002	3.7430587E-001	-1.4881945E-004
3	0	4.880685909857857E+002	3.7378407E-001	3.8648941E-006
3	0	4.885685909731546E+002	3.7326571E-001	-2.4424717E-004
3	0	4.890685909605236E+002	3.7308151E-001	-9.1562819E-005
3	0	4.895685909478925E+002	3.7290114E-001	-1.6790499E-004
3	0	4.900685909352615E+002	3.7264785E-001	-9.1562819E-005
3	0	4.905685909226304E+002	3.7232196E-001	-3.4306191E-005
3	0	4.910685909099993E+002	3.7203112E-001	-7.2477276E-005
3	0	4.915685908973683E+002	3.7171501E-001	4.2035979E-005
3	0	4.920685908847372E+002	3.7134102E-001	-1.5220648E-005
3	0	4.925685908721061E+002	3.7107527E-001	-1.1064836E-004
3	0	4.930685908594751E+002	3.7119111E-001	3.8648941E-006
3	0	4.935685908468440E+002	3.7139964E-001	-1.1064836E-004
3	0	4.940685908342130E+002	3.7162125E-001	-7.2477276E-005
3	0	4.945685908215819E+002	3.7179258E-001	2.2950437E-005
3	0	4.950685908089508E+002	3.7193373E-001	-5.3391734E-005
3	0	4.955685907963198E+002	3.7192810E-001	-1.5220648E-005
3	0	4.955689907963097E+002	3.7181523E-001	-7.2477276E-005