EC-Lab ASCII FILE
Nb header lines : 48                          

Open Circuit Voltage

Run on channel : 1 (SN 81504)
User : 
CE vs. WE compliance from -10 V to 10 V
Electrode connection : standard
Potential control : Ewe
Ewe ctrl range : min = -2.50 V, max = 2.50 V
Safety Limits :
	Do not start on E overload
Acquisition started on : 05/10/2026 05:54:37.151
Loaded Setting File :  C:\PEM-WE_measurements\2026\372_IV_IV IrOx, 5 min Pt, 30 min C, etched cathode\new station\Loopeis new\1,46 V different time gaps closed cell\Loopeis 1,46V_120s_2_PEIS from 65kHz to 10kHz.mps
Saved on :
	File : L_22_Loopeis 1,46V_120s_2_PEIS from 65kHz to 10kHz_18_OCV_C01.mpr
	Directory : C:\PEM-WE_measurements\2026\372_IV_IV IrOx, 5 min Pt, 30 min C, etched cathode\new station\Loopeis new\1,46 V different time gaps closed cell\
	Host : 192.168.0.2
Device : SP-150e (SN .005491)
Address : 192.168.0.91
EC-LAB for windows v11.71 (software)
Internet server v28.00 (firmware)
Command interpretor v14.01 (firmware)
Electrode material : 
Initial state : 
Electrolyte : 
Comments : 
Current amplifier : SP-150eB-20A
Electrode surface area : 0.001 cm²
Characteristic mass : 0.001 g
Equivalent Weight : 0.000 g/eq.
Density : 0.000 g/cm3
Volume (V) : 0.001 cm³
Record Analogic IN 1
Text export
   Mode : Standard
   Time format : Elapsed
Cycle Definition : Charge/Discharge alternance
tR (h:m:s)          0:02:0.0000         
dER/dt (mV/h)       1.0                 
record              <Ewe>               
dER (mV)            10.00               
dtR (s)             0.5000              
E range min (V)     -2.500              
E range max (V)     2.500               

mode	error	time/s	<Ewe/V>	Analog IN 1/V	
3	0	1.367445978693213E+003	1.2913029E+000	-1.6790499E-004
3	0	1.367945978680582E+003	1.2979604E+000	-9.1562819E-005
3	0	1.368445978667951E+003	1.2947735E+000	-2.6333271E-004
3	0	1.368945978655320E+003	1.2861019E+000	-1.5220648E-005
3	0	1.369445978642689E+003	1.2700322E+000	8.0207064E-005
3	0	1.369945978630058E+003	1.2434617E+000	-3.4306191E-005
3	0	1.370445978617427E+003	1.2003893E+000	4.2035979E-005
3	0	1.370945978604796E+003	1.1240902E+000	-9.1562819E-005
3	0	1.371445978592164E+003	9.1489702E-001	-1.2973390E-004
3	0	1.371945978579533E+003	5.7583672E-001	-3.4306191E-005
3	0	1.372445978566902E+003	4.5483378E-001	-7.2477276E-005
3	0	1.372945978554271E+003	4.1453505E-001	-3.4306191E-005
3	0	1.373445978541640E+003	4.0253550E-001	-1.5220648E-005
3	0	1.373945978529009E+003	3.9803591E-001	-1.4881945E-004
3	0	1.374445978516378E+003	3.9526236E-001	-5.3391734E-005
3	0	1.374945978503747E+003	3.9275616E-001	-1.1064836E-004
3	0	1.375445978491116E+003	3.9026508E-001	6.1121522E-005
3	0	1.375945978478485E+003	3.8862100E-001	6.1121522E-005
3	0	1.376445978465854E+003	3.8807333E-001	-1.6790499E-004
3	0	1.376945978453223E+003	3.8757423E-001	-3.4306191E-005
3	0	1.377445978440592E+003	3.8709822E-001	3.8648941E-006
3	0	1.377945978427961E+003	3.8685766E-001	3.8648941E-006
3	0	1.378445978415330E+003	3.8679236E-001	-5.3391734E-005
3	0	1.378945978402699E+003	3.8676247E-001	8.0207064E-005
3	0	1.379445978390067E+003	3.8663706E-001	4.2035979E-005
3	0	1.379945978377436E+003	3.8691625E-001	6.1121522E-005
3	0	1.380445978364805E+003	3.8779679E-001	-1.2973390E-004
3	0	1.380945978352174E+003	3.8845003E-001	6.1121522E-005
3	0	1.381445978339543E+003	3.8886335E-001	3.8648941E-006
3	0	1.381945978326912E+003	3.8921437E-001	4.2035979E-005
3	0	1.382445978314281E+003	3.8947472E-001	3.8648941E-006
3	0	1.382945978301650E+003	3.8949999E-001	3.8648941E-006
3	0	1.383445978289019E+003	3.8937634E-001	-7.2477276E-005
3	0	1.383945978276388E+003	3.8952035E-001	-5.3391734E-005
3	0	1.384445978263757E+003	3.9021248E-001	-5.3391734E-005
3	0	1.384945978251126E+003	3.9070889E-001	-3.4306191E-005
3	0	1.385445978238495E+003	3.9099523E-001	-1.5220648E-005
3	0	1.385945978225864E+003	3.9118096E-001	3.8648941E-006
3	0	1.386445978213233E+003	3.9139730E-001	3.8648941E-006
3	0	1.386945978200602E+003	3.9136484E-001	6.1121522E-005
3	0	1.387445978187970E+003	3.9114615E-001	8.0207064E-005
3	0	1.387945978175339E+003	3.9113930E-001	3.8648941E-006
3	0	1.388445978162708E+003	3.9170021E-001	-1.2973390E-004
3	0	1.388945978150077E+003	3.9205638E-001	4.2035979E-005
3	0	1.389445978137446E+003	3.9217702E-001	-1.4881945E-004
3	0	1.389945978124815E+003	3.9221862E-001	-1.8699054E-004
3	0	1.390445978112184E+003	3.9218202E-001	2.2950437E-005
3	0	1.390945978099553E+003	3.9197946E-001	2.2950437E-005
3	0	1.391445978086922E+003	3.9154458E-001	-5.3391734E-005
3	0	1.391945978074291E+003	3.9133823E-001	-7.2477276E-005
3	0	1.392445978061660E+003	3.9174235E-001	3.8648941E-006
3	0	1.392945978049029E+003	3.9200440E-001	6.1121522E-005
3	0	1.393445978036398E+003	3.9198470E-001	-7.2477276E-005
3	0	1.393945978023767E+003	3.9188477E-001	3.8648941E-006
3	0	1.394445978011136E+003	3.9175063E-001	-2.0607607E-004
3	0	1.394945977998505E+003	3.9137322E-001	-1.4881945E-004
3	0	1.395445977985873E+003	3.9087078E-001	-9.1562819E-005
3	0	1.395945977973242E+003	3.9063817E-001	-7.2477276E-005
3	0	1.396445977960611E+003	3.9101639E-001	-7.2477276E-005
3	0	1.396945977947980E+003	3.9135802E-001	8.0207064E-005
3	0	1.397445977935349E+003	3.9162070E-001	3.8648941E-006
3	0	1.397945977922718E+003	3.9194989E-001	4.2035979E-005
3	0	1.398445977910087E+003	3.9237565E-001	-1.2973390E-004
3	0	1.398945977897456E+003	3.9266980E-001	-9.1562819E-005
3	0	1.399445977884825E+003	3.9287525E-001	-5.3391734E-005
3	0	1.399945977872194E+003	3.9334247E-001	-3.4306191E-005
3	0	1.400445977859563E+003	3.9431134E-001	-9.1562819E-005
3	0	1.400945977846932E+003	3.9511213E-001	2.2950437E-005
3	0	1.401445977834301E+003	3.9571476E-001	-1.2973390E-004
3	0	1.401945977821670E+003	3.9620844E-001	-5.3391734E-005
3	0	1.402445977809039E+003	3.9663169E-001	-3.4306191E-005
3	0	1.402945977796408E+003	3.9681447E-001	-7.2477276E-005
3	0	1.403445977783776E+003	3.9671895E-001	-3.4306191E-005
3	0	1.403945977771145E+003	3.9673582E-001	-1.5220648E-005
3	0	1.404445977758514E+003	3.9726987E-001	3.8648941E-006
3	0	1.404945977745883E+003	3.9765283E-001	2.2950437E-005
3	0	1.405445977733252E+003	3.9781410E-001	-1.8699054E-004
3	0	1.405945977720621E+003	3.9784783E-001	2.2950437E-005
3	0	1.406445977707990E+003	3.9780897E-001	2.2950437E-005
3	0	1.406945977695359E+003	3.9738646E-001	-5.3391734E-005
3	0	1.407445977682728E+003	3.9686257E-001	-9.1562819E-005
3	0	1.407945977670097E+003	3.9666450E-001	-1.1064836E-004
3	0	1.408445977657466E+003	3.9688802E-001	4.2035979E-005
3	0	1.408945977644835E+003	3.9690292E-001	-1.5220648E-005
3	0	1.409445977632204E+003	3.9669085E-001	-1.8699054E-004
3	0	1.409945977619573E+003	3.9644259E-001	-1.4881945E-004
3	0	1.410445977606942E+003	3.9610109E-001	-5.3391734E-005
3	0	1.410945977594311E+003	3.9565203E-001	-5.3391734E-005
3	0	1.411445977581679E+003	3.9494592E-001	8.0207064E-005
3	0	1.411945977569048E+003	3.9445597E-001	2.2950437E-005
3	0	1.412445977556417E+003	3.9445415E-001	-9.1562819E-005
3	0	1.412945977543786E+003	3.9430362E-001	-1.8699054E-004
3	0	1.413445977531155E+003	3.9394733E-001	-7.2477276E-005
3	0	1.413945977518524E+003	3.9350581E-001	-7.2477276E-005
3	0	1.414445977505893E+003	3.9307612E-001	-7.2477276E-005
3	0	1.414945977493262E+003	3.9251676E-001	-1.4881945E-004
3	0	1.415445977480631E+003	3.9178732E-001	-1.8699054E-004
3	0	1.415945977468000E+003	3.9124259E-001	-7.2477276E-005
3	0	1.416445977455369E+003	3.9126179E-001	-1.1064836E-004
3	0	1.416945977442738E+003	3.9125416E-001	-1.5220648E-005
3	0	1.417445977430107E+003	3.9119411E-001	-5.3391734E-005
3	0	1.417945977417476E+003	3.9113799E-001	4.2035979E-005
3	0	1.418445977404845E+003	3.9117157E-001	-1.5220648E-005
3	0	1.418945977392214E+003	3.9119706E-001	-1.5220648E-005
3	0	1.419445977379582E+003	3.9112008E-001	-5.3391734E-005
3	0	1.419945977366951E+003	3.9130855E-001	-1.5220648E-005
3	0	1.420445977354320E+003	3.9185312E-001	-1.5220648E-005
3	0	1.420945977341689E+003	3.9221427E-001	8.0207064E-005
3	0	1.421445977329058E+003	3.9236280E-001	-1.2973390E-004
3	0	1.421945977316427E+003	3.9237002E-001	-5.3391734E-005
3	0	1.422445977303796E+003	3.9239407E-001	6.1121522E-005
3	0	1.422945977291165E+003	3.9219260E-001	-5.3391734E-005
3	0	1.423445977278534E+003	3.9176664E-001	3.8648941E-006
3	0	1.423945977265903E+003	3.9149156E-001	3.8648941E-006
3	0	1.424445977253272E+003	3.9166847E-001	6.1121522E-005
3	0	1.424945977240641E+003	3.9166966E-001	-3.4306191E-005
3	0	1.425445977228010E+003	3.9146268E-001	3.8648941E-006
3	0	1.425945977215379E+003	3.9118624E-001	3.8648941E-006
3	0	1.426445977202748E+003	3.9087799E-001	-1.5220648E-005
3	0	1.426945977190117E+003	3.9044601E-001	1.1837815E-004
3	0	1.427445977177485E+003	3.8981676E-001	8.0207064E-005
3	0	1.427945977164854E+003	3.8934124E-001	-3.4306191E-005
3	0	1.428445977152223E+003	3.8932580E-001	-5.3391734E-005
3	0	1.428945977139592E+003	3.8914609E-001	-9.1562819E-005
3	0	1.429445977126961E+003	3.8874760E-001	-1.5220648E-005
3	0	1.429945977114330E+003	3.8833496E-001	3.8648941E-006
3	0	1.430445977101699E+003	3.8789114E-001	-1.2973390E-004
3	0	1.430945977089068E+003	3.8727042E-001	3.8648941E-006
3	0	1.431445977076437E+003	3.8654235E-001	-1.4881945E-004
3	0	1.431945977063806E+003	3.8599110E-001	8.0207064E-005
3	0	1.432445977051175E+003	3.8586783E-001	6.1121522E-005
3	0	1.432945977038544E+003	3.8563827E-001	-1.5220648E-005
3	0	1.433445977025913E+003	3.8524389E-001	-1.5220648E-005
3	0	1.433945977013282E+003	3.8478151E-001	-1.6790499E-004
3	0	1.434445977000651E+003	3.8434240E-001	2.2950437E-005
3	0	1.434945976988020E+003	3.8377932E-001	-5.3391734E-005
3	0	1.435445976975388E+003	3.8305432E-001	-3.4306191E-005
3	0	1.435945976962757E+003	3.8253129E-001	-1.1064836E-004
3	0	1.436445976950126E+003	3.8244659E-001	3.8648941E-006
3	0	1.436945976937495E+003	3.8233709E-001	-7.2477276E-005
3	0	1.437445976924864E+003	3.8216737E-001	-7.2477276E-005
3	0	1.437945976912233E+003	3.8206547E-001	-1.1064836E-004
3	0	1.438445976899602E+003	3.8201925E-001	-1.5220648E-005
3	0	1.438945976886971E+003	3.8193083E-001	-5.3391734E-005
3	0	1.439445976874340E+003	3.8177764E-001	-7.2477276E-005
3	0	1.439945976861709E+003	3.8181126E-001	-3.4306191E-005
3	0	1.440445976849078E+003	3.8221118E-001	-1.1064836E-004
3	0	1.440945976836447E+003	3.8246873E-001	-7.2477276E-005
3	0	1.441445976823816E+003	3.8258684E-001	-3.4306191E-005
3	0	1.441945976811185E+003	3.8257760E-001	-7.2477276E-005
3	0	1.442445976798554E+003	3.8252527E-001	3.8648941E-006
3	0	1.442945976785923E+003	3.8225406E-001	-1.5220648E-005
3	0	1.443445976773291E+003	3.8186285E-001	-3.4306191E-005
3	0	1.443945976760660E+003	3.8162279E-001	-1.8699054E-004
3	0	1.444445976748029E+003	3.8172829E-001	4.2035979E-005
3	0	1.444945976735398E+003	3.8172051E-001	-1.1064836E-004
3	0	1.445445976722767E+003	3.8156813E-001	-5.3391734E-005
3	0	1.445945976710136E+003	3.8134110E-001	-7.2477276E-005
3	0	1.446445976697505E+003	3.8109869E-001	-9.1562819E-005
3	0	1.446945976684874E+003	3.8067728E-001	3.8648941E-006
3	0	1.447445976672243E+003	3.8008526E-001	4.2035979E-005
3	0	1.447945976659612E+003	3.7969026E-001	6.1121522E-005
3	0	1.448445976646981E+003	3.7967843E-001	-1.5220648E-005
3	0	1.448945976634350E+003	3.7956306E-001	-5.3391734E-005
3	0	1.449445976621719E+003	3.7925744E-001	-3.4306191E-005
3	0	1.449945976609088E+003	3.7892684E-001	-3.4306191E-005
3	0	1.450445976596457E+003	3.7857687E-001	-5.3391734E-005
3	0	1.450945976583826E+003	3.7814385E-001	-5.3391734E-005
3	0	1.451445976571194E+003	3.7753403E-001	-1.1064836E-004
3	0	1.451945976558563E+003	3.7705216E-001	-5.3391734E-005
3	0	1.452445976545932E+003	3.7695658E-001	-3.4306191E-005
3	0	1.452945976533301E+003	3.7680802E-001	-5.3391734E-005
3	0	1.453445976520670E+003	3.7649941E-001	-3.4306191E-005
3	0	1.453945976508039E+003	3.7613103E-001	-1.5220648E-005
3	0	1.454445976495408E+003	3.7574956E-001	-5.3391734E-005
3	0	1.454945976482777E+003	3.7525558E-001	-3.4306191E-005
3	0	1.455445976470146E+003	3.7464851E-001	-2.6333271E-004
3	0	1.455945976457515E+003	3.7421799E-001	4.2035979E-005
3	0	1.456445976444884E+003	3.7415510E-001	-5.3391734E-005
3	0	1.456945976432253E+003	3.7407863E-001	1.1837815E-004
3	0	1.457445976419622E+003	3.7394285E-001	-3.4306191E-005
3	0	1.457945976406991E+003	3.7385389E-001	4.2035979E-005
3	0	1.458445976394360E+003	3.7381098E-001	-5.3391734E-005
3	0	1.458945976381729E+003	3.7372890E-001	2.2950437E-005
3	0	1.459445976369097E+003	3.7361601E-001	-1.5220648E-005
3	0	1.459945976356466E+003	3.7362328E-001	-1.1064836E-004
3	0	1.460445976343835E+003	3.7396643E-001	-1.1064836E-004
3	0	1.460945976331204E+003	3.7421942E-001	-1.2973390E-004
3	0	1.461445976318573E+003	3.7431246E-001	-5.3391734E-005
3	0	1.461945976305942E+003	3.7432286E-001	-5.3391734E-005
3	0	1.462445976293311E+003	3.7431186E-001	-1.5220648E-005
3	0	1.462945976280680E+003	3.7410164E-001	-1.5220648E-005
3	0	1.463445976268049E+003	3.7375885E-001	-5.3391734E-005
3	0	1.463945976255418E+003	3.7352392E-001	-7.2477276E-005
3	0	1.464445976242787E+003	3.7359756E-001	-3.4306191E-005
3	0	1.464945976230156E+003	3.7357822E-001	-1.5220648E-005
3	0	1.465445976217525E+003	3.7341788E-001	-3.4306191E-005
3	0	1.465945976204894E+003	3.7321696E-001	-9.1562819E-005
3	0	1.466445976192263E+003	3.7290913E-001	-1.2973390E-004
3	0	1.466945976179632E+003	3.7254763E-001	4.2035979E-005
3	0	1.467445976167000E+003	3.7209633E-001	-5.3391734E-005
3	0	1.467945976154369E+003	3.7177169E-001	-2.0607607E-004
3	0	1.468445976141738E+003	3.7174362E-001	-1.4881945E-004
3	0	1.468945976129107E+003	3.7165192E-001	-1.5220648E-005
3	0	1.469445976116476E+003	3.7142515E-001	3.8648941E-006
3	0	1.469945976103845E+003	3.7114707E-001	-7.2477276E-005
3	0	1.470445976091214E+003	3.7084687E-001	2.2950437E-005
3	0	1.470945976078583E+003	3.7045118E-001	-5.3391734E-005
3	0	1.471445976065952E+003	3.6995003E-001	-5.3391734E-005
3	0	1.471945976053321E+003	3.6953697E-001	-1.5220648E-005
3	0	1.472445976040690E+003	3.6944786E-001	-3.4306191E-005
3	0	1.472945976028059E+003	3.6929652E-001	-9.1562819E-005
3	0	1.473445976015428E+003	3.6902118E-001	-5.3391734E-005
3	0	1.473945976002797E+003	3.6868963E-001	-1.5220648E-005
3	0	1.474445975990166E+003	3.6834288E-001	3.8648941E-006
3	0	1.474945975977535E+003	3.6792025E-001	-9.1562819E-005
3	0	1.475445975964903E+003	3.6741087E-001	-5.3391734E-005
3	0	1.475945975952272E+003	3.6700109E-001	-5.3391734E-005
3	0	1.476445975939641E+003	3.6689830E-001	-1.5220648E-005
3	0	1.476945975927010E+003	3.6679643E-001	-9.1562819E-005
3	0	1.477445975914379E+003	3.6666396E-001	-3.4306191E-005
3	0	1.477945975901748E+003	3.6657450E-001	-1.5220648E-005
3	0	1.478445975889117E+003	3.6653659E-001	2.2950437E-005
3	0	1.478945975876486E+003	3.6642674E-001	4.2035979E-005
3	0	1.479445975863855E+003	3.6630315E-001	-5.3391734E-005
3	0	1.479945975851224E+003	3.6633772E-001	-2.4424717E-004
3	0	1.480445975838593E+003	3.6666325E-001	-1.5220648E-005
3	0	1.480945975825962E+003	3.6692467E-001	3.8648941E-006
3	0	1.481445975813331E+003	3.6704874E-001	-1.4881945E-004
3	0	1.481945975800700E+003	3.6711073E-001	-3.4306191E-005
3	0	1.482445975788069E+003	3.6711967E-001	-1.5220648E-005
3	0	1.482945975775438E+003	3.6699992E-001	-3.4306191E-005
3	0	1.483445975762806E+003	3.6669117E-001	-1.2973390E-004
3	0	1.483945975750175E+003	3.6646006E-001	6.1121522E-005
3	0	1.484445975737544E+003	3.6652735E-001	-3.4306191E-005
3	0	1.484945975724913E+003	3.6651936E-001	-3.4306191E-005
3	0	1.485445975712282E+003	3.6639529E-001	-1.4881945E-004
3	0	1.485945975699651E+003	3.6622533E-001	-9.1562819E-005
3	0	1.486445975687020E+003	3.6597842E-001	-7.2477276E-005
3	0	1.486945975674389E+003	3.6566150E-001	-7.2477276E-005
3	0	1.486946375674379E+003	3.6545077E-001	-1.1064836E-004