EC-Lab ASCII FILE
Nb header lines : 48                          

Open Circuit Voltage

Run on channel : 1 (SN 81504)
User : 
CE vs. WE compliance from -10 V to 10 V
Electrode connection : standard
Potential control : Ewe
Ewe ctrl range : min = -2.50 V, max = 2.50 V
Safety Limits :
	Do not start on E overload
Acquisition started on : 05/10/2026 05:54:37.151
Loaded Setting File :  C:\PEM-WE_measurements\2026\372_IV_IV IrOx, 5 min Pt, 30 min C, etched cathode\new station\Loopeis new\1,46 V different time gaps closed cell\Loopeis 1,46V_120s_2_PEIS from 65kHz to 10kHz.mps
Saved on :
	File : L_22_Loopeis 1,46V_120s_2_PEIS from 65kHz to 10kHz_14_OCV_C01.mpr
	Directory : C:\PEM-WE_measurements\2026\372_IV_IV IrOx, 5 min Pt, 30 min C, etched cathode\new station\Loopeis new\1,46 V different time gaps closed cell\
	Host : 192.168.0.2
Device : SP-150e (SN .005491)
Address : 192.168.0.91
EC-LAB for windows v11.71 (software)
Internet server v28.00 (firmware)
Command interpretor v14.01 (firmware)
Electrode material : 
Initial state : 
Electrolyte : 
Comments : 
Current amplifier : SP-150eB-20A
Electrode surface area : 0.001 cm²
Characteristic mass : 0.001 g
Equivalent Weight : 0.000 g/eq.
Density : 0.000 g/cm3
Volume (V) : 0.001 cm³
Record Analogic IN 1
Text export
   Mode : Standard
   Time format : Elapsed
Cycle Definition : Charge/Discharge alternance
tR (h:m:s)          0:02:0.0000         
dER/dt (mV/h)       1.0                 
record              <Ewe>               
dER (mV)            10.00               
dtR (s)             0.5000              
E range min (V)     -2.500              
E range max (V)     2.500               

mode	error	time/s	<Ewe/V>	Analog IN 1/V	
3	0	1.035708183673123E+003	1.2916616E+000	-1.5220648E-005
3	0	1.036208183660492E+003	1.2984236E+000	-3.4306191E-005
3	0	1.036708183647861E+003	1.2952452E+000	-5.3391734E-005
3	0	1.037208183635230E+003	1.2869318E+000	2.2950437E-005
3	0	1.037708183622599E+003	1.2719573E+000	8.0207064E-005
3	0	1.038208183609968E+003	1.2477646E+000	-2.0607607E-004
3	0	1.038708183597337E+003	1.2096641E+000	-9.1562819E-005
3	0	1.039208183584706E+003	1.1453315E+000	-1.1064836E-004
3	0	1.039708183572075E+003	9.9064147E-001	-1.1064836E-004
3	0	1.040208183559444E+003	6.3509405E-001	2.2950437E-005
3	0	1.040708183546813E+003	4.8117682E-001	2.2950437E-005
3	0	1.041208183534181E+003	4.3139872E-001	-3.4306191E-005
3	0	1.041708183521550E+003	4.1641647E-001	-1.5220648E-005
3	0	1.042208183508919E+003	4.1087639E-001	-7.2477276E-005
3	0	1.042708183496288E+003	4.0757379E-001	-3.4306191E-005
3	0	1.043208183483657E+003	4.0487307E-001	-1.1064836E-004
3	0	1.043708183471026E+003	4.0244308E-001	-5.3391734E-005
3	0	1.044208183458395E+003	4.0062696E-001	3.8648941E-006
3	0	1.044708183445764E+003	3.9976791E-001	8.0207064E-005
3	0	1.045208183433133E+003	3.9891821E-001	-1.2973390E-004
3	0	1.045708183420502E+003	3.9807260E-001	3.8648941E-006
3	0	1.046208183407871E+003	3.9736468E-001	-1.5220648E-005
3	0	1.046708183395240E+003	3.9671579E-001	3.8648941E-006
3	0	1.047208183382609E+003	3.9585340E-001	6.1121522E-005
3	0	1.047708183369978E+003	3.9499381E-001	3.8648941E-006
3	0	1.048208183357347E+003	3.9451823E-001	-1.4881945E-004
3	0	1.048708183344716E+003	3.9466038E-001	2.2950437E-005
3	0	1.049208183332084E+003	3.9462560E-001	4.2035979E-005
3	0	1.049708183319453E+003	3.9447781E-001	-9.1562819E-005
3	0	1.050208183306822E+003	3.9428502E-001	3.8648941E-006
3	0	1.050708183294191E+003	3.9409339E-001	3.8648941E-006
3	0	1.051208183281560E+003	3.9379847E-001	-3.4306191E-005
3	0	1.051708183268929E+003	3.9327386E-001	-1.5220648E-005
3	0	1.052208183256298E+003	3.9302829E-001	-7.2477276E-005
3	0	1.052708183243667E+003	3.9333591E-001	3.8648941E-006
3	0	1.053208183231036E+003	3.9351031E-001	4.2035979E-005
3	0	1.053708183218405E+003	3.9358681E-001	-1.5220648E-005
3	0	1.054208183205774E+003	3.9361456E-001	4.2035979E-005
3	0	1.054708183193143E+003	3.9369133E-001	-5.3391734E-005
3	0	1.055208183180512E+003	3.9372551E-001	-1.1064836E-004
3	0	1.055708183167881E+003	3.9375436E-001	6.1121522E-005
3	0	1.056208183155250E+003	3.9410359E-001	-1.5220648E-005
3	0	1.056708183142619E+003	3.9511266E-001	-1.5220648E-005
3	0	1.057208183129987E+003	3.9606255E-001	-1.2973390E-004
3	0	1.057708183117356E+003	3.9685929E-001	-1.5220648E-005
3	0	1.058208183104725E+003	3.9755583E-001	1.3746369E-004
3	0	1.058708183092094E+003	3.9816940E-001	3.8648941E-006
3	0	1.059208183079463E+003	3.9854446E-001	-7.2477276E-005
3	0	1.059708183066832E+003	3.9863801E-001	-2.0607607E-004
3	0	1.060208183054201E+003	3.9891395E-001	-9.1562819E-005
3	0	1.060708183041570E+003	3.9967072E-001	-5.3391734E-005
3	0	1.061208183028939E+003	4.0024412E-001	-5.3391734E-005
3	0	1.061708183016308E+003	4.0064830E-001	-5.3391734E-005
3	0	1.062208183003677E+003	4.0090334E-001	6.1121522E-005
3	0	1.062708182991046E+003	4.0108454E-001	6.1121522E-005
3	0	1.063208182978415E+003	4.0103740E-001	-1.1064836E-004
3	0	1.063708182965784E+003	4.0074670E-001	-9.1562819E-005
3	0	1.064208182953153E+003	4.0064362E-001	-1.6790499E-004
3	0	1.064708182940522E+003	4.0105706E-001	-3.4306191E-005
3	0	1.065208182927890E+003	4.0129876E-001	-7.2477276E-005
3	0	1.065708182915259E+003	4.0134889E-001	-1.1064836E-004
3	0	1.066208182902628E+003	4.0125850E-001	3.8648941E-006
3	0	1.066708182889997E+003	4.0113655E-001	6.1121522E-005
3	0	1.067208182877366E+003	4.0087187E-001	3.8648941E-006
3	0	1.067708182864735E+003	4.0034479E-001	-7.2477276E-005
3	0	1.068208182852104E+003	4.0001166E-001	-1.8699054E-004
3	0	1.068708182839473E+003	4.0020627E-001	-1.8699054E-004
3	0	1.069208182826842E+003	4.0024230E-001	-1.6790499E-004
3	0	1.069708182814211E+003	4.0012246E-001	2.2950437E-005
3	0	1.070208182801580E+003	3.9988589E-001	-1.2973390E-004
3	0	1.070708182788949E+003	3.9956149E-001	2.2950437E-005
3	0	1.071208182776318E+003	3.9904580E-001	-3.4306191E-005
3	0	1.071708182763687E+003	3.9838210E-001	3.8648941E-006
3	0	1.072208182751056E+003	3.9791498E-001	-2.0607607E-004
3	0	1.072708182738425E+003	3.9794815E-001	-9.1562819E-005
3	0	1.073208182725793E+003	3.9787555E-001	-3.4306191E-005
3	0	1.073708182713162E+003	3.9769164E-001	-1.6790499E-004
3	0	1.074208182700531E+003	3.9741459E-001	-3.4306191E-005
3	0	1.074708182687900E+003	3.9720812E-001	2.2950437E-005
3	0	1.075208182675269E+003	3.9689758E-001	-1.5220648E-005
3	0	1.075708182662638E+003	3.9650226E-001	-5.3391734E-005
3	0	1.076208182650007E+003	3.9646631E-001	-5.3391734E-005
3	0	1.076708182637376E+003	3.9701784E-001	2.2950437E-005
3	0	1.077208182624745E+003	3.9753881E-001	-9.1562819E-005
3	0	1.077708182612114E+003	3.9796874E-001	2.2950437E-005
3	0	1.078208182599483E+003	3.9827058E-001	-1.2973390E-004
3	0	1.078708182586852E+003	3.9848953E-001	-7.2477276E-005
3	0	1.079208182574221E+003	3.9850253E-001	-7.2477276E-005
3	0	1.079708182561590E+003	3.9831972E-001	-1.5220648E-005
3	0	1.080208182548959E+003	3.9826903E-001	-7.2477276E-005
3	0	1.080708182536328E+003	3.9865080E-001	-7.2477276E-005
3	0	1.081208182523696E+003	3.9889187E-001	-1.1064836E-004
3	0	1.081708182511065E+003	3.9897379E-001	-5.3391734E-005
3	0	1.082208182498434E+003	3.9890426E-001	-1.5220648E-005
3	0	1.082708182485803E+003	3.9877716E-001	3.8648941E-006
3	0	1.083208182473172E+003	3.9850563E-001	3.8648941E-006
3	0	1.083708182460541E+003	3.9798087E-001	-1.5220648E-005
3	0	1.084208182447910E+003	3.9765942E-001	4.2035979E-005
3	0	1.084708182435279E+003	3.9778912E-001	-1.5220648E-005
3	0	1.085208182422648E+003	3.9775321E-001	4.2035979E-005
3	0	1.085708182410017E+003	3.9759997E-001	-5.3391734E-005
3	0	1.086208182397386E+003	3.9732757E-001	-9.1562819E-005
3	0	1.086708182384755E+003	3.9702272E-001	-2.0607607E-004
3	0	1.087208182372124E+003	3.9655289E-001	-1.6790499E-004
3	0	1.087708182359493E+003	3.9590260E-001	-1.1064836E-004
3	0	1.088208182346862E+003	3.9540318E-001	-1.1064836E-004
3	0	1.088708182334231E+003	3.9534372E-001	-1.1064836E-004
3	0	1.089208182321599E+003	3.9515990E-001	3.8648941E-006
3	0	1.089708182308968E+003	3.9485851E-001	-3.4306191E-005
3	0	1.090208182296337E+003	3.9447185E-001	-1.2973390E-004
3	0	1.090708182283706E+003	3.9405739E-001	2.2950437E-005
3	0	1.091208182271075E+003	3.9349663E-001	-1.2973390E-004
3	0	1.091708182258444E+003	3.9276433E-001	-3.4306191E-005
3	0	1.092208182245813E+003	3.9217904E-001	-9.1562819E-005
3	0	1.092708182233182E+003	3.9204228E-001	-5.3391734E-005
3	0	1.093208182220551E+003	3.9182845E-001	3.8648941E-006
3	0	1.093708182207920E+003	3.9149815E-001	-5.3391734E-005
3	0	1.094208182195289E+003	3.9112827E-001	-3.4306191E-005
3	0	1.094708182182658E+003	3.9079085E-001	2.2950437E-005
3	0	1.095208182170027E+003	3.9038089E-001	-7.2477276E-005
3	0	1.095708182157396E+003	3.8993564E-001	3.8648941E-006
3	0	1.096208182144765E+003	3.8978055E-001	-1.4881945E-004
3	0	1.096708182132134E+003	3.9008662E-001	-1.5220648E-005
3	0	1.097208182119502E+003	3.9039889E-001	-1.1064836E-004
3	0	1.097708182106871E+003	3.9068341E-001	-9.1562819E-005
3	0	1.098208182094240E+003	3.9089522E-001	-3.4306191E-005
3	0	1.098708182081609E+003	3.9108849E-001	3.8648941E-006
3	0	1.099208182068978E+003	3.9102709E-001	-3.4306191E-005
3	0	1.099708182056347E+003	3.9079508E-001	-7.2477276E-005
3	0	1.100208182043716E+003	3.9071575E-001	-1.5220648E-005
3	0	1.100708182031085E+003	3.9095810E-001	-3.4306191E-005
3	0	1.101208182018454E+003	3.9112833E-001	8.0207064E-005
3	0	1.101708182005823E+003	3.9115599E-001	-9.1562819E-005
3	0	1.102208181993192E+003	3.9102894E-001	1.3746369E-004
3	0	1.102708181980561E+003	3.9081249E-001	2.2950437E-005
3	0	1.103208181967930E+003	3.9049065E-001	8.0207064E-005
3	0	1.103708181955299E+003	3.9000914E-001	-7.2477276E-005
3	0	1.104208181942668E+003	3.8966000E-001	4.2035979E-005
3	0	1.104708181930037E+003	3.8966516E-001	8.0207064E-005
3	0	1.105208181917405E+003	3.8957816E-001	-5.3391734E-005
3	0	1.105708181904774E+003	3.8939428E-001	-1.1064836E-004
3	0	1.106208181892143E+003	3.8906273E-001	4.2035979E-005
3	0	1.106708181879512E+003	3.8872501E-001	3.8648941E-006
3	0	1.107208181866881E+003	3.8823244E-001	-5.3391734E-005
3	0	1.107708181854250E+003	3.8765392E-001	6.1121522E-005
3	0	1.108208181841619E+003	3.8717726E-001	4.2035979E-005
3	0	1.108708181828988E+003	3.8706854E-001	-1.8699054E-004
3	0	1.109208181816357E+003	3.8689116E-001	6.1121522E-005
3	0	1.109708181803726E+003	3.8661900E-001	2.2950437E-005
3	0	1.110208181791095E+003	3.8627774E-001	-1.1064836E-004
3	0	1.110708181778464E+003	3.8590410E-001	-7.2477276E-005
3	0	1.111208181765833E+003	3.8539022E-001	-1.2973390E-004
3	0	1.111708181753202E+003	3.8470528E-001	-3.4306191E-005
3	0	1.112208181740571E+003	3.8421416E-001	-3.4306191E-005
3	0	1.112708181727940E+003	3.8408121E-001	-7.2477276E-005
3	0	1.113208181715308E+003	3.8388532E-001	-3.4306191E-005
3	0	1.113708181702677E+003	3.8358369E-001	-9.1562819E-005
3	0	1.114208181690046E+003	3.8321167E-001	-2.0607607E-004
3	0	1.114708181677415E+003	3.8286576E-001	-1.4881945E-004
3	0	1.115208181664784E+003	3.8246736E-001	8.0207064E-005
3	0	1.115708181652153E+003	3.8204250E-001	-1.4881945E-004
3	0	1.116208181639522E+003	3.8182396E-001	-1.5220648E-005
3	0	1.116708181626891E+003	3.8204759E-001	-3.4306191E-005
3	0	1.117208181614260E+003	3.8227737E-001	-1.8699054E-004
3	0	1.117708181601629E+003	3.8250241E-001	-1.4881945E-004
3	0	1.118208181588998E+003	3.8264662E-001	3.8648941E-006
3	0	1.118708181576367E+003	3.8274139E-001	-1.5220648E-005
3	0	1.119208181563736E+003	3.8266927E-001	-1.5220648E-005
3	0	1.119708181551105E+003	3.8242501E-001	-1.2973390E-004
3	0	1.120208181538474E+003	3.8233429E-001	3.8648941E-006
3	0	1.120708181525843E+003	3.8253638E-001	-1.2973390E-004
3	0	1.121208181513211E+003	3.8264370E-001	6.1121522E-005
3	0	1.121708181500580E+003	3.8262960E-001	-5.3391734E-005
3	0	1.122208181487949E+003	3.8251117E-001	-3.4306191E-005
3	0	1.122708181475318E+003	3.8234687E-001	-1.5220648E-005
3	0	1.123208181462687E+003	3.8203952E-001	-1.2973390E-004
3	0	1.123708181450056E+003	3.8158759E-001	-1.1064836E-004
3	0	1.124208181437425E+003	3.8125649E-001	9.9292607E-005
3	0	1.124708181424794E+003	3.8123673E-001	9.9292607E-005
3	0	1.125208181412163E+003	3.8114351E-001	4.2035979E-005
3	0	1.125708181399532E+003	3.8097066E-001	2.2950437E-005
3	0	1.126208181386901E+003	3.8067555E-001	-7.2477276E-005
3	0	1.126708181374270E+003	3.8035294E-001	2.2950437E-005
3	0	1.127208181361639E+003	3.7991294E-001	3.8648941E-006
3	0	1.127708181349008E+003	3.7935233E-001	-7.2477276E-005
3	0	1.128208181336377E+003	3.7890828E-001	-9.1562819E-005
3	0	1.128708181323746E+003	3.7879428E-001	3.8648941E-006
3	0	1.129208181311114E+003	3.7862241E-001	-9.1562819E-005
3	0	1.129708181298483E+003	3.7838739E-001	2.2950437E-005
3	0	1.130208181285852E+003	3.7804222E-001	-1.4881945E-004
3	0	1.130708181273221E+003	3.7767041E-001	-1.5220648E-005
3	0	1.131208181260590E+003	3.7717193E-001	-1.2973390E-004
3	0	1.131708181247959E+003	3.7657899E-001	-1.5220648E-005
3	0	1.132208181235328E+003	3.7611654E-001	-9.1562819E-005
3	0	1.132708181222697E+003	3.7596092E-001	6.1121522E-005
3	0	1.133208181210066E+003	3.7578467E-001	-5.3391734E-005
3	0	1.133708181197435E+003	3.7554100E-001	-1.6790499E-004
3	0	1.134208181184804E+003	3.7522411E-001	-5.3391734E-005
3	0	1.134708181172173E+003	3.7490603E-001	1.3746369E-004
3	0	1.135208181159542E+003	3.7457079E-001	-1.2973390E-004
3	0	1.135708181146911E+003	3.7419412E-001	-3.4306191E-005
3	0	1.136208181134280E+003	3.7401634E-001	-2.6333271E-004
3	0	1.136708181121649E+003	3.7418649E-001	8.0207064E-005
3	0	1.137208181109017E+003	3.7437421E-001	-1.1064836E-004
3	0	1.137708181096386E+003	3.7456146E-001	-7.2477276E-005
3	0	1.138208181083755E+003	3.7469405E-001	-3.4306191E-005
3	0	1.138708181071124E+003	3.7483341E-001	-3.4306191E-005
3	0	1.139208181058493E+003	3.7481198E-001	-1.6790499E-004
3	0	1.139708181045862E+003	3.7466583E-001	-3.4306191E-005
3	0	1.140208181033231E+003	3.7459752E-001	-7.2477276E-005
3	0	1.140708181020600E+003	3.7478200E-001	-1.5220648E-005
3	0	1.141208181007969E+003	3.7490115E-001	-3.4306191E-005
3	0	1.141708180995338E+003	3.7493134E-001	3.8648941E-006
3	0	1.142208180982707E+003	3.7482083E-001	-3.4306191E-005
3	0	1.142708180970076E+003	3.7467590E-001	-9.1562819E-005
3	0	1.143208180957445E+003	3.7439746E-001	-3.4306191E-005
3	0	1.143708180944814E+003	3.7400824E-001	-9.1562819E-005
3	0	1.144208180932183E+003	3.7371346E-001	-1.2973390E-004
3	0	1.144708180919552E+003	3.7368605E-001	-1.5220648E-005
3	0	1.145208180906920E+003	3.7359694E-001	-2.0607607E-004
3	0	1.145708180894289E+003	3.7344274E-001	-9.1562819E-005
3	0	1.146208180881658E+003	3.7319323E-001	-1.4881945E-004
3	0	1.146708180869027E+003	3.7292421E-001	2.2950437E-005
3	0	1.147208180856396E+003	3.7254697E-001	-1.5220648E-005
3	0	1.147708180843765E+003	3.7205762E-001	6.1121522E-005
3	0	1.148208180831134E+003	3.7166727E-001	-1.4881945E-004
3	0	1.148708180818503E+003	3.7155384E-001	6.1121522E-005
3	0	1.149208180805872E+003	3.7140262E-001	-1.5220648E-005
3	0	1.149708180793241E+003	3.7120152E-001	-1.6790499E-004
3	0	1.150208180780610E+003	3.7088835E-001	-1.1064836E-004
3	0	1.150708180767979E+003	3.7055331E-001	2.2950437E-005
3	0	1.151208180755348E+003	3.7012002E-001	3.8648941E-006
3	0	1.151708180742717E+003	3.6957198E-001	6.1121522E-005
3	0	1.152208180730086E+003	3.6911559E-001	-1.5220648E-005
3	0	1.152708180717455E+003	3.6895922E-001	3.8648941E-006
3	0	1.153208180704823E+003	3.6878189E-001	-3.4306191E-005
3	0	1.153708180692192E+003	3.6858115E-001	3.8648941E-006
3	0	1.154208180679561E+003	3.6829862E-001	-1.4881945E-004
3	0	1.154708180666930E+003	3.6800656E-001	-5.3391734E-005
3	0	1.155208180654299E+003	3.6765188E-001	-7.2477276E-005
3	0	1.155208580654289E+003	3.6750227E-001	-9.1562819E-005