EC-Lab ASCII FILE
Nb header lines : 48                          

Open Circuit Voltage

Run on channel : 1 (SN 81504)
User : 
CE vs. WE compliance from -10 V to 10 V
Electrode connection : standard
Potential control : Ewe
Ewe ctrl range : min = -2.50 V, max = 2.50 V
Safety Limits :
	Do not start on E overload
Acquisition started on : 05/10/2026 05:54:37.151
Loaded Setting File :  C:\PEM-WE_measurements\2026\372_IV_IV IrOx, 5 min Pt, 30 min C, etched cathode\new station\Loopeis new\1,46 V different time gaps closed cell\Loopeis 1,46V_120s_2_PEIS from 65kHz to 10kHz.mps
Saved on :
	File : L_22_Loopeis 1,46V_120s_2_PEIS from 65kHz to 10kHz_20_OCV_C01.mpr
	Directory : C:\PEM-WE_measurements\2026\372_IV_IV IrOx, 5 min Pt, 30 min C, etched cathode\new station\Loopeis new\1,46 V different time gaps closed cell\
	Host : 192.168.0.2
Device : SP-150e (SN .005491)
Address : 192.168.0.91
EC-LAB for windows v11.71 (software)
Internet server v28.00 (firmware)
Command interpretor v14.01 (firmware)
Electrode material : 
Initial state : 
Electrolyte : 
Comments : 
Current amplifier : SP-150eB-20A
Electrode surface area : 0.001 cm²
Characteristic mass : 0.001 g
Equivalent Weight : 0.000 g/eq.
Density : 0.000 g/cm3
Volume (V) : 0.001 cm³
Record Analogic IN 1
Text export
   Mode : Standard
   Time format : Elapsed
Cycle Definition : Charge/Discharge alternance
tR (h:m:s)          0:02:0.0000         
dER/dt (mV/h)       1.0                 
record              <Ewe>               
dER (mV)            10.00               
dtR (s)             0.5000              
E range min (V)     -2.500              
E range max (V)     2.500               

mode	error	time/s	<Ewe/V>	Analog IN 1/V	
3	0	1.534162177883118E+003	1.1207618E+000	-5.3391734E-005
3	0	1.534662177870487E+003	1.2587860E+000	-7.2477276E-005
3	0	1.535162177857856E+003	1.2560692E+000	-7.2477276E-005
3	0	1.535662177845225E+003	1.2470793E+000	-3.4306191E-005
3	0	1.536162177832593E+003	1.2296880E+000	-1.2973390E-004
3	0	1.536662177819962E+003	1.2000678E+000	-9.1562819E-005
3	0	1.537162177807331E+003	1.1507527E+000	-9.1562819E-005
3	0	1.537662177794700E+003	1.0597705E+000	-3.4306191E-005
3	0	1.538162177782069E+003	8.0577415E-001	-9.1562819E-005
3	0	1.538662177769438E+003	5.2941447E-001	-1.2973390E-004
3	0	1.539162177756807E+003	4.2365158E-001	6.1121522E-005
3	0	1.539662177744176E+003	3.8916618E-001	3.8648941E-006
3	0	1.540162177731545E+003	3.8070074E-001	-1.6790499E-004
3	0	1.540662177718914E+003	3.7815633E-001	-1.2973390E-004
3	0	1.541162177706283E+003	3.7640750E-001	-5.3391734E-005
3	0	1.541662177693652E+003	3.7475944E-001	-1.5220648E-005
3	0	1.542162177681021E+003	3.7336874E-001	3.8648941E-006
3	0	1.542662177668390E+003	3.7191024E-001	-7.2477276E-005
3	0	1.543162177655759E+003	3.7053427E-001	-1.5220648E-005
3	0	1.543662177643128E+003	3.6956561E-001	-5.3391734E-005
3	0	1.544162177630496E+003	3.6958221E-001	-1.1064836E-004
3	0	1.544662177617865E+003	3.6948237E-001	-7.2477276E-005
3	0	1.545162177605234E+003	3.6926383E-001	-3.4306191E-005
3	0	1.545662177592603E+003	3.6901459E-001	-1.5220648E-005
3	0	1.546162177579972E+003	3.6882886E-001	-5.3391734E-005
3	0	1.546662177567341E+003	3.6846209E-001	9.9292607E-005
3	0	1.547162177554710E+003	3.6798984E-001	-1.1064836E-004
3	0	1.547662177542079E+003	3.6782613E-001	-1.5220648E-005
3	0	1.548162177529448E+003	3.6827919E-001	-1.5220648E-005
3	0	1.548662177516817E+003	3.6855957E-001	-9.1562819E-005
3	0	1.549162177504186E+003	3.6862180E-001	-5.3391734E-005
3	0	1.549662177491555E+003	3.6859611E-001	-9.1562819E-005
3	0	1.550162177478924E+003	3.6853501E-001	-1.2973390E-004
3	0	1.550662177466293E+003	3.6832491E-001	4.2035979E-005
3	0	1.551162177453662E+003	3.6798140E-001	-3.4306191E-005
3	0	1.551662177441031E+003	3.6790824E-001	-9.1562819E-005
3	0	1.552162177428399E+003	3.6838752E-001	4.2035979E-005
3	0	1.552662177415768E+003	3.6866340E-001	9.9292607E-005
3	0	1.553162177403137E+003	3.6875129E-001	3.8648941E-006
3	0	1.553662177390506E+003	3.6875293E-001	2.2950437E-005
3	0	1.554162177377875E+003	3.6873862E-001	-3.4306191E-005
3	0	1.554662177365244E+003	3.6863163E-001	4.2035979E-005
3	0	1.555162177352613E+003	3.6828709E-001	4.2035979E-005
3	0	1.555662177339982E+003	3.6820513E-001	-1.2973390E-004
3	0	1.556162177327351E+003	3.6866558E-001	-9.1562819E-005
3	0	1.556662177314720E+003	3.6901063E-001	-5.3391734E-005
3	0	1.557162177302089E+003	3.6922067E-001	3.8648941E-006
3	0	1.557662177289458E+003	3.6939907E-001	-5.3391734E-005
3	0	1.558162177276827E+003	3.6972699E-001	6.1121522E-005
3	0	1.558662177264196E+003	3.6996567E-001	3.8648941E-006
3	0	1.559162177251565E+003	3.7015772E-001	-3.4306191E-005
3	0	1.559662177238934E+003	3.7063739E-001	-1.6790499E-004
3	0	1.560162177226302E+003	3.7172863E-001	3.8648941E-006
3	0	1.560662177213671E+003	3.7265912E-001	-1.5220648E-005
3	0	1.561162177201040E+003	3.7337500E-001	2.2950437E-005
3	0	1.561662177188409E+003	3.7394398E-001	-9.1562819E-005
3	0	1.562162177175778E+003	3.7440395E-001	-1.5220648E-005
3	0	1.562662177163147E+003	3.7467748E-001	-1.5220648E-005
3	0	1.563162177150516E+003	3.7468484E-001	8.0207064E-005
3	0	1.563662177137885E+003	3.7488228E-001	-5.3391734E-005
3	0	1.564162177125254E+003	3.7558922E-001	-3.4306191E-005
3	0	1.564662177112623E+003	3.7613547E-001	6.1121522E-005
3	0	1.565162177099992E+003	3.7644297E-001	-1.5220648E-005
3	0	1.565662177087361E+003	3.7659007E-001	-1.5220648E-005
3	0	1.566162177074730E+003	3.7670037E-001	-1.4881945E-004
3	0	1.566662177062099E+003	3.7663358E-001	-7.2477276E-005
3	0	1.567162177049468E+003	3.7632439E-001	8.0207064E-005
3	0	1.567662177036837E+003	3.7615389E-001	8.0207064E-005
3	0	1.568162177024205E+003	3.7651917E-001	-7.2477276E-005
3	0	1.568662177011574E+003	3.7667739E-001	-1.6790499E-004
3	0	1.569162176998943E+003	3.7663016E-001	3.8648941E-006
3	0	1.569662176986312E+003	3.7650150E-001	3.8648941E-006
3	0	1.570162176973681E+003	3.7632340E-001	6.1121522E-005
3	0	1.570662176961050E+003	3.7592086E-001	-1.2973390E-004
3	0	1.571162176948419E+003	3.7535766E-001	4.2035979E-005
3	0	1.571662176935788E+003	3.7496617E-001	2.2950437E-005
3	0	1.572162176923157E+003	3.7510684E-001	-3.4306191E-005
3	0	1.572662176910526E+003	3.7508214E-001	-7.2477276E-005
3	0	1.573162176897895E+003	3.7486342E-001	-9.1562819E-005
3	0	1.573662176885264E+003	3.7456831E-001	-1.5220648E-005
3	0	1.574162176872633E+003	3.7419245E-001	-1.5220648E-005
3	0	1.574662176860002E+003	3.7369686E-001	-5.3391734E-005
3	0	1.575162176847371E+003	3.7300241E-001	3.8648941E-006
3	0	1.575662176834740E+003	3.7250298E-001	-1.5220648E-005
3	0	1.576162176822108E+003	3.7253517E-001	-3.4306191E-005
3	0	1.576662176809477E+003	3.7241116E-001	2.2950437E-005
3	0	1.577162176796846E+003	3.7216145E-001	-1.1064836E-004
3	0	1.577662176784215E+003	3.7204844E-001	-1.5220648E-005
3	0	1.578162176771584E+003	3.7198389E-001	-5.3391734E-005
3	0	1.578662176758953E+003	3.7190014E-001	-1.1064836E-004
3	0	1.579162176746322E+003	3.7172458E-001	-1.4881945E-004
3	0	1.579662176733691E+003	3.7187704E-001	-3.4306191E-005
3	0	1.580162176721060E+003	3.7257153E-001	-7.2477276E-005
3	0	1.580662176708429E+003	3.7311488E-001	-2.0607607E-004
3	0	1.581162176695798E+003	3.7349349E-001	-5.3391734E-005
3	0	1.581662176683167E+003	3.7379989E-001	-7.2477276E-005
3	0	1.582162176670536E+003	3.7397161E-001	-1.1064836E-004
3	0	1.582662176657905E+003	3.7396020E-001	4.2035979E-005
3	0	1.583162176645274E+003	3.7376112E-001	-1.6790499E-004
3	0	1.583662176632643E+003	3.7366369E-001	3.8648941E-006
3	0	1.584162176620011E+003	3.7401032E-001	3.8648941E-006
3	0	1.584662176607380E+003	3.7420595E-001	-1.8699054E-004
3	0	1.585162176594749E+003	3.7415105E-001	-1.2973390E-004
3	0	1.585662176582118E+003	3.7397614E-001	-1.4881945E-004
3	0	1.586162176569487E+003	3.7376490E-001	-7.2477276E-005
3	0	1.586662176556856E+003	3.7339106E-001	-1.8699054E-004
3	0	1.587162176544225E+003	3.7285426E-001	-1.8699054E-004
3	0	1.587662176531594E+003	3.7249616E-001	-1.5220648E-005
3	0	1.588162176518963E+003	3.7256747E-001	-1.1064836E-004
3	0	1.588662176506332E+003	3.7246451E-001	-3.4306191E-005
3	0	1.589162176493701E+003	3.7217522E-001	-9.1562819E-005
3	0	1.589662176481070E+003	3.7183914E-001	-9.1562819E-005
3	0	1.590162176468439E+003	3.7145901E-001	-1.5220648E-005
3	0	1.590662176455808E+003	3.7094954E-001	-1.2973390E-004
3	0	1.591162176443177E+003	3.7019965E-001	-1.5220648E-005
3	0	1.591662176430546E+003	3.6965799E-001	-5.3391734E-005
3	0	1.592162176417914E+003	3.6960399E-001	-5.3391734E-005
3	0	1.592662176405283E+003	3.6938617E-001	-1.2973390E-004
3	0	1.593162176392652E+003	3.6898747E-001	-9.1562819E-005
3	0	1.593662176380021E+003	3.6851296E-001	-7.2477276E-005
3	0	1.594162176367390E+003	3.6801091E-001	-2.0607607E-004
3	0	1.594662176354759E+003	3.6740497E-001	3.8648941E-006
3	0	1.595162176342128E+003	3.6669886E-001	3.8648941E-006
3	0	1.595662176329497E+003	3.6615482E-001	-5.3391734E-005
3	0	1.596162176316866E+003	3.6604437E-001	4.2035979E-005
3	0	1.596662176304235E+003	3.6583754E-001	2.2950437E-005
3	0	1.597162176291604E+003	3.6552438E-001	9.9292607E-005
3	0	1.597662176278973E+003	3.6523378E-001	-2.2516162E-004
3	0	1.598162176266342E+003	3.6502540E-001	-3.4306191E-005
3	0	1.598662176253711E+003	3.6477777E-001	2.2950437E-005
3	0	1.599162176241080E+003	3.6447123E-001	-3.4306191E-005
3	0	1.599662176228449E+003	3.6448026E-001	3.8648941E-006
3	0	1.600162176215817E+003	3.6498895E-001	-1.6790499E-004
3	0	1.600662176203186E+003	3.6538824E-001	-5.3391734E-005
3	0	1.601162176190555E+003	3.6566180E-001	-5.3391734E-005
3	0	1.601662176177924E+003	3.6580637E-001	-1.2973390E-004
3	0	1.602162176165293E+003	3.6593810E-001	2.2950437E-005
3	0	1.602662176152662E+003	3.6583373E-001	-1.2973390E-004
3	0	1.603162176140031E+003	3.6554962E-001	-1.1064836E-004
3	0	1.603662176127400E+003	3.6538967E-001	6.1121522E-005
3	0	1.604162176114769E+003	3.6559108E-001	-1.5220648E-005
3	0	1.604662176102138E+003	3.6565304E-001	-1.1064836E-004
3	0	1.605162176089507E+003	3.6555919E-001	-3.4306191E-005
3	0	1.605662176076876E+003	3.6536947E-001	-7.2477276E-005
3	0	1.606162176064245E+003	3.6516583E-001	-7.2477276E-005
3	0	1.606662176051614E+003	3.6485139E-001	-3.4306191E-005
3	0	1.607162176038983E+003	3.6433512E-001	3.8648941E-006
3	0	1.607662176026352E+003	3.6394137E-001	-9.1562819E-005
3	0	1.608162176013720E+003	3.6392936E-001	-3.4306191E-005
3	0	1.608662176001089E+003	3.6378416E-001	-1.2973390E-004
3	0	1.609162175988458E+003	3.6346671E-001	-5.3391734E-005
3	0	1.609662175975827E+003	3.6309367E-001	-1.4881945E-004
3	0	1.610162175963196E+003	3.6269659E-001	8.0207064E-005
3	0	1.610662175950565E+003	3.6217061E-001	-1.5220648E-005
3	0	1.611162175937934E+003	3.6148033E-001	-7.2477276E-005
3	0	1.611662175925303E+003	3.6094844E-001	-7.2477276E-005
3	0	1.612162175912672E+003	3.6081722E-001	-1.6790499E-004
3	0	1.612662175900041E+003	3.6060244E-001	-2.6333271E-004
3	0	1.613162175887410E+003	3.6027220E-001	3.8648941E-006
3	0	1.613662175874779E+003	3.5985431E-001	-9.1562819E-005
3	0	1.614162175862148E+003	3.5946411E-001	-1.1064836E-004
3	0	1.614662175849517E+003	3.5894591E-001	-7.2477276E-005
3	0	1.615162175836886E+003	3.5827461E-001	-1.5220648E-005
3	0	1.615662175824255E+003	3.5775921E-001	9.9292607E-005
3	0	1.616162175811623E+003	3.5761437E-001	-1.4881945E-004
3	0	1.616662175798992E+003	3.5738677E-001	4.2035979E-005
3	0	1.617162175786361E+003	3.5710031E-001	-9.1562819E-005
3	0	1.617662175773730E+003	3.5678250E-001	-5.3391734E-005
3	0	1.618162175761099E+003	3.5658374E-001	-1.4881945E-004
3	0	1.618662175748468E+003	3.5635662E-001	-1.6790499E-004
3	0	1.619162175735837E+003	3.5609964E-001	3.8648941E-006
3	0	1.619662175723206E+003	3.5602668E-001	-1.5220648E-005
3	0	1.620162175710575E+003	3.5639280E-001	-1.5220648E-005
3	0	1.620662175697944E+003	3.5673544E-001	2.2950437E-005
3	0	1.621162175685313E+003	3.5695365E-001	-9.1562819E-005
3	0	1.621662175672682E+003	3.5710606E-001	2.2950437E-005
3	0	1.622162175660051E+003	3.5718384E-001	-7.2477276E-005
3	0	1.622662175647420E+003	3.5708719E-001	4.2035979E-005
3	0	1.623162175634789E+003	3.5684729E-001	-9.1562819E-005
3	0	1.623662175622158E+003	3.5673612E-001	-1.5220648E-005
3	0	1.624162175609526E+003	3.5691738E-001	-1.1064836E-004
3	0	1.624662175596895E+003	3.5696712E-001	-1.1064836E-004
3	0	1.625162175584264E+003	3.5688046E-001	-9.1562819E-005
3	0	1.625662175571633E+003	3.5670260E-001	-7.2477276E-005
3	0	1.626162175559002E+003	3.5649705E-001	2.2950437E-005
3	0	1.626662175546371E+003	3.5619661E-001	-1.5220648E-005
3	0	1.627162175533740E+003	3.5570481E-001	2.2950437E-005
3	0	1.627662175521109E+003	3.5533059E-001	-3.4306191E-005
3	0	1.628162175508478E+003	3.5529190E-001	-5.3391734E-005
3	0	1.628662175495847E+003	3.5514891E-001	-1.2973390E-004
3	0	1.629162175483216E+003	3.5488939E-001	-9.1562819E-005
3	0	1.629662175470585E+003	3.5454422E-001	-1.2973390E-004
3	0	1.630162175457954E+003	3.5420549E-001	-9.1562819E-005
3	0	1.630662175445323E+003	3.5374507E-001	-1.2973390E-004
3	0	1.631162175432692E+003	3.5317799E-001	-1.2973390E-004
3	0	1.631662175420061E+003	3.5271311E-001	-7.2477276E-005
3	0	1.632162175407429E+003	3.5258976E-001	3.8648941E-006
3	0	1.632662175394798E+003	3.5239610E-001	-1.5220648E-005
3	0	1.633162175382167E+003	3.5208294E-001	-7.2477276E-005
3	0	1.633662175369536E+003	3.5173464E-001	-2.2516162E-004
3	0	1.634162175356905E+003	3.5134867E-001	-1.2973390E-004
3	0	1.634662175344274E+003	3.5087052E-001	3.8648941E-006
3	0	1.635162175331643E+003	3.5029933E-001	4.2035979E-005
3	0	1.635662175319012E+003	3.4984493E-001	-9.1562819E-005
3	0	1.636162175306381E+003	3.4972256E-001	-7.2477276E-005
3	0	1.636662175293750E+003	3.4954062E-001	-1.6790499E-004
3	0	1.637162175281119E+003	3.4926662E-001	-3.4306191E-005
3	0	1.637662175268488E+003	3.4903139E-001	-5.3391734E-005
3	0	1.638162175255857E+003	3.4885010E-001	-1.2973390E-004
3	0	1.638662175243226E+003	3.4865013E-001	-7.2477276E-005
3	0	1.639162175230595E+003	3.4836292E-001	-1.1064836E-004
3	0	1.639662175217964E+003	3.4827569E-001	2.2950437E-005
3	0	1.640162175205332E+003	3.4855494E-001	-1.6790499E-004
3	0	1.640662175192701E+003	3.4882149E-001	-9.1562819E-005
3	0	1.641162175180070E+003	3.4902221E-001	2.2950437E-005
3	0	1.641662175167439E+003	3.4913465E-001	-5.3391734E-005
3	0	1.642162175154808E+003	3.4919181E-001	-1.5220648E-005
3	0	1.642662175142177E+003	3.4913695E-001	3.8648941E-006
3	0	1.643162175129546E+003	3.4892935E-001	2.2950437E-005
3	0	1.643662175116915E+003	3.4878013E-001	-9.1562819E-005
3	0	1.644162175104284E+003	3.4891683E-001	-3.4306191E-005
3	0	1.644662175091653E+003	3.4898999E-001	-1.5220648E-005
3	0	1.645162175079022E+003	3.4893438E-001	-3.4306191E-005
3	0	1.645662175066391E+003	3.4880063E-001	-9.1562819E-005
3	0	1.646162175053760E+003	3.4862384E-001	-1.1064836E-004
3	0	1.646662175041129E+003	3.4833190E-001	-3.4306191E-005
3	0	1.647162175028498E+003	3.4791300E-001	-7.2477276E-005
3	0	1.647662175015867E+003	3.4759477E-001	-9.1562819E-005
3	0	1.648162175003235E+003	3.4758645E-001	-3.4306191E-005
3	0	1.648662174990604E+003	3.4749842E-001	-7.2477276E-005
3	0	1.649162174977973E+003	3.4732845E-001	-7.2477276E-005
3	0	1.649662174965342E+003	3.4707412E-001	3.8648941E-006
3	0	1.650162174952711E+003	3.4681121E-001	-1.1064836E-004
3	0	1.650662174940080E+003	3.4643364E-001	-5.3391734E-005
3	0	1.651162174927449E+003	3.4593958E-001	-1.2973390E-004
3	0	1.651662174914818E+003	3.4552288E-001	-1.4881945E-004
3	0	1.652162174902187E+003	3.4543142E-001	-3.4306191E-005
3	0	1.652662174889556E+003	3.4527043E-001	-3.4306191E-005
3	0	1.653162174876925E+003	3.4502020E-001	-5.3391734E-005
3	0	1.653662174864294E+003	3.4468275E-001	-1.4881945E-004
3	0	1.653697174863410E+003	3.4450722E-001	3.8648941E-006