EC-Lab ASCII FILE
Nb header lines : 55                          

Open Circuit Voltage

Run on channel : 1 (SN 81504)
User : 
CE vs. WE compliance from -10 V to 10 V
Electrode connection : standard
Potential control : Ewe
Ewe ctrl range : min = -2.50 V, max = 2.50 V
Safety Limits :
	Do not start on E overload
Acquisition started on : 05/10/2026 06:22:15.566
Loaded Setting File :  C:\PEM-WE_measurements\2026\372_IV_IV IrOx, 5 min Pt, 30 min C, etched cathode\new station\Loopeis new\1,46 V different time gaps closed cell\Loopeis 1,46V_120s_3_PEIS from 6500Hz to 1000Hz.mps
Saved on :
	File : L_23_Loopeis 1,46V_120s_3_PEIS from 6500Hz to 1000Hz_16_OCV_C01.mpr
	Directory : C:\PEM-WE_measurements\2026\372_IV_IV IrOx, 5 min Pt, 30 min C, etched cathode\new station\Loopeis new\1,46 V different time gaps closed cell\
	Host : 192.168.0.2
Device : SP-150e (SN .005491)
Address : 192.168.0.91
EC-LAB for windows v11.71 (software)
Internet server v28.00 (firmware)
Command interpretor v14.01 (firmware)
Electrode material : 
Initial state : 
Electrolyte : 
Comments : 
Current amplifier : SP-150eB-20A
Electrode surface area : 0.001 cm²
Characteristic mass : 0.001 g
Equivalent Weight : 0.000 g/eq.
Density : 0.000 g/cm3
Volume (V) : 0.001 cm³
Record Analogic IN 1
Text export
   Mode : Standard
   Time format : Elapsed
Cycle Definition : Charge/Discharge alternance
External device configuration :
   device type : Temperature Probe
   device name : Other
   Analog IN 1 : 
      unit : T/Â°C
      max : 100.000 at 2.000 V
      min : 0.000 at 1.460 V
tR (h:m:s)          0:02:0.0000         
dER/dt (mV/h)       1.0                 
record              <Ewe>               
dER (mV)            10.00               
dtR (s)             0.5000              
E range min (V)     -2.500              
E range max (V)     2.500               

mode	error	time/s	<Ewe/V>	Analog IN 1/V	
3	0	1.204831782976617E+003	1.1227375E+000	-2.7036972E+002
3	0	1.205331782963985E+003	1.2586237E+000	-2.7039801E+002
3	0	1.205831782951354E+003	1.2559505E+000	-2.7038742E+002
3	0	1.206331782938723E+003	1.2468852E+000	-2.7036972E+002
3	0	1.206831782926092E+003	1.2290114E+000	-2.7036267E+002
3	0	1.207331782913461E+003	1.1985809E+000	-2.7036618E+002
3	0	1.207831782900830E+003	1.1480873E+000	-2.7037677E+002
3	0	1.208331782888199E+003	1.0547004E+000	-2.7035205E+002
3	0	1.208831782875568E+003	7.9418164E-001	-2.7038031E+002
3	0	1.209331782862937E+003	5.2410454E-001	-2.7039093E+002
3	0	1.209831782850306E+003	4.2265892E-001	-2.7038742E+002
3	0	1.210331782837675E+003	3.9052272E-001	-2.7035913E+002
3	0	1.210831782825044E+003	3.8172925E-001	-2.7040860E+002
3	0	1.211331782812413E+003	3.7860098E-001	-2.7037326E+002
3	0	1.211831782799782E+003	3.7663093E-001	-2.7038031E+002
3	0	1.212331782787151E+003	3.7479618E-001	-2.7036972E+002
3	0	1.212831782774520E+003	3.7287977E-001	-2.7035913E+002
3	0	1.213331782761888E+003	3.7115914E-001	-2.7037326E+002
3	0	1.213831782749257E+003	3.7042868E-001	-2.7036972E+002
3	0	1.214331782736626E+003	3.6999214E-001	-2.7036618E+002
3	0	1.214831782723995E+003	3.6951068E-001	-2.7038742E+002
3	0	1.215331782711364E+003	3.6903822E-001	-2.7035913E+002
3	0	1.215831782698733E+003	3.6865714E-001	-2.7040155E+002
3	0	1.216331782686102E+003	3.6828741E-001	-2.7037677E+002
3	0	1.216831782673471E+003	3.6773998E-001	-2.7036972E+002
3	0	1.217331782660840E+003	3.6721614E-001	-2.7038742E+002
3	0	1.217831782648209E+003	3.6742276E-001	-2.7035205E+002
3	0	1.218331782635578E+003	3.6768341E-001	-2.7037326E+002
3	0	1.218831782622947E+003	3.6779293E-001	-2.7037677E+002
3	0	1.219331782610316E+003	3.6778051E-001	-2.7036972E+002
3	0	1.219831782597685E+003	3.6779171E-001	-2.7036618E+002
3	0	1.220331782585054E+003	3.6768925E-001	-2.7038742E+002
3	0	1.220831782572423E+003	3.6736435E-001	-2.7039801E+002
3	0	1.221331782559791E+003	3.6705241E-001	-2.7038031E+002
3	0	1.221831782547160E+003	3.6740679E-001	-2.7039093E+002
3	0	1.222331782534529E+003	3.6775929E-001	-2.7039093E+002
3	0	1.222831782521898E+003	3.6786968E-001	-2.7035559E+002
3	0	1.223331782509267E+003	3.6791635E-001	-2.7038385E+002
3	0	1.223831782496636E+003	3.6782959E-001	-2.7037677E+002
3	0	1.224331782484005E+003	3.6768422E-001	-2.7038385E+002
3	0	1.224831782471374E+003	3.6737204E-001	-2.7035913E+002
3	0	1.225331782458743E+003	3.6704957E-001	-2.7036972E+002
3	0	1.225831782446112E+003	3.6732978E-001	-2.7038031E+002
3	0	1.226331782433481E+003	3.6763456E-001	-2.7040155E+002
3	0	1.226831782420850E+003	3.6776069E-001	-2.7038385E+002
3	0	1.227331782408219E+003	3.6783302E-001	-2.7038742E+002
3	0	1.227831782395588E+003	3.6803669E-001	-2.7039093E+002
3	0	1.228331782382957E+003	3.6818627E-001	-2.7036618E+002
3	0	1.228831782370326E+003	3.6829194E-001	-2.7036267E+002
3	0	1.229331782357694E+003	3.6845765E-001	-2.7036267E+002
3	0	1.229831782345063E+003	3.6932111E-001	-2.7036972E+002
3	0	1.230331782332432E+003	3.7031671E-001	-2.7038385E+002
3	0	1.230831782319801E+003	3.7115458E-001	-2.7038385E+002
3	0	1.231331782307170E+003	3.7188551E-001	-2.7036618E+002
3	0	1.231831782294539E+003	3.7247521E-001	-2.7035913E+002
3	0	1.232331782281908E+003	3.7288770E-001	-2.7037677E+002
3	0	1.232831782269277E+003	3.7316534E-001	-2.7039801E+002
3	0	1.233331782256646E+003	3.7328702E-001	-2.7035913E+002
3	0	1.233831782244015E+003	3.7389725E-001	-2.7039093E+002
3	0	1.234331782231384E+003	3.7454581E-001	-2.7034851E+002
3	0	1.234831782218753E+003	3.7500340E-001	-2.7039093E+002
3	0	1.235331782206122E+003	3.7526006E-001	-2.7037326E+002
3	0	1.235831782193491E+003	3.7544823E-001	-2.7037326E+002
3	0	1.236331782180860E+003	3.7553209E-001	-2.7036618E+002
3	0	1.236831782168229E+003	3.7534410E-001	-2.7039447E+002
3	0	1.237331782155597E+003	3.7507603E-001	-2.7040155E+002
3	0	1.237831782142966E+003	3.7535724E-001	-2.7037677E+002
3	0	1.238331782130335E+003	3.7564766E-001	-2.7038385E+002
3	0	1.238831782117704E+003	3.7574115E-001	-2.7037326E+002
3	0	1.239331782105073E+003	3.7569594E-001	-2.7035913E+002
3	0	1.239831782092442E+003	3.7557665E-001	-2.7036267E+002
3	0	1.240331782079811E+003	3.7532556E-001	-2.7038031E+002
3	0	1.240831782067180E+003	3.7485704E-001	-2.7036618E+002
3	0	1.241331782054549E+003	3.7432355E-001	-2.7037677E+002
3	0	1.241831782041918E+003	3.7437299E-001	-2.7036972E+002
3	0	1.242331782029287E+003	3.7445661E-001	-2.7038385E+002
3	0	1.242831782016656E+003	3.7431055E-001	-2.7036618E+002
3	0	1.243331782004025E+003	3.7405336E-001	-2.7039093E+002
3	0	1.243831781991394E+003	3.7370214E-001	-2.7037677E+002
3	0	1.244331781978763E+003	3.7329435E-001	-2.7037326E+002
3	0	1.244831781966132E+003	3.7271038E-001	-2.7036972E+002
3	0	1.245331781953500E+003	3.7204888E-001	-2.7037326E+002
3	0	1.245831781940869E+003	3.7193525E-001	-2.7035205E+002
3	0	1.246331781928238E+003	3.7188971E-001	-2.7036972E+002
3	0	1.246831781915607E+003	3.7166435E-001	-2.7038742E+002
3	0	1.247331781902976E+003	3.7136516E-001	-2.7039093E+002
3	0	1.247831781890345E+003	3.7113598E-001	-2.7038742E+002
3	0	1.248331781877714E+003	3.7091944E-001	-2.7039093E+002
3	0	1.248831781865083E+003	3.7064236E-001	-2.7038742E+002
3	0	1.249331781852452E+003	3.7045118E-001	-2.7037677E+002
3	0	1.249831781839821E+003	3.7089533E-001	-2.7039093E+002
3	0	1.250331781827190E+003	3.7147653E-001	-2.7034851E+002
3	0	1.250831781814559E+003	3.7197471E-001	-2.7038385E+002
3	0	1.251331781801928E+003	3.7236452E-001	-2.7038742E+002
3	0	1.251831781789297E+003	3.7273327E-001	-2.7037326E+002
3	0	1.252331781776666E+003	3.7294826E-001	-2.7039447E+002
3	0	1.252831781764035E+003	3.7291232E-001	-2.7036972E+002
3	0	1.253331781751403E+003	3.7275243E-001	-2.7037326E+002
3	0	1.253831781738772E+003	3.7305030E-001	-2.7039447E+002
3	0	1.254331781726141E+003	3.7337351E-001	-2.7038385E+002
3	0	1.254831781713510E+003	3.7349591E-001	-2.7039093E+002
3	0	1.255331781700879E+003	3.7347472E-001	-2.7040155E+002
3	0	1.255831781688248E+003	3.7336645E-001	-2.7038742E+002
3	0	1.256331781675617E+003	3.7310430E-001	-2.7037326E+002
3	0	1.256831781662986E+003	3.7265858E-001	-2.7036618E+002
3	0	1.257331781650355E+003	3.7213492E-001	-2.7040506E+002
3	0	1.257831781637724E+003	3.7208617E-001	-2.7038031E+002
3	0	1.258331781625093E+003	3.7210879E-001	-2.7034497E+002
3	0	1.258831781612462E+003	3.7196252E-001	-2.7038031E+002
3	0	1.259331781599831E+003	3.7168038E-001	-2.7037677E+002
3	0	1.259831781587200E+003	3.7135205E-001	-2.7038385E+002
3	0	1.260331781574569E+003	3.7088004E-001	-2.7041214E+002
3	0	1.260831781561938E+003	3.7025481E-001	-2.7036972E+002
3	0	1.261331781549306E+003	3.6956033E-001	-2.7039447E+002
3	0	1.261831781536675E+003	3.6936828E-001	-2.7037677E+002
3	0	1.262331781524044E+003	3.6924314E-001	-2.7040155E+002
3	0	1.262831781511413E+003	3.6895528E-001	-2.7038742E+002
3	0	1.263331781498782E+003	3.6854246E-001	-2.7035559E+002
3	0	1.263831781486151E+003	3.6814013E-001	-2.7039093E+002
3	0	1.264331781473520E+003	3.6762533E-001	-2.7038031E+002
3	0	1.264831781460889E+003	3.6691049E-001	-2.7039447E+002
3	0	1.265331781448258E+003	3.6620179E-001	-2.7039447E+002
3	0	1.265831781435627E+003	3.6591145E-001	-2.7036618E+002
3	0	1.266331781422996E+003	3.6569110E-001	-2.7035913E+002
3	0	1.266831781410365E+003	3.6536327E-001	-2.7038742E+002
3	0	1.267331781397734E+003	3.6498314E-001	-2.7037677E+002
3	0	1.267831781385103E+003	3.6462444E-001	-2.7037326E+002
3	0	1.268331781372472E+003	3.6426181E-001	-2.7035913E+002
3	0	1.268831781359841E+003	3.6390445E-001	-2.7039447E+002
3	0	1.269331781347209E+003	3.6363402E-001	-2.7039801E+002
3	0	1.269831781334578E+003	3.6382318E-001	-2.7035559E+002
3	0	1.270331781321947E+003	3.6421797E-001	-2.7039447E+002
3	0	1.270831781309316E+003	3.6453962E-001	-2.7037677E+002
3	0	1.271331781296685E+003	3.6476725E-001	-2.7039801E+002
3	0	1.271831781284054E+003	3.6492437E-001	-2.7038385E+002
3	0	1.272331781271423E+003	3.6494222E-001	-2.7038742E+002
3	0	1.272831781258792E+003	3.6472920E-001	-2.7038742E+002
3	0	1.273331781246161E+003	3.6444545E-001	-2.7036267E+002
3	0	1.273831781233530E+003	3.6456212E-001	-2.7036618E+002
3	0	1.274331781220899E+003	3.6471659E-001	-2.7038031E+002
3	0	1.274831781208268E+003	3.6471727E-001	-2.7036267E+002
3	0	1.275331781195637E+003	3.6458987E-001	-2.7039093E+002
3	0	1.275831781183006E+003	3.6441076E-001	-2.7039447E+002
3	0	1.276331781170375E+003	3.6413953E-001	-2.7038031E+002
3	0	1.276831781157744E+003	3.6370263E-001	-2.7037326E+002
3	0	1.277331781145112E+003	3.6315295E-001	-2.7038385E+002
3	0	1.277831781132481E+003	3.6300111E-001	-2.7038385E+002
3	0	1.278331781119850E+003	3.6291453E-001	-2.7036267E+002
3	0	1.278831781107219E+003	3.6270016E-001	-2.7036972E+002
3	0	1.279331781094588E+003	3.6236900E-001	-2.7036972E+002
3	0	1.279831781081957E+003	3.6197326E-001	-2.7038385E+002
3	0	1.280331781069326E+003	3.6150384E-001	-2.7036618E+002
3	0	1.280831781056695E+003	3.6093804E-001	-2.7035559E+002
3	0	1.281331781044064E+003	3.6030886E-001	-2.7039093E+002
3	0	1.281831781031433E+003	3.6006054E-001	-2.7036618E+002
3	0	1.282331781018802E+003	3.5991782E-001	-2.7035559E+002
3	0	1.282831781006171E+003	3.5964492E-001	-2.7035559E+002
3	0	1.283331780993540E+003	3.5928619E-001	-2.7038031E+002
3	0	1.283831780980909E+003	3.5890004E-001	-2.7040155E+002
3	0	1.284331780968278E+003	3.5843590E-001	-2.7039447E+002
3	0	1.284831780955647E+003	3.5782853E-001	-2.7039447E+002
3	0	1.285331780943015E+003	3.5715306E-001	-2.7038031E+002
3	0	1.285831780930384E+003	3.5689771E-001	-2.7035913E+002
3	0	1.286331780917753E+003	3.5671648E-001	-2.7034851E+002
3	0	1.286831780905122E+003	3.5642770E-001	-2.7038385E+002
3	0	1.287331780892491E+003	3.5606125E-001	-2.7038742E+002
3	0	1.287831780879860E+003	3.5573331E-001	-2.7037326E+002
3	0	1.288331780867229E+003	3.5542467E-001	-2.7038031E+002
3	0	1.288831780854598E+003	3.5507023E-001	-2.7037326E+002
3	0	1.289331780841967E+003	3.5479340E-001	-2.7036267E+002
3	0	1.289831780829336E+003	3.5495725E-001	-2.7036267E+002
3	0	1.290331780816705E+003	3.5523570E-001	-2.7036972E+002
3	0	1.290831780804074E+003	3.5548747E-001	-2.7037677E+002
3	0	1.291331780791443E+003	3.5565889E-001	-2.7038385E+002
3	0	1.291831780778812E+003	3.5579321E-001	-2.7037326E+002
3	0	1.292331780766181E+003	3.5585827E-001	-2.7038385E+002
3	0	1.292831780753550E+003	3.5573420E-001	-2.7037326E+002
3	0	1.293331780740918E+003	3.5553569E-001	-2.7039093E+002
3	0	1.293831780728287E+003	3.5563296E-001	-2.7037677E+002
3	0	1.294331780715656E+003	3.5575819E-001	-2.7038742E+002
3	0	1.294831780703025E+003	3.5575750E-001	-2.7038742E+002
3	0	1.295331780690394E+003	3.5565317E-001	-2.7035913E+002
3	0	1.295831780677763E+003	3.5549787E-001	-2.7036618E+002
3	0	1.296331780665132E+003	3.5518497E-001	-2.7036267E+002
3	0	1.296831780652501E+003	3.5471752E-001	-2.7038742E+002
3	0	1.297331780639870E+003	3.5429996E-001	-2.7036972E+002
3	0	1.297831780627239E+003	3.5423556E-001	-2.7038742E+002
3	0	1.298331780614608E+003	3.5419041E-001	-2.7040155E+002
3	0	1.298831780601977E+003	3.5407126E-001	-2.7036972E+002
3	0	1.299331780589346E+003	3.5386246E-001	-2.7036618E+002
3	0	1.299831780576715E+003	3.5355559E-001	-2.7037677E+002
3	0	1.300331780564084E+003	3.5319698E-001	-2.7039093E+002
3	0	1.300831780551453E+003	3.5272387E-001	-2.7039093E+002
3	0	1.301331780538821E+003	3.5218239E-001	-2.7039093E+002
3	0	1.301831780526190E+003	3.5201004E-001	-2.7039093E+002
3	0	1.302331780513559E+003	3.5186195E-001	-2.7039447E+002
3	0	1.302831780500928E+003	3.5160956E-001	-2.7038031E+002
3	0	1.303331780488297E+003	3.5127959E-001	-2.7039447E+002
3	0	1.303831780475666E+003	3.5090843E-001	-2.7036618E+002
3	0	1.304331780463035E+003	3.5052633E-001	-2.7038031E+002
3	0	1.304831780450404E+003	3.5000297E-001	-2.7038742E+002
3	0	1.305331780437773E+003	3.4946486E-001	-2.7037677E+002
3	0	1.305831780425142E+003	3.4924766E-001	-2.7036972E+002
3	0	1.306331780412511E+003	3.4907693E-001	-2.7038031E+002
3	0	1.306831780399880E+003	3.4885761E-001	-2.7038385E+002
3	0	1.307331780387249E+003	3.4856609E-001	-2.7038742E+002
3	0	1.307831780374618E+003	3.4825906E-001	-2.7036618E+002
3	0	1.308331780361987E+003	3.4798893E-001	-2.7037326E+002
3	0	1.308831780349356E+003	3.4767267E-001	-2.7038742E+002
3	0	1.309331780336724E+003	3.4742707E-001	-2.7036618E+002
3	0	1.309831780324093E+003	3.4756127E-001	-2.7036972E+002
3	0	1.310331780311462E+003	3.4779581E-001	-2.7038385E+002
3	0	1.310831780298831E+003	3.4803063E-001	-2.7037326E+002
3	0	1.311331780286200E+003	3.4819826E-001	-2.7034143E+002
3	0	1.311831780273569E+003	3.4833229E-001	-2.7039093E+002
3	0	1.312331780260938E+003	3.4839681E-001	-2.7035913E+002
3	0	1.312831780248307E+003	3.4828961E-001	-2.7037326E+002
3	0	1.313331780235676E+003	3.4809911E-001	-2.7038031E+002
3	0	1.313831780223045E+003	3.4817466E-001	-2.7036618E+002
3	0	1.314331780210414E+003	3.4827653E-001	-2.7036618E+002
3	0	1.314831780197783E+003	3.4828976E-001	-2.7035559E+002
3	0	1.315331780185152E+003	3.4816757E-001	-2.7036267E+002
3	0	1.315831780172521E+003	3.4799653E-001	-2.7037677E+002
3	0	1.316331780159890E+003	3.4775585E-001	-2.7039801E+002
3	0	1.316831780147259E+003	3.4740183E-001	-2.7038742E+002
3	0	1.317331780134627E+003	3.4701279E-001	-2.7039447E+002
3	0	1.317831780121996E+003	3.4691784E-001	-2.7039447E+002
3	0	1.318331780109365E+003	3.4687313E-001	-2.7038031E+002
3	0	1.318831780096734E+003	3.4673390E-001	-2.7037326E+002
3	0	1.319331780084103E+003	3.4649295E-001	-2.7035205E+002
3	0	1.319831780071472E+003	3.4619898E-001	-2.7038742E+002
3	0	1.320331780058841E+003	3.4584197E-001	-2.7040506E+002
3	0	1.320831780046210E+003	3.4537023E-001	-2.7039093E+002
3	0	1.321331780033579E+003	3.4488812E-001	-2.7038742E+002
3	0	1.321831780020948E+003	3.4469822E-001	-2.7038385E+002
3	0	1.322331780008317E+003	3.4456947E-001	-2.7035559E+002
3	0	1.322831779995686E+003	3.4437907E-001	-2.7039801E+002
3	0	1.323331779983055E+003	3.4410548E-001	-2.7038385E+002
3	0	1.323831779970424E+003	3.4379336E-001	-2.7039801E+002
3	0	1.324331779957793E+003	3.4342730E-001	-2.7037326E+002
3	0	1.324356379957171E+003	3.4319842E-001	-2.7039093E+002