EC-Lab ASCII FILE
Nb header lines : 55                          

Open Circuit Voltage

Run on channel : 1 (SN 81504)
User : 
CE vs. WE compliance from -10 V to 10 V
Electrode connection : standard
Potential control : Ewe
Ewe ctrl range : min = -2.50 V, max = 2.50 V
Safety Limits :
	Do not start on E overload
Acquisition started on : 05/10/2026 06:22:15.566
Loaded Setting File :  C:\PEM-WE_measurements\2026\372_IV_IV IrOx, 5 min Pt, 30 min C, etched cathode\new station\Loopeis new\1,46 V different time gaps closed cell\Loopeis 1,46V_120s_3_PEIS from 6500Hz to 1000Hz.mps
Saved on :
	File : L_23_Loopeis 1,46V_120s_3_PEIS from 6500Hz to 1000Hz_02_OCV_C01.mpr
	Directory : C:\PEM-WE_measurements\2026\372_IV_IV IrOx, 5 min Pt, 30 min C, etched cathode\new station\Loopeis new\1,46 V different time gaps closed cell\
	Host : 192.168.0.2
Device : SP-150e (SN .005491)
Address : 192.168.0.91
EC-LAB for windows v11.71 (software)
Internet server v28.00 (firmware)
Command interpretor v14.01 (firmware)
Electrode material : 
Initial state : 
Electrolyte : 
Comments : 
Current amplifier : SP-150eB-20A
Electrode surface area : 0.001 cm²
Characteristic mass : 0.001 g
Equivalent Weight : 0.000 g/eq.
Density : 0.000 g/cm3
Volume (V) : 0.001 cm³
Record Analogic IN 1
Text export
   Mode : Standard
   Time format : Elapsed
Cycle Definition : Charge/Discharge alternance
External device configuration :
   device type : Temperature Probe
   device name : Other
   Analog IN 1 : 
      unit : T/Â°C
      max : 100.000 at 2.000 V
      min : 0.000 at 1.460 V
tR (h:m:s)          0:02:0.0000         
dER/dt (mV/h)       1.0                 
record              <Ewe>               
dER (mV)            10.00               
dtR (s)             0.5000              
E range min (V)     -2.500              
E range max (V)     2.500               

mode	error	time/s	<Ewe/V>	Analog IN 1/V	
3	0	4.549979885057837E+001	1.2913284E+000	-2.7039093E+002
3	0	4.599979883794731E+001	1.2980968E+000	-2.7038031E+002
3	0	4.649979882531625E+001	1.2954235E+000	-2.7036267E+002
3	0	4.699979881268519E+001	1.2879763E+000	-2.7038742E+002
3	0	4.749979880005412E+001	1.2740514E+000	-2.7038031E+002
3	0	4.799979878742306E+001	1.2509866E+000	-2.7039801E+002
3	0	4.849979877479200E+001	1.2140554E+000	-2.7038385E+002
3	0	4.899979876216094E+001	1.1513510E+000	-2.7037677E+002
3	0	4.949979874952987E+001	1.0022029E+000	-2.7035559E+002
3	0	4.999979873689881E+001	6.4244854E-001	-2.7036618E+002
3	0	5.049979872426775E+001	4.8035321E-001	-2.7039093E+002
3	0	5.099979871163669E+001	4.2891827E-001	-2.7039093E+002
3	0	5.149979869900562E+001	4.1367543E-001	-2.7036972E+002
3	0	5.199979868637456E+001	4.0803432E-001	-2.7037326E+002
3	0	5.249979867374350E+001	4.0469202E-001	-2.7039447E+002
3	0	5.299979866111244E+001	4.0214473E-001	-2.7038742E+002
3	0	5.349979864848137E+001	3.9970922E-001	-2.7038385E+002
3	0	5.399979863585031E+001	3.9747706E-001	-2.7036618E+002
3	0	5.449979862321925E+001	3.9625388E-001	-2.7038742E+002
3	0	5.499979861058819E+001	3.9553478E-001	-2.7037677E+002
3	0	5.549979859795712E+001	3.9475048E-001	-2.7037326E+002
3	0	5.599979858532606E+001	3.9391273E-001	-2.7038031E+002
3	0	5.649979857269500E+001	3.9323270E-001	-2.7039447E+002
3	0	5.699979856006394E+001	3.9259940E-001	-2.7036972E+002
3	0	5.749979854743287E+001	3.9177057E-001	-2.7038385E+002
3	0	5.799979853480181E+001	3.9098898E-001	-2.7038031E+002
3	0	5.849979852217075E+001	3.9084300E-001	-2.7036972E+002
3	0	5.899979850953969E+001	3.9102241E-001	-2.7037677E+002
3	0	5.949979849690862E+001	3.9103061E-001	-2.7038385E+002
3	0	5.999979848427756E+001	3.9089271E-001	-2.7037677E+002
3	0	6.049979847164650E+001	3.9079672E-001	-2.7038031E+002
3	0	6.099979845901544E+001	3.9074662E-001	-2.7035913E+002
3	0	6.149979844638438E+001	3.9057830E-001	-2.7036618E+002
3	0	6.199979843375331E+001	3.9047244E-001	-2.7038031E+002
3	0	6.249979842112225E+001	3.9107177E-001	-2.7038385E+002
3	0	6.299979840849119E+001	3.9200339E-001	-2.7037677E+002
3	0	6.349979839586013E+001	3.9285347E-001	-2.7038385E+002
3	0	6.399979838322906E+001	3.9353162E-001	-2.7037677E+002
3	0	6.449979837059800E+001	3.9419046E-001	-2.7038385E+002
3	0	6.499979835796694E+001	3.9475933E-001	-2.7036972E+002
3	0	6.549979834533588E+001	3.9512211E-001	-2.7037677E+002
3	0	6.599979833270481E+001	3.9525276E-001	-2.7038742E+002
3	0	6.649979832007375E+001	3.9588776E-001	-2.7038385E+002
3	0	6.699979830744269E+001	3.9671275E-001	-2.7038031E+002
3	0	6.749979829481163E+001	3.9729890E-001	-2.7037677E+002
3	0	6.799979828218056E+001	3.9769828E-001	-2.7037326E+002
3	0	6.849979826954950E+001	3.9796671E-001	-2.7037326E+002
3	0	6.899979825691844E+001	3.9816710E-001	-2.7038385E+002
3	0	6.949979824428738E+001	3.9810240E-001	-2.7040155E+002
3	0	6.999979823165631E+001	3.9791164E-001	-2.7039801E+002
3	0	7.049979821902525E+001	3.9817101E-001	-2.7037326E+002
3	0	7.099979820639419E+001	3.9865068E-001	-2.7038385E+002
3	0	7.149979819376313E+001	3.9892876E-001	-2.7040506E+002
3	0	7.199979818113206E+001	3.9899975E-001	-2.7037677E+002
3	0	7.249979816850100E+001	3.9894912E-001	-2.7039801E+002
3	0	7.299979815586994E+001	3.9883414E-001	-2.7035913E+002
3	0	7.349979814323888E+001	3.9849955E-001	-2.7037677E+002
3	0	7.399979813060781E+001	3.9805821E-001	-2.7037677E+002
3	0	7.449979811797675E+001	3.9807180E-001	-2.7035913E+002
3	0	7.499979810534569E+001	3.9833453E-001	-2.7036618E+002
3	0	7.549979809271463E+001	3.9838243E-001	-2.7037677E+002
3	0	7.599979808008356E+001	3.9829028E-001	-2.7039093E+002
3	0	7.649979806745250E+001	3.9814198E-001	-2.7037677E+002
3	0	7.699979805482144E+001	3.9793104E-001	-2.7038031E+002
3	0	7.749979804219038E+001	3.9751318E-001	-2.7039093E+002
3	0	7.799979802955932E+001	3.9696422E-001	-2.7037677E+002
3	0	7.849979801692825E+001	3.9684686E-001	-2.7034497E+002
3	0	7.899979800429719E+001	3.9698699E-001	-2.7036618E+002
3	0	7.949979799166613E+001	3.9697242E-001	-2.7037326E+002
3	0	7.999979797903507E+001	3.9677167E-001	-2.7036618E+002
3	0	8.049979796640400E+001	3.9656302E-001	-2.7036267E+002
3	0	8.099979795377294E+001	3.9633885E-001	-2.7039447E+002
3	0	8.149979794114188E+001	3.9607909E-001	-2.7038742E+002
3	0	8.199979792851082E+001	3.9579821E-001	-2.7037677E+002
3	0	8.249979791587975E+001	3.9605087E-001	-2.7037326E+002
3	0	8.299979790324869E+001	3.9665949E-001	-2.7038031E+002
3	0	8.349979789061763E+001	3.9720559E-001	-2.7038031E+002
3	0	8.399979787798657E+001	3.9763349E-001	-2.7036972E+002
3	0	8.449979786535550E+001	3.9807865E-001	-2.7038031E+002
3	0	8.499979785272444E+001	3.9844903E-001	-2.7039093E+002
3	0	8.549979784009338E+001	3.9852640E-001	-2.7038742E+002
3	0	8.599979782746232E+001	3.9847404E-001	-2.7037677E+002
3	0	8.649979781483125E+001	3.9876851E-001	-2.7037677E+002
3	0	8.699979780220019E+001	3.9925417E-001	-2.7038742E+002
3	0	8.749979778956913E+001	3.9955240E-001	-2.7035913E+002
3	0	8.799979777693807E+001	3.9965031E-001	-2.7038385E+002
3	0	8.849979776430700E+001	3.9963287E-001	-2.7039093E+002
3	0	8.899979775167594E+001	3.9953971E-001	-2.7036267E+002
3	0	8.949979773904488E+001	3.9925924E-001	-2.7037326E+002
3	0	8.999979772641382E+001	3.9879507E-001	-2.7035913E+002
3	0	9.049979771378275E+001	3.9877582E-001	-2.7038385E+002
3	0	9.099979770115169E+001	3.9899164E-001	-2.7036618E+002
3	0	9.149979768852063E+001	3.9902696E-001	-2.7038031E+002
3	0	9.199979767588957E+001	3.9885357E-001	-2.7037677E+002
3	0	9.249979766325851E+001	3.9856118E-001	-2.7037677E+002
3	0	9.299979765062744E+001	3.9823577E-001	-2.7039093E+002
3	0	9.349979763799638E+001	3.9768010E-001	-2.7039093E+002
3	0	9.399979762536532E+001	3.9701176E-001	-2.7037677E+002
3	0	9.449979761273426E+001	3.9673463E-001	-2.7036618E+002
3	0	9.499979760010319E+001	3.9673153E-001	-2.7038385E+002
3	0	9.549979758747213E+001	3.9659134E-001	-2.7038385E+002
3	0	9.599979757484107E+001	3.9631858E-001	-2.7038031E+002
3	0	9.649979756221001E+001	3.9591566E-001	-2.7038385E+002
3	0	9.699979754957894E+001	3.9549303E-001	-2.7040506E+002
3	0	9.749979753694788E+001	3.9487359E-001	-2.7037326E+002
3	0	9.799979752431682E+001	3.9414975E-001	-2.7038385E+002
3	0	9.849979751168576E+001	3.9380306E-001	-2.7039093E+002
3	0	9.899979749905469E+001	3.9365217E-001	-2.7040860E+002
3	0	9.949979748642363E+001	3.9336851E-001	-2.7034851E+002
3	0	9.999979747379257E+001	3.9297485E-001	-2.7035913E+002
3	0	1.004997974611615E+002	3.9256877E-001	-2.7036972E+002
3	0	1.009997974485304E+002	3.9220890E-001	-2.7038031E+002
3	0	1.014997974358994E+002	3.9172471E-001	-2.7040155E+002
3	0	1.019997974232683E+002	3.9126498E-001	-2.7036972E+002
3	0	1.024997974106373E+002	3.9126822E-001	-2.7037326E+002
3	0	1.029997973980062E+002	3.9158669E-001	-2.7036972E+002
3	0	1.034997973853751E+002	3.9190644E-001	-2.7038385E+002
3	0	1.039997973727441E+002	3.9213619E-001	-2.7037326E+002
3	0	1.044997973601130E+002	3.9233679E-001	-2.7040860E+002
3	0	1.049997973474819E+002	3.9244047E-001	-2.7037326E+002
3	0	1.054997973348509E+002	3.9231676E-001	-2.7039093E+002
3	0	1.059997973222198E+002	3.9204359E-001	-2.7037677E+002
3	0	1.064997973095888E+002	3.9205638E-001	-2.7039801E+002
3	0	1.069997972969577E+002	3.9225250E-001	-2.7036267E+002
3	0	1.074997972843266E+002	3.9235476E-001	-2.7036972E+002
3	0	1.079997972716956E+002	3.9230502E-001	-2.7039447E+002
3	0	1.084997972590645E+002	3.9216340E-001	-2.7038385E+002
3	0	1.089997972464334E+002	3.9198127E-001	-2.7036267E+002
3	0	1.094997972338024E+002	3.9157137E-001	-2.7038031E+002
3	0	1.099997972211713E+002	3.9102405E-001	-2.7039093E+002
3	0	1.104997972085403E+002	3.9082181E-001	-2.7038031E+002
3	0	1.109997971959092E+002	3.9079824E-001	-2.7036618E+002
3	0	1.114997971832781E+002	3.9069185E-001	-2.7037677E+002
3	0	1.119997971706471E+002	3.9043552E-001	-2.7035205E+002
3	0	1.124997971580160E+002	3.9015171E-001	-2.7036618E+002
3	0	1.129997971453849E+002	3.8976240E-001	-2.7037326E+002
3	0	1.134997971327539E+002	3.8915798E-001	-2.7038031E+002
3	0	1.139997971201228E+002	3.8850543E-001	-2.7037677E+002
3	0	1.144997971074918E+002	3.8824883E-001	-2.7039447E+002
3	0	1.149997970948607E+002	3.8813815E-001	-2.7039801E+002
3	0	1.154997970822296E+002	3.8790527E-001	-2.7039801E+002
3	0	1.159997970695986E+002	3.8750970E-001	-2.7037326E+002
3	0	1.164997970569675E+002	3.8710001E-001	-2.7038031E+002
3	0	1.169997970443364E+002	3.8670322E-001	-2.7038742E+002
3	0	1.174997970317054E+002	3.8619563E-001	-2.7036972E+002
3	0	1.179997970190743E+002	3.8559970E-001	-2.7038385E+002
3	0	1.184997970064433E+002	3.8532117E-001	-2.7039447E+002
3	0	1.189997969938122E+002	3.8517666E-001	-2.7037326E+002
3	0	1.194997969811811E+002	3.8491291E-001	-2.7037326E+002
3	0	1.199997969685501E+002	3.8455948E-001	-2.7038031E+002
3	0	1.204997969559190E+002	3.8419738E-001	-2.7039801E+002
3	0	1.209997969432879E+002	3.8383675E-001	-2.7037677E+002
3	0	1.214997969306569E+002	3.8340616E-001	-2.7038031E+002
3	0	1.219997969180258E+002	3.8299623E-001	-2.7037677E+002
3	0	1.224997969053948E+002	3.8303474E-001	-2.7037326E+002
3	0	1.229997968927637E+002	3.8325521E-001	-2.7039801E+002
3	0	1.234997968801326E+002	3.8348413E-001	-2.7038742E+002
3	0	1.239997968675016E+002	3.8360643E-001	-2.7038031E+002
3	0	1.244997968548705E+002	3.8379249E-001	-2.7037326E+002
3	0	1.249997968422394E+002	3.8390809E-001	-2.7037677E+002
3	0	1.254997968296084E+002	3.8382691E-001	-2.7038742E+002
3	0	1.259997968169773E+002	3.8360104E-001	-2.7039093E+002
3	0	1.264997968043463E+002	3.8367584E-001	-2.7038031E+002
3	0	1.269997967917152E+002	3.8382572E-001	-2.7038385E+002
3	0	1.274997967790841E+002	3.8380811E-001	-2.7038031E+002
3	0	1.279997967664531E+002	3.8375235E-001	-2.7036618E+002
3	0	1.284997967538220E+002	3.8359332E-001	-2.7036972E+002
3	0	1.289997967411909E+002	3.8339230E-001	-2.7037677E+002
3	0	1.294997967285599E+002	3.8302529E-001	-2.7036618E+002
3	0	1.299997967159288E+002	3.8257840E-001	-2.7037677E+002
3	0	1.304997967032978E+002	3.8240963E-001	-2.7036618E+002
3	0	1.309997966906667E+002	3.8237128E-001	-2.7038385E+002
3	0	1.314997966780356E+002	3.8218385E-001	-2.7038031E+002
3	0	1.319997966654046E+002	3.8197872E-001	-2.7037677E+002
3	0	1.324997966527735E+002	3.8168359E-001	-2.7038742E+002
3	0	1.329997966401424E+002	3.8137257E-001	-2.7038742E+002
3	0	1.334997966275114E+002	3.8086507E-001	-2.7035913E+002
3	0	1.339997966148803E+002	3.8030946E-001	-2.7037677E+002
3	0	1.344997966022493E+002	3.8005853E-001	-2.7038385E+002
3	0	1.349997965896182E+002	3.7989607E-001	-2.7039447E+002
3	0	1.354997965769871E+002	3.7960538E-001	-2.7036267E+002
3	0	1.359997965643561E+002	3.7930420E-001	-2.7037326E+002
3	0	1.364997965517250E+002	3.7892321E-001	-2.7039801E+002
3	0	1.369997965390940E+002	3.7850791E-001	-2.7039447E+002
3	0	1.374997965264629E+002	3.7800831E-001	-2.7038385E+002
3	0	1.379997965138318E+002	3.7743878E-001	-2.7038385E+002
3	0	1.384997965012008E+002	3.7714416E-001	-2.7039801E+002
3	0	1.389997964885697E+002	3.7696311E-001	-2.7039801E+002
3	0	1.394997964759386E+002	3.7665996E-001	-2.7038742E+002
3	0	1.399997964633076E+002	3.7634128E-001	-2.7038385E+002
3	0	1.404997964506765E+002	3.7596610E-001	-2.7035205E+002
3	0	1.409997964380455E+002	3.7560761E-001	-2.7037677E+002
3	0	1.414997964254144E+002	3.7522489E-001	-2.7037326E+002
3	0	1.419997964127833E+002	3.7483215E-001	-2.7036972E+002
3	0	1.424997964001523E+002	3.7477848E-001	-2.7038742E+002
3	0	1.429997963875212E+002	3.7494677E-001	-2.7039447E+002
3	0	1.434997963748901E+002	3.7505898E-001	-2.7037677E+002
3	0	1.439997963622591E+002	3.7522948E-001	-2.7038031E+002
3	0	1.444997963496280E+002	3.7527162E-001	-2.7036972E+002
3	0	1.449997963369970E+002	3.7527046E-001	-2.7039801E+002
3	0	1.454997963243659E+002	3.7556922E-001	-2.7037677E+002
3	0	1.459997963117348E+002	3.7561446E-001	-2.7037677E+002
3	0	1.464997962991038E+002	3.7578493E-001	-2.7038385E+002
3	0	1.469997962864727E+002	3.7603453E-001	-2.7036267E+002
3	0	1.474997962738416E+002	3.7609816E-001	-2.7039801E+002
3	0	1.479997962612106E+002	3.7606096E-001	-2.7038742E+002
3	0	1.484997962485795E+002	3.7596419E-001	-2.7037326E+002
3	0	1.489997962359485E+002	3.7578005E-001	-2.7039093E+002
3	0	1.494997962233174E+002	3.7544972E-001	-2.7039447E+002
3	0	1.499997962106863E+002	3.7502867E-001	-2.7038031E+002
3	0	1.504997961980553E+002	3.7488526E-001	-2.7038385E+002
3	0	1.509997961854242E+002	3.7492502E-001	-2.7039093E+002
3	0	1.514997961727931E+002	3.7482843E-001	-2.7036972E+002
3	0	1.519997961601621E+002	3.7459317E-001	-2.7038031E+002
3	0	1.524997961475310E+002	3.7431389E-001	-2.7036972E+002
3	0	1.529997961349000E+002	3.7399003E-001	-2.7036618E+002
3	0	1.534997961222689E+002	3.7354413E-001	-2.7038742E+002
3	0	1.539997961096378E+002	3.7302217E-001	-2.7037677E+002
3	0	1.544997960970068E+002	3.7275937E-001	-2.7037326E+002
3	0	1.549997960843757E+002	3.7270489E-001	-2.7038385E+002
3	0	1.554997960717446E+002	3.7252951E-001	-2.7038742E+002
3	0	1.559997960591136E+002	3.7223220E-001	-2.7038031E+002
3	0	1.564997960464825E+002	3.7192595E-001	-2.7037326E+002
3	0	1.569997960338515E+002	3.7157196E-001	-2.7037677E+002
3	0	1.574997960212204E+002	3.7109491E-001	-2.7040860E+002
3	0	1.579997960085893E+002	3.7057123E-001	-2.7037326E+002
3	0	1.584997959959583E+002	3.7031642E-001	-2.7036972E+002
3	0	1.589997959833272E+002	3.7022808E-001	-2.7037677E+002
3	0	1.594997959706961E+002	3.7002578E-001	-2.7039447E+002
3	0	1.599997959580651E+002	3.6973304E-001	-2.7037677E+002
3	0	1.604997959454340E+002	3.6943668E-001	-2.7038385E+002
3	0	1.609997959328030E+002	3.6912468E-001	-2.7039447E+002
3	0	1.614997959201719E+002	3.6870801E-001	-2.7039801E+002
3	0	1.619997959075408E+002	3.6830461E-001	-2.7038385E+002
3	0	1.624997958949098E+002	3.6821201E-001	-2.7040155E+002
3	0	1.629997958822787E+002	3.6838430E-001	-2.7038742E+002
3	0	1.634997958696476E+002	3.6850974E-001	-2.7035913E+002
3	0	1.639997958570166E+002	3.6858457E-001	-2.7039093E+002
3	0	1.644997958443855E+002	3.6870414E-001	-2.7037677E+002
3	0	1.649997958317545E+002	3.6877528E-001	-2.7037326E+002
3	0	1.650001958317444E+002	3.6872366E-001	-2.7037326E+002