EC-Lab ASCII FILE
Nb header lines : 55                          

Open Circuit Voltage

Run on channel : 1 (SN 81504)
User : 
CE vs. WE compliance from -10 V to 10 V
Electrode connection : standard
Potential control : Ewe
Ewe ctrl range : min = -2.50 V, max = 2.50 V
Safety Limits :
	Do not start on E overload
Acquisition started on : 05/10/2026 06:22:15.566
Loaded Setting File :  C:\PEM-WE_measurements\2026\372_IV_IV IrOx, 5 min Pt, 30 min C, etched cathode\new station\Loopeis new\1,46 V different time gaps closed cell\Loopeis 1,46V_120s_3_PEIS from 6500Hz to 1000Hz.mps
Saved on :
	File : L_23_Loopeis 1,46V_120s_3_PEIS from 6500Hz to 1000Hz_06_OCV_C01.mpr
	Directory : C:\PEM-WE_measurements\2026\372_IV_IV IrOx, 5 min Pt, 30 min C, etched cathode\new station\Loopeis new\1,46 V different time gaps closed cell\
	Host : 192.168.0.2
Device : SP-150e (SN .005491)
Address : 192.168.0.91
EC-LAB for windows v11.71 (software)
Internet server v28.00 (firmware)
Command interpretor v14.01 (firmware)
Electrode material : 
Initial state : 
Electrolyte : 
Comments : 
Current amplifier : SP-150eB-20A
Electrode surface area : 0.001 cm²
Characteristic mass : 0.001 g
Equivalent Weight : 0.000 g/eq.
Density : 0.000 g/cm3
Volume (V) : 0.001 cm³
Record Analogic IN 1
Text export
   Mode : Standard
   Time format : Elapsed
Cycle Definition : Charge/Discharge alternance
External device configuration :
   device type : Temperature Probe
   device name : Other
   Analog IN 1 : 
      unit : T/Â°C
      max : 100.000 at 2.000 V
      min : 0.000 at 1.460 V
tR (h:m:s)          0:02:0.0000         
dER/dt (mV/h)       1.0                 
record              <Ewe>               
dER (mV)            10.00               
dtR (s)             0.5000              
E range min (V)     -2.500              
E range max (V)     2.500               

mode	error	time/s	<Ewe/V>	Analog IN 1/V	
3	0	3.754725937868352E+002	1.2908616E+000	-2.7039447E+002
3	0	3.759725937742041E+002	1.2973168E+000	-2.7038031E+002
3	0	3.764725937615731E+002	1.2937660E+000	-2.7039801E+002
3	0	3.769725937489420E+002	1.2843463E+000	-2.7041214E+002
3	0	3.774725937363110E+002	1.2671154E+000	-2.7038385E+002
3	0	3.779725937236799E+002	1.2390494E+000	-2.7036618E+002
3	0	3.784725937110488E+002	1.1941662E+000	-2.7038385E+002
3	0	3.789725936984178E+002	1.1140537E+000	-2.7038031E+002
3	0	3.794725936857867E+002	8.8782924E-001	-2.7038742E+002
3	0	3.799725936731556E+002	5.6223899E-001	-2.7037677E+002
3	0	3.804725936605246E+002	4.4700965E-001	-2.7038031E+002
3	0	3.809725936478935E+002	4.0843397E-001	-2.7037326E+002
3	0	3.814725936352625E+002	3.9670932E-001	-2.7037677E+002
3	0	3.819725936226314E+002	3.9230645E-001	-2.7036972E+002
3	0	3.824725936100003E+002	3.9046291E-001	-2.7035913E+002
3	0	3.829725935973693E+002	3.8907260E-001	-2.7037326E+002
3	0	3.834725935847382E+002	3.8764614E-001	-2.7038742E+002
3	0	3.839725935721071E+002	3.8647756E-001	-2.7037326E+002
3	0	3.844725935594761E+002	3.8570216E-001	-2.7040506E+002
3	0	3.849725935468450E+002	3.8505352E-001	-2.7038385E+002
3	0	3.854725935342140E+002	3.8442418E-001	-2.7040155E+002
3	0	3.859725935215829E+002	3.8415006E-001	-2.7037326E+002
3	0	3.864725935089518E+002	3.8470310E-001	-2.7038031E+002
3	0	3.869725934963208E+002	3.8521570E-001	-2.7038385E+002
3	0	3.874725934836897E+002	3.8546228E-001	-2.7038742E+002
3	0	3.879725934710586E+002	3.8559970E-001	-2.7034851E+002
3	0	3.884725934584276E+002	3.8580191E-001	-2.7036972E+002
3	0	3.889725934457965E+002	3.8593397E-001	-2.7038742E+002
3	0	3.894725934331655E+002	3.8577202E-001	-2.7036618E+002
3	0	3.899725934205344E+002	3.8571486E-001	-2.7036972E+002
3	0	3.904725934079033E+002	3.8635147E-001	-2.7038742E+002
3	0	3.909725933952723E+002	3.8690048E-001	-2.7038031E+002
3	0	3.914725933826412E+002	3.8715184E-001	-2.7038031E+002
3	0	3.919725933700101E+002	3.8726553E-001	-2.7038031E+002
3	0	3.924725933573791E+002	3.8744318E-001	-2.7036267E+002
3	0	3.929725933447480E+002	3.8747802E-001	-2.7036972E+002
3	0	3.934725933321170E+002	3.8721922E-001	-2.7038742E+002
3	0	3.939725933194859E+002	3.8706172E-001	-2.7038031E+002
3	0	3.944725933068548E+002	3.8754144E-001	-2.7036618E+002
3	0	3.949725932942238E+002	3.8800016E-001	-2.7038031E+002
3	0	3.954725932815927E+002	3.8820121E-001	-2.7036972E+002
3	0	3.959725932689616E+002	3.8823900E-001	-2.7036267E+002
3	0	3.964725932563306E+002	3.8830006E-001	-2.7038742E+002
3	0	3.969725932436995E+002	3.8822877E-001	-2.7038742E+002
3	0	3.974725932310685E+002	3.8787395E-001	-2.7038031E+002
3	0	3.979725932184374E+002	3.8766286E-001	-2.7035913E+002
3	0	3.984725932058063E+002	3.8806120E-001	-2.7036618E+002
3	0	3.989725931931753E+002	3.8838792E-001	-2.7038031E+002
3	0	3.994725931805442E+002	3.8843942E-001	-2.7036972E+002
3	0	3.999725931679131E+002	3.8845429E-001	-2.7036972E+002
3	0	4.004725931552821E+002	3.8842389E-001	-2.7035205E+002
3	0	4.009725931426510E+002	3.8827616E-001	-2.7036267E+002
3	0	4.014725931300200E+002	3.8793033E-001	-2.7038385E+002
3	0	4.019725931173889E+002	3.8761166E-001	-2.7036267E+002
3	0	4.024725931047578E+002	3.8795954E-001	-2.7036972E+002
3	0	4.029725930921268E+002	3.8837871E-001	-2.7039801E+002
3	0	4.034725930794957E+002	3.8860601E-001	-2.7037326E+002
3	0	4.039725930668646E+002	3.8883024E-001	-2.7036267E+002
3	0	4.044725930542336E+002	3.8919857E-001	-2.7038742E+002
3	0	4.049725930416025E+002	3.8954753E-001	-2.7036972E+002
3	0	4.054725930289715E+002	3.8974035E-001	-2.7039801E+002
3	0	4.059725930163404E+002	3.9005026E-001	-2.7039447E+002
3	0	4.064725930037093E+002	3.9094052E-001	-2.7039093E+002
3	0	4.069725929910783E+002	3.9179236E-001	-2.7036267E+002
3	0	4.074725929784472E+002	3.9233783E-001	-2.7038742E+002
3	0	4.079725929658161E+002	3.9265355E-001	-2.7037677E+002
3	0	4.084725929531851E+002	3.9295208E-001	-2.7038385E+002
3	0	4.089725929405540E+002	3.9302140E-001	-2.7038385E+002
3	0	4.094725929279230E+002	3.9282155E-001	-2.7039093E+002
3	0	4.099725929152919E+002	3.9266181E-001	-2.7036972E+002
3	0	4.104725929026608E+002	3.9308605E-001	-2.7037677E+002
3	0	4.109725928900298E+002	3.9346781E-001	-2.7038031E+002
3	0	4.114725928773987E+002	3.9360219E-001	-2.7038385E+002
3	0	4.119725928647676E+002	3.9355421E-001	-2.7040155E+002
3	0	4.124725928521366E+002	3.9351755E-001	-2.7038742E+002
3	0	4.129725928395055E+002	3.9327815E-001	-2.7037677E+002
3	0	4.134725928268745E+002	3.9275119E-001	-2.7038031E+002
3	0	4.139725928142434E+002	3.9229220E-001	-2.7036267E+002
3	0	4.144725928016123E+002	3.9241749E-001	-2.7036267E+002
3	0	4.149725927889813E+002	3.9253059E-001	-2.7040155E+002
3	0	4.154725927763502E+002	3.9239794E-001	-2.7037677E+002
3	0	4.159725927637191E+002	3.9215013E-001	-2.7038385E+002
3	0	4.164725927510881E+002	3.9188921E-001	-2.7038742E+002
3	0	4.169725927384570E+002	3.9146361E-001	-2.7039093E+002
3	0	4.174725927258260E+002	3.9083576E-001	-2.7036972E+002
3	0	4.179725927131949E+002	3.9024532E-001	-2.7035913E+002
3	0	4.184725927005638E+002	3.9021078E-001	-2.7037677E+002
3	0	4.189725926879328E+002	3.9021260E-001	-2.7037326E+002
3	0	4.194725926753017E+002	3.8998690E-001	-2.7038385E+002
3	0	4.199725926626707E+002	3.8961971E-001	-2.7037677E+002
3	0	4.204725926500396E+002	3.8921592E-001	-2.7036267E+002
3	0	4.209725926374085E+002	3.8868842E-001	-2.7039801E+002
3	0	4.214725926247775E+002	3.8800743E-001	-2.7037326E+002
3	0	4.219725926121464E+002	3.8736588E-001	-2.7036972E+002
3	0	4.224725925995153E+002	3.8732171E-001	-2.7039093E+002
3	0	4.229725925868843E+002	3.8740221E-001	-2.7038385E+002
3	0	4.234725925742532E+002	3.8737696E-001	-2.7040155E+002
3	0	4.239725925616222E+002	3.8733739E-001	-2.7038742E+002
3	0	4.244725925489911E+002	3.8739595E-001	-2.7036267E+002
3	0	4.249725925363600E+002	3.8747284E-001	-2.7039093E+002
3	0	4.254725925237290E+002	3.8741383E-001	-2.7035913E+002
3	0	4.259725925110979E+002	3.8741487E-001	-2.7037326E+002
3	0	4.264725924984668E+002	3.8793468E-001	-2.7037326E+002
3	0	4.269725924858358E+002	3.8843295E-001	-2.7036267E+002
3	0	4.274725924732047E+002	3.8867423E-001	-2.7039447E+002
3	0	4.279725924605737E+002	3.8875371E-001	-2.7039447E+002
3	0	4.284725924479426E+002	3.8878742E-001	-2.7037677E+002
3	0	4.289725924353115E+002	3.8867611E-001	-2.7037326E+002
3	0	4.294725924226805E+002	3.8831094E-001	-2.7036618E+002
3	0	4.299725924100494E+002	3.8804078E-001	-2.7037677E+002
3	0	4.304725923974183E+002	3.8826311E-001	-2.7037677E+002
3	0	4.309725923847873E+002	3.8847020E-001	-2.7040506E+002
3	0	4.314725923721562E+002	3.8846341E-001	-2.7037326E+002
3	0	4.319725923595252E+002	3.8824195E-001	-2.7035913E+002
3	0	4.324725923468941E+002	3.8799495E-001	-2.7039801E+002
3	0	4.329725923342630E+002	3.8757917E-001	-2.7036267E+002
3	0	4.334725923216320E+002	3.8692850E-001	-2.7036972E+002
3	0	4.339725923090009E+002	3.8641459E-001	-2.7036972E+002
3	0	4.344725922963698E+002	3.8641468E-001	-2.7039447E+002
3	0	4.349725922837388E+002	3.8639125E-001	-2.7038385E+002
3	0	4.354725922711077E+002	3.8615471E-001	-2.7036972E+002
3	0	4.359725922584767E+002	3.8580382E-001	-2.7036267E+002
3	0	4.364725922458456E+002	3.8546109E-001	-2.7036267E+002
3	0	4.369725922332145E+002	3.8501590E-001	-2.7037326E+002
3	0	4.374725922205835E+002	3.8431361E-001	-2.7037326E+002
3	0	4.379725922079524E+002	3.8366443E-001	-2.7037677E+002
3	0	4.384725921953213E+002	3.8353869E-001	-2.7040155E+002
3	0	4.389725921826903E+002	3.8343585E-001	-2.7039093E+002
3	0	4.394725921700592E+002	3.8316414E-001	-2.7037326E+002
3	0	4.399725921574282E+002	3.8276881E-001	-2.7038742E+002
3	0	4.404725921447971E+002	3.8239354E-001	-2.7038031E+002
3	0	4.409725921321660E+002	3.8192788E-001	-2.7036267E+002
3	0	4.414725921195350E+002	3.8129506E-001	-2.7036972E+002
3	0	4.419725921069039E+002	3.8068089E-001	-2.7037326E+002
3	0	4.424725920942728E+002	3.8051960E-001	-2.7037677E+002
3	0	4.429725920816418E+002	3.8047758E-001	-2.7037677E+002
3	0	4.434725920690107E+002	3.8033989E-001	-2.7038742E+002
3	0	4.439725920563797E+002	3.8017991E-001	-2.7036618E+002
3	0	4.444725920437486E+002	3.8013458E-001	-2.7038031E+002
3	0	4.449725920311175E+002	3.8004816E-001	-2.7036972E+002
3	0	4.454725920184865E+002	3.7981674E-001	-2.7038031E+002
3	0	4.459725920058554E+002	3.7974358E-001	-2.7034851E+002
3	0	4.464725919932243E+002	3.8012868E-001	-2.7039801E+002
3	0	4.469725919805933E+002	3.8047847E-001	-2.7037326E+002
3	0	4.474725919679622E+002	3.8064301E-001	-2.7037677E+002
3	0	4.479725919553312E+002	3.8068897E-001	-2.7037326E+002
3	0	4.484725919427001E+002	3.8075623E-001	-2.7040155E+002
3	0	4.489725919300690E+002	3.8062152E-001	-2.7034497E+002
3	0	4.494725919174380E+002	3.8037124E-001	-2.7038031E+002
3	0	4.499725919048069E+002	3.8012695E-001	-2.7036972E+002
3	0	4.504725918921758E+002	3.8025615E-001	-2.7036267E+002
3	0	4.509725918795448E+002	3.8030607E-001	-2.7037677E+002
3	0	4.514725918669137E+002	3.8019785E-001	-2.7037677E+002
3	0	4.519725918542827E+002	3.7997663E-001	-2.7037326E+002
3	0	4.524725918416516E+002	3.7977022E-001	-2.7040155E+002
3	0	4.529725918290205E+002	3.7942046E-001	-2.7037677E+002
3	0	4.534725918163895E+002	3.7893319E-001	-2.7037326E+002
3	0	4.539725918037584E+002	3.7850690E-001	-2.7036618E+002
3	0	4.544725917911273E+002	3.7845364E-001	-2.7039447E+002
3	0	4.549725917784963E+002	3.7837192E-001	-2.7034143E+002
3	0	4.554725917658652E+002	3.7816164E-001	-2.7038385E+002
3	0	4.559725917532342E+002	3.7781557E-001	-2.7036267E+002
3	0	4.564725917406031E+002	3.7748614E-001	-2.7040506E+002
3	0	4.569725917279720E+002	3.7704045E-001	-2.7037326E+002
3	0	4.574725917153410E+002	3.7644380E-001	-2.7038385E+002
3	0	4.579725917027099E+002	3.7593639E-001	-2.7036972E+002
3	0	4.584725916900788E+002	3.7579444E-001	-2.7038742E+002
3	0	4.589725916774478E+002	3.7560061E-001	-2.7037677E+002
3	0	4.594725916648167E+002	3.7528893E-001	-2.7036267E+002
3	0	4.599725916521857E+002	3.7492147E-001	-2.7036972E+002
3	0	4.604725916395546E+002	3.7458360E-001	-2.7037677E+002
3	0	4.609725916269235E+002	3.7419590E-001	-2.7038742E+002
3	0	4.614725916142925E+002	3.7362823E-001	-2.7038385E+002
3	0	4.619725916016614E+002	3.7311903E-001	-2.7041919E+002
3	0	4.624725915890303E+002	3.7298957E-001	-2.7037326E+002
3	0	4.629725915763993E+002	3.7286878E-001	-2.7036267E+002
3	0	4.634725915637682E+002	3.7270942E-001	-2.7038385E+002
3	0	4.639725915511372E+002	3.7256980E-001	-2.7038742E+002
3	0	4.644725915385061E+002	3.7248957E-001	-2.7038031E+002
3	0	4.649725915258750E+002	3.7242040E-001	-2.7037326E+002
3	0	4.654725915132440E+002	3.7228552E-001	-2.7039801E+002
3	0	4.659725915006129E+002	3.7220693E-001	-2.7037677E+002
3	0	4.664725914879818E+002	3.7250966E-001	-2.7037326E+002
3	0	4.669725914753508E+002	3.7280253E-001	-2.7039093E+002
3	0	4.674725914627197E+002	3.7294877E-001	-2.7038385E+002
3	0	4.679725914500887E+002	3.7300259E-001	-2.7035913E+002
3	0	4.684725914374576E+002	3.7304208E-001	-2.7037326E+002
3	0	4.689725914248265E+002	3.7297034E-001	-2.7036267E+002
3	0	4.694725914121955E+002	3.7269390E-001	-2.7038031E+002
3	0	4.699725913995644E+002	3.7243924E-001	-2.7038742E+002
3	0	4.704725913869333E+002	3.7250116E-001	-2.7038742E+002
3	0	4.709725913743023E+002	3.7250915E-001	-2.7038742E+002
3	0	4.714725913616712E+002	3.7239715E-001	-2.7039447E+002
3	0	4.719725913490402E+002	3.7221497E-001	-2.7038385E+002
3	0	4.724725913364091E+002	3.7201998E-001	-2.7037326E+002
3	0	4.729725913237780E+002	3.7169763E-001	-2.7038031E+002
3	0	4.734725913111470E+002	3.7121502E-001	-2.7038385E+002
3	0	4.739725912985159E+002	3.7075594E-001	-2.7038742E+002
3	0	4.744725912858848E+002	3.7068045E-001	-2.7039093E+002
3	0	4.749725912732538E+002	3.7057638E-001	-2.7041568E+002
3	0	4.754725912606227E+002	3.7037286E-001	-2.7038031E+002
3	0	4.759725912479917E+002	3.7010258E-001	-2.7036267E+002
3	0	4.764725912353606E+002	3.6979243E-001	-2.7036267E+002
3	0	4.769725912227295E+002	3.6940035E-001	-2.7038385E+002
3	0	4.774725912100985E+002	3.6887640E-001	-2.7036972E+002
3	0	4.779725911974674E+002	3.6842301E-001	-2.7036972E+002
3	0	4.784725911848363E+002	3.6830285E-001	-2.7037326E+002
3	0	4.789725911722053E+002	3.6818978E-001	-2.7036618E+002
3	0	4.794725911595742E+002	3.6796054E-001	-2.7035913E+002
3	0	4.799725911469432E+002	3.6763224E-001	-2.7039093E+002
3	0	4.804725911343121E+002	3.6730734E-001	-2.7036618E+002
3	0	4.809725911216810E+002	3.6692992E-001	-2.7036618E+002
3	0	4.814725911090500E+002	3.6640316E-001	-2.7037326E+002
3	0	4.819725910964189E+002	3.6592218E-001	-2.7037677E+002
3	0	4.824725910837878E+002	3.6577195E-001	-2.7039447E+002
3	0	4.829725910711568E+002	3.6563122E-001	-2.7037677E+002
3	0	4.834725910585257E+002	3.6544859E-001	-2.7038031E+002
3	0	4.839725910458947E+002	3.6529803E-001	-2.7038385E+002
3	0	4.844725910332636E+002	3.6519259E-001	-2.7038031E+002
3	0	4.849725910206325E+002	3.6510655E-001	-2.7036618E+002
3	0	4.854725910080015E+002	3.6492819E-001	-2.7038385E+002
3	0	4.859725909953704E+002	3.6482695E-001	-2.7040155E+002
3	0	4.864725909827393E+002	3.6510170E-001	-2.7038031E+002
3	0	4.869725909701083E+002	3.6536747E-001	-2.7038742E+002
3	0	4.874725909574772E+002	3.6551592E-001	-2.7039801E+002
3	0	4.879725909448462E+002	3.6556676E-001	-2.7039093E+002
3	0	4.884725909322151E+002	3.6558944E-001	-2.7040155E+002
3	0	4.889725909195840E+002	3.6548114E-001	-2.7037677E+002
3	0	4.894725909069530E+002	3.6523768E-001	-2.7039801E+002
3	0	4.899725908943219E+002	3.6494243E-001	-2.7037677E+002
3	0	4.904725908816908E+002	3.6495841E-001	-2.7038031E+002
3	0	4.909725908690598E+002	3.6497369E-001	-2.7039093E+002
3	0	4.914725908564287E+002	3.6486721E-001	-2.7036972E+002
3	0	4.919725908437977E+002	3.6468220E-001	-2.7038031E+002
3	0	4.924725908311666E+002	3.6446786E-001	-2.7039093E+002
3	0	4.929725908185355E+002	3.6417809E-001	-2.7039093E+002
3	0	4.934725908059045E+002	3.6371180E-001	-2.7039093E+002
3	0	4.939725907932734E+002	3.6325663E-001	-2.7035205E+002
3	0	4.944725907806423E+002	3.6313242E-001	-2.7037677E+002
3	0	4.949725907680113E+002	3.6300969E-001	-2.7038742E+002
3	0	4.949729907680012E+002	3.6285537E-001	-2.7038742E+002