EC-Lab ASCII FILE
Nb header lines : 55                          

Open Circuit Voltage

Run on channel : 1 (SN 81504)
User : 
CE vs. WE compliance from -10 V to 10 V
Electrode connection : standard
Potential control : Ewe
Ewe ctrl range : min = -2.50 V, max = 2.50 V
Safety Limits :
	Do not start on E overload
Acquisition started on : 05/10/2026 06:22:15.566
Loaded Setting File :  C:\PEM-WE_measurements\2026\372_IV_IV IrOx, 5 min Pt, 30 min C, etched cathode\new station\Loopeis new\1,46 V different time gaps closed cell\Loopeis 1,46V_120s_3_PEIS from 6500Hz to 1000Hz.mps
Saved on :
	File : L_23_Loopeis 1,46V_120s_3_PEIS from 6500Hz to 1000Hz_18_OCV_C01.mpr
	Directory : C:\PEM-WE_measurements\2026\372_IV_IV IrOx, 5 min Pt, 30 min C, etched cathode\new station\Loopeis new\1,46 V different time gaps closed cell\
	Host : 192.168.0.2
Device : SP-150e (SN .005491)
Address : 192.168.0.91
EC-LAB for windows v11.71 (software)
Internet server v28.00 (firmware)
Command interpretor v14.01 (firmware)
Electrode material : 
Initial state : 
Electrolyte : 
Comments : 
Current amplifier : SP-150eB-20A
Electrode surface area : 0.001 cm²
Characteristic mass : 0.001 g
Equivalent Weight : 0.000 g/eq.
Density : 0.000 g/cm3
Volume (V) : 0.001 cm³
Record Analogic IN 1
Text export
   Mode : Standard
   Time format : Elapsed
Cycle Definition : Charge/Discharge alternance
External device configuration :
   device type : Temperature Probe
   device name : Other
   Analog IN 1 : 
      unit : T/Â°C
      max : 100.000 at 2.000 V
      min : 0.000 at 1.460 V
tR (h:m:s)          0:02:0.0000         
dER/dt (mV/h)       1.0                 
record              <Ewe>               
dER (mV)            10.00               
dtR (s)             0.5000              
E range min (V)     -2.500              
E range max (V)     2.500               

mode	error	time/s	<Ewe/V>	Analog IN 1/V	
3	0	1.369856978807729E+003	1.2910572E+000	-2.7037326E+002
3	0	1.370356978795098E+003	1.2977206E+000	-2.7038742E+002
3	0	1.370856978782467E+003	1.2942994E+000	-2.7036618E+002
3	0	1.371356978769836E+003	1.2854558E+000	-2.7037677E+002
3	0	1.371856978757205E+003	1.2696993E+000	-2.7040506E+002
3	0	1.372356978744574E+003	1.2444122E+000	-2.7037677E+002
3	0	1.372856978731943E+003	1.2049694E+000	-2.7037326E+002
3	0	1.373356978719312E+003	1.1389854E+000	-2.7038031E+002
3	0	1.373856978706681E+003	9.8020113E-001	-2.7036618E+002
3	0	1.374356978694050E+003	6.2869674E-001	-2.7035913E+002
3	0	1.374856978681419E+003	4.7874835E-001	-2.7039801E+002
3	0	1.375356978668788E+003	4.2994943E-001	-2.7038385E+002
3	0	1.375856978656157E+003	4.1521028E-001	-2.7038385E+002
3	0	1.376356978643526E+003	4.0948820E-001	-2.7039447E+002
3	0	1.376856978630894E+003	4.0585807E-001	-2.7037326E+002
3	0	1.377356978618263E+003	4.0293074E-001	-2.7038385E+002
3	0	1.377856978605632E+003	4.0123439E-001	-2.7033438E+002
3	0	1.378356978593001E+003	3.9984319E-001	-2.7036267E+002
3	0	1.378856978580370E+003	3.9852199E-001	-2.7039093E+002
3	0	1.379356978567739E+003	3.9739698E-001	-2.7040860E+002
3	0	1.379856978555108E+003	3.9639682E-001	-2.7036618E+002
3	0	1.380356978542477E+003	3.9545318E-001	-2.7038385E+002
3	0	1.380856978529846E+003	3.9448637E-001	-2.7040155E+002
3	0	1.381356978517215E+003	3.9365584E-001	-2.7037677E+002
3	0	1.381856978504584E+003	3.9356327E-001	-2.7038031E+002
3	0	1.382356978491953E+003	3.9340541E-001	-2.7038742E+002
3	0	1.382856978479322E+003	3.9314225E-001	-2.7036972E+002
3	0	1.383356978466691E+003	3.9292911E-001	-2.7038742E+002
3	0	1.383856978454060E+003	3.9264697E-001	-2.7036618E+002
3	0	1.384356978441429E+003	3.9236069E-001	-2.7037326E+002
3	0	1.384856978428797E+003	3.9185840E-001	-2.7037677E+002
3	0	1.385356978416166E+003	3.9136457E-001	-2.7037326E+002
3	0	1.385856978403535E+003	3.9156401E-001	-2.7039447E+002
3	0	1.386356978390904E+003	3.9170736E-001	-2.7035913E+002
3	0	1.386856978378273E+003	3.9170736E-001	-2.7039093E+002
3	0	1.387356978365642E+003	3.9172068E-001	-2.7038031E+002
3	0	1.387856978353011E+003	3.9166039E-001	-2.7037326E+002
3	0	1.388356978340380E+003	3.9153358E-001	-2.7040155E+002
3	0	1.388856978327749E+003	3.9135426E-001	-2.7036618E+002
3	0	1.389356978315118E+003	3.9134261E-001	-2.7036972E+002
3	0	1.389856978302487E+003	3.9204153E-001	-2.7039093E+002
3	0	1.390356978289856E+003	3.9282337E-001	-2.7036972E+002
3	0	1.390856978277225E+003	3.9353260E-001	-2.7038031E+002
3	0	1.391356978264594E+003	3.9430135E-001	-2.7039801E+002
3	0	1.391856978251963E+003	3.9499286E-001	-2.7038385E+002
3	0	1.392356978239332E+003	3.9561051E-001	-2.7036618E+002
3	0	1.392856978226700E+003	3.9592251E-001	-2.7036618E+002
3	0	1.393356978214069E+003	3.9619479E-001	-2.7034851E+002
3	0	1.393856978201438E+003	3.9701003E-001	-2.7037677E+002
3	0	1.394356978188807E+003	3.9768329E-001	-2.7040155E+002
3	0	1.394856978176176E+003	3.9821362E-001	-2.7038031E+002
3	0	1.395356978163545E+003	3.9868453E-001	-2.7036618E+002
3	0	1.395856978150914E+003	3.9902896E-001	-2.7037326E+002
3	0	1.396356978138283E+003	3.9914960E-001	-2.7038385E+002
3	0	1.396856978125652E+003	3.9909092E-001	-2.7037326E+002
3	0	1.397356978113021E+003	3.9900079E-001	-2.7039447E+002
3	0	1.397856978100390E+003	3.9949965E-001	-2.7036972E+002
3	0	1.398356978087759E+003	3.9985567E-001	-2.7037677E+002
3	0	1.398856978075128E+003	4.0002689E-001	-2.7039801E+002
3	0	1.399356978062497E+003	4.0015516E-001	-2.7036972E+002
3	0	1.399856978049866E+003	4.0014100E-001	-2.7039093E+002
3	0	1.400356978037235E+003	3.9996222E-001	-2.7038385E+002
3	0	1.400856978024603E+003	3.9954180E-001	-2.7037326E+002
3	0	1.401356978011972E+003	3.9911157E-001	-2.7037677E+002
3	0	1.401856977999341E+003	3.9922711E-001	-2.7035205E+002
3	0	1.402356977986710E+003	3.9930946E-001	-2.7036267E+002
3	0	1.402856977974079E+003	3.9923510E-001	-2.7037677E+002
3	0	1.403356977961448E+003	3.9906776E-001	-2.7036618E+002
3	0	1.403856977948817E+003	3.9867908E-001	-2.7037677E+002
3	0	1.404356977936186E+003	3.9797297E-001	-2.7040155E+002
3	0	1.404856977923555E+003	3.9778146E-001	-2.7039801E+002
3	0	1.405356977910924E+003	3.9745516E-001	-2.7039801E+002
3	0	1.405856977898293E+003	3.9748570E-001	-2.7038031E+002
3	0	1.406356977885662E+003	3.9742547E-001	-2.7038742E+002
3	0	1.406856977873031E+003	3.9707842E-001	-2.7038031E+002
3	0	1.407356977860400E+003	3.9664859E-001	-2.7036972E+002
3	0	1.407856977847769E+003	3.9625454E-001	-2.7038385E+002
3	0	1.408356977835138E+003	3.9579210E-001	-2.7036618E+002
3	0	1.408856977822506E+003	3.9518046E-001	-2.7039093E+002
3	0	1.409356977809875E+003	3.9477587E-001	-2.7037677E+002
3	0	1.409856977797244E+003	3.9517218E-001	-2.7036267E+002
3	0	1.410356977784613E+003	3.9566845E-001	-2.7038742E+002
3	0	1.410856977771982E+003	3.9596754E-001	-2.7040506E+002
3	0	1.411356977759351E+003	3.9627013E-001	-2.7038385E+002
3	0	1.411856977746720E+003	3.9663568E-001	-2.7036972E+002
3	0	1.412356977734089E+003	3.9687222E-001	-2.7037677E+002
3	0	1.412856977721458E+003	3.9682674E-001	-2.7038742E+002
3	0	1.413356977708827E+003	3.9676744E-001	-2.7037326E+002
3	0	1.413856977696196E+003	3.9725906E-001	-2.7039093E+002
3	0	1.414356977683565E+003	3.9769664E-001	-2.7039093E+002
3	0	1.414856977670934E+003	3.9783317E-001	-2.7038031E+002
3	0	1.415356977658303E+003	3.9780313E-001	-2.7039093E+002
3	0	1.415856977645672E+003	3.9779553E-001	-2.7038385E+002
3	0	1.416356977633041E+003	3.9758173E-001	-2.7038031E+002
3	0	1.416856977620409E+003	3.9716339E-001	-2.7035559E+002
3	0	1.417356977607778E+003	3.9674929E-001	-2.7037677E+002
3	0	1.417856977595147E+003	3.9689541E-001	-2.7037677E+002
3	0	1.418356977582516E+003	3.9698839E-001	-2.7037326E+002
3	0	1.418856977569885E+003	3.9680183E-001	-2.7034143E+002
3	0	1.419356977557254E+003	3.9648959E-001	-2.7038742E+002
3	0	1.419856977544623E+003	3.9615524E-001	-2.7037326E+002
3	0	1.420356977531992E+003	3.9572978E-001	-2.7038385E+002
3	0	1.420856977519361E+003	3.9511129E-001	-2.7036618E+002
3	0	1.421356977506730E+003	3.9441708E-001	-2.7037677E+002
3	0	1.421856977494099E+003	3.9431268E-001	-2.7039093E+002
3	0	1.422356977481468E+003	3.9423570E-001	-2.7038385E+002
3	0	1.422856977468837E+003	3.9391130E-001	-2.7038031E+002
3	0	1.423356977456206E+003	3.9352360E-001	-2.7036972E+002
3	0	1.423856977443575E+003	3.9307892E-001	-2.7040506E+002
3	0	1.424356977430944E+003	3.9253432E-001	-2.7038031E+002
3	0	1.424856977418312E+003	3.9182729E-001	-2.7038742E+002
3	0	1.425356977405681E+003	3.9115682E-001	-2.7037326E+002
3	0	1.425856977393050E+003	3.9099225E-001	-2.7036972E+002
3	0	1.426356977380419E+003	3.9086655E-001	-2.7036972E+002
3	0	1.426856977367788E+003	3.9051706E-001	-2.7035913E+002
3	0	1.427356977355157E+003	3.9005184E-001	-2.7038742E+002
3	0	1.427856977342526E+003	3.8951421E-001	-2.7037326E+002
3	0	1.428356977329895E+003	3.8902733E-001	-2.7037677E+002
3	0	1.428856977317264E+003	3.8847020E-001	-2.7036267E+002
3	0	1.429356977304633E+003	3.8801000E-001	-2.7037677E+002
3	0	1.429856977292002E+003	3.8812599E-001	-2.7039801E+002
3	0	1.430356977279371E+003	3.8835803E-001	-2.7036618E+002
3	0	1.430856977266740E+003	3.8853881E-001	-2.7037326E+002
3	0	1.431356977254109E+003	3.8867775E-001	-2.7035559E+002
3	0	1.431856977241478E+003	3.8884720E-001	-2.7038385E+002
3	0	1.432356977228847E+003	3.8895842E-001	-2.7036972E+002
3	0	1.432856977216215E+003	3.8887465E-001	-2.7036618E+002
3	0	1.433356977203584E+003	3.8872242E-001	-2.7040506E+002
3	0	1.433856977190953E+003	3.8898358E-001	-2.7038385E+002
3	0	1.434356977178322E+003	3.8923126E-001	-2.7038031E+002
3	0	1.434856977165691E+003	3.8922846E-001	-2.7036267E+002
3	0	1.435356977153060E+003	3.8907498E-001	-2.7038031E+002
3	0	1.435856977140429E+003	3.8888744E-001	-2.7038031E+002
3	0	1.436356977127798E+003	3.8864839E-001	-2.7038031E+002
3	0	1.436856977115167E+003	3.8820270E-001	-2.7039447E+002
3	0	1.437356977102536E+003	3.8776523E-001	-2.7038031E+002
3	0	1.437856977089905E+003	3.8776380E-001	-2.7037677E+002
3	0	1.438356977077274E+003	3.8779935E-001	-2.7039447E+002
3	0	1.438856977064643E+003	3.8760877E-001	-2.7039093E+002
3	0	1.439356977052012E+003	3.8724568E-001	-2.7037677E+002
3	0	1.439856977039381E+003	3.8688833E-001	-2.7038385E+002
3	0	1.440356977026750E+003	3.8647914E-001	-2.7036972E+002
3	0	1.440856977014118E+003	3.8591552E-001	-2.7037326E+002
3	0	1.441356977001487E+003	3.8533723E-001	-2.7035913E+002
3	0	1.441856976988856E+003	3.8521147E-001	-2.7036972E+002
3	0	1.442356976976225E+003	3.8511887E-001	-2.7039447E+002
3	0	1.442856976963594E+003	3.8484159E-001	-2.7036972E+002
3	0	1.443356976950963E+003	3.8449016E-001	-2.7037677E+002
3	0	1.443856976938332E+003	3.8412353E-001	-2.7039801E+002
3	0	1.444356976925701E+003	3.8370451E-001	-2.7036972E+002
3	0	1.444856976913070E+003	3.8310462E-001	-2.7037326E+002
3	0	1.445356976900439E+003	3.8250634E-001	-2.7038385E+002
3	0	1.445856976887808E+003	3.8234293E-001	-2.7037326E+002
3	0	1.446356976875177E+003	3.8221538E-001	-2.7038031E+002
3	0	1.446856976862546E+003	3.8193586E-001	-2.7039447E+002
3	0	1.447356976849915E+003	3.8155729E-001	-2.7035205E+002
3	0	1.447856976837284E+003	3.8117567E-001	-2.7038742E+002
3	0	1.448356976824653E+003	3.8073385E-001	-2.7040155E+002
3	0	1.448856976812021E+003	3.8023803E-001	-2.7039447E+002
3	0	1.449356976799390E+003	3.7980428E-001	-2.7036267E+002
3	0	1.449856976786759E+003	3.7987438E-001	-2.7039447E+002
3	0	1.450356976774128E+003	3.8008866E-001	-2.7039093E+002
3	0	1.450856976761497E+003	3.8021752E-001	-2.7037326E+002
3	0	1.451356976748866E+003	3.8033468E-001	-2.7038031E+002
3	0	1.451856976736235E+003	3.8052374E-001	-2.7036618E+002
3	0	1.452356976723604E+003	3.8063824E-001	-2.7040155E+002
3	0	1.452856976710973E+003	3.8057074E-001	-2.7039093E+002
3	0	1.453356976698342E+003	3.8045976E-001	-2.7038385E+002
3	0	1.453856976685711E+003	3.8074738E-001	-2.7038385E+002
3	0	1.454356976673080E+003	3.8099802E-001	-2.7038385E+002
3	0	1.454856976660449E+003	3.8104615E-001	-2.7039801E+002
3	0	1.455356976647818E+003	3.8097069E-001	-2.7039447E+002
3	0	1.455856976635187E+003	3.8085976E-001	-2.7040506E+002
3	0	1.456356976622556E+003	3.8064447E-001	-2.7038385E+002
3	0	1.456856976609924E+003	3.8026354E-001	-2.7039093E+002
3	0	1.457356976597293E+003	3.7984440E-001	-2.7037326E+002
3	0	1.457856976584662E+003	3.7984225E-001	-2.7037326E+002
3	0	1.458356976572031E+003	3.7983570E-001	-2.7038742E+002
3	0	1.458856976559400E+003	3.7965849E-001	-2.7036267E+002
3	0	1.459356976546769E+003	3.7935421E-001	-2.7038031E+002
3	0	1.459856976534138E+003	3.7904876E-001	-2.7039093E+002
3	0	1.460356976521507E+003	3.7867710E-001	-2.7035913E+002
3	0	1.460856976508876E+003	3.7815967E-001	-2.7037677E+002
3	0	1.461356976496245E+003	3.7765455E-001	-2.7036972E+002
3	0	1.461856976483614E+003	3.7751049E-001	-2.7038385E+002
3	0	1.462356976470983E+003	3.7742203E-001	-2.7038031E+002
3	0	1.462856976458352E+003	3.7718382E-001	-2.7036972E+002
3	0	1.463356976445721E+003	3.7682727E-001	-2.7036972E+002
3	0	1.463856976433090E+003	3.7646696E-001	-2.7038742E+002
3	0	1.464356976420459E+003	3.7595814E-001	-2.7037326E+002
3	0	1.464856976407827E+003	3.7537003E-001	-2.7036267E+002
3	0	1.465356976395196E+003	3.7480614E-001	-2.7037677E+002
3	0	1.465856976382565E+003	3.7462017E-001	-2.7038385E+002
3	0	1.466356976369934E+003	3.7447965E-001	-2.7037677E+002
3	0	1.466856976357303E+003	3.7422332E-001	-2.7039093E+002
3	0	1.467356976344672E+003	3.7384796E-001	-2.7038742E+002
3	0	1.467856976332041E+003	3.7348154E-001	-2.7039093E+002
3	0	1.468356976319410E+003	3.7310657E-001	-2.7038031E+002
3	0	1.468856976306779E+003	3.7269342E-001	-2.7036972E+002
3	0	1.469356976294148E+003	3.7227780E-001	-2.7037677E+002
3	0	1.469856976281517E+003	3.7230763E-001	-2.7038031E+002
3	0	1.470356976268886E+003	3.7245238E-001	-2.7036972E+002
3	0	1.470856976256255E+003	3.7254664E-001	-2.7036267E+002
3	0	1.471356976243624E+003	3.7258837E-001	-2.7036618E+002
3	0	1.471856976230993E+003	3.7268928E-001	-2.7038385E+002
3	0	1.472356976218362E+003	3.7278989E-001	-2.7039801E+002
3	0	1.472856976205730E+003	3.7275735E-001	-2.7036972E+002
3	0	1.473356976193099E+003	3.7265283E-001	-2.7040155E+002
3	0	1.473856976180468E+003	3.7283689E-001	-2.7038385E+002
3	0	1.474356976167837E+003	3.7303212E-001	-2.7038385E+002
3	0	1.474856976155206E+003	3.7308314E-001	-2.7039093E+002
3	0	1.475356976142575E+003	3.7301034E-001	-2.7037677E+002
3	0	1.475856976129944E+003	3.7292004E-001	-2.7037326E+002
3	0	1.476356976117313E+003	3.7275171E-001	-2.7039093E+002
3	0	1.476856976104682E+003	3.7242004E-001	-2.7035559E+002
3	0	1.477356976092051E+003	3.7207338E-001	-2.7038742E+002
3	0	1.477856976079420E+003	3.7205428E-001	-2.7038385E+002
3	0	1.478356976066789E+003	3.7205684E-001	-2.7036618E+002
3	0	1.478856976054158E+003	3.7191793E-001	-2.7036618E+002
3	0	1.479356976041527E+003	3.7166366E-001	-2.7036972E+002
3	0	1.479856976028896E+003	3.7137401E-001	-2.7036972E+002
3	0	1.480356976016265E+003	3.7105858E-001	-2.7036972E+002
3	0	1.480856976003633E+003	3.7063670E-001	-2.7039093E+002
3	0	1.481356975991002E+003	3.7017864E-001	-2.7037326E+002
3	0	1.481856975978371E+003	3.7002316E-001	-2.7037326E+002
3	0	1.482356975965740E+003	3.6990520E-001	-2.7039447E+002
3	0	1.482856975953109E+003	3.6965126E-001	-2.7039801E+002
3	0	1.483356975940478E+003	3.6930731E-001	-2.7035913E+002
3	0	1.483856975927847E+003	3.6897907E-001	-2.7036972E+002
3	0	1.484356975915216E+003	3.6863500E-001	-2.7037677E+002
3	0	1.484856975902585E+003	3.6819333E-001	-2.7035913E+002
3	0	1.485356975889954E+003	3.6772865E-001	-2.7037326E+002
3	0	1.485856975877323E+003	3.6755726E-001	-2.7037677E+002
3	0	1.486356975864692E+003	3.6745706E-001	-2.7040155E+002
3	0	1.486856975852061E+003	3.6722267E-001	-2.7038742E+002
3	0	1.487356975839430E+003	3.6688307E-001	-2.7038385E+002
3	0	1.487856975826799E+003	3.6655501E-001	-2.7039447E+002
3	0	1.488356975814168E+003	3.6617401E-001	-2.7038031E+002
3	0	1.488856975801536E+003	3.6570829E-001	-2.7036618E+002
3	0	1.489356975788905E+003	3.6527863E-001	-2.7037326E+002
3	0	1.489357375788895E+003	3.6515498E-001	-2.7038385E+002