EC-Lab ASCII FILE
Nb header lines : 55                          

Open Circuit Voltage

Run on channel : 1 (SN 81504)
User : 
CE vs. WE compliance from -10 V to 10 V
Electrode connection : standard
Potential control : Ewe
Ewe ctrl range : min = -2.50 V, max = 2.50 V
Safety Limits :
	Do not start on E overload
Acquisition started on : 05/10/2026 06:22:15.566
Loaded Setting File :  C:\PEM-WE_measurements\2026\372_IV_IV IrOx, 5 min Pt, 30 min C, etched cathode\new station\Loopeis new\1,46 V different time gaps closed cell\Loopeis 1,46V_120s_3_PEIS from 6500Hz to 1000Hz.mps
Saved on :
	File : L_23_Loopeis 1,46V_120s_3_PEIS from 6500Hz to 1000Hz_08_OCV_C01.mpr
	Directory : C:\PEM-WE_measurements\2026\372_IV_IV IrOx, 5 min Pt, 30 min C, etched cathode\new station\Loopeis new\1,46 V different time gaps closed cell\
	Host : 192.168.0.2
Device : SP-150e (SN .005491)
Address : 192.168.0.91
EC-LAB for windows v11.71 (software)
Internet server v28.00 (firmware)
Command interpretor v14.01 (firmware)
Electrode material : 
Initial state : 
Electrolyte : 
Comments : 
Current amplifier : SP-150eB-20A
Electrode surface area : 0.001 cm²
Characteristic mass : 0.001 g
Equivalent Weight : 0.000 g/eq.
Density : 0.000 g/cm3
Volume (V) : 0.001 cm³
Record Analogic IN 1
Text export
   Mode : Standard
   Time format : Elapsed
Cycle Definition : Charge/Discharge alternance
External device configuration :
   device type : Temperature Probe
   device name : Other
   Analog IN 1 : 
      unit : T/Â°C
      max : 100.000 at 2.000 V
      min : 0.000 at 1.460 V
tR (h:m:s)          0:02:0.0000         
dER/dt (mV/h)       1.0                 
record              <Ewe>               
dER (mV)            10.00               
dtR (s)             0.5000              
E range min (V)     -2.500              
E range max (V)     2.500               

mode	error	time/s	<Ewe/V>	Analog IN 1/V	
3	0	5.404123928915214E+002	1.1238933E+000	-2.7036618E+002
3	0	5.409123928788904E+002	1.2585741E+000	-2.7037677E+002
3	0	5.414123928662593E+002	1.2556393E+000	-2.7040860E+002
3	0	5.419123928536283E+002	1.2463231E+000	-2.7038385E+002
3	0	5.424123928409972E+002	1.2282206E+000	-2.7038385E+002
3	0	5.429123928283661E+002	1.1973068E+000	-2.7039801E+002
3	0	5.434123928157351E+002	1.1455481E+000	-2.7036618E+002
3	0	5.439123928031040E+002	1.0476340E+000	-2.7039093E+002
3	0	5.444123927904730E+002	7.6987606E-001	-2.7040155E+002
3	0	5.449123927778419E+002	5.0960243E-001	-2.7040155E+002
3	0	5.454123927652108E+002	4.1213748E-001	-2.7038031E+002
3	0	5.459123927525798E+002	3.8223517E-001	-2.7038031E+002
3	0	5.464123927399487E+002	3.7494308E-001	-2.7037677E+002
3	0	5.469123927273176E+002	3.7273696E-001	-2.7037326E+002
3	0	5.474123927146866E+002	3.7129435E-001	-2.7041919E+002
3	0	5.479123927020555E+002	3.6994684E-001	-2.7038742E+002
3	0	5.484123926894245E+002	3.6863479E-001	-2.7036267E+002
3	0	5.489123926767934E+002	3.6729664E-001	-2.7038031E+002
3	0	5.494123926641623E+002	3.6610362E-001	-2.7035913E+002
3	0	5.499123926515313E+002	3.6564997E-001	-2.7036618E+002
3	0	5.504123926389002E+002	3.6564690E-001	-2.7039447E+002
3	0	5.509123926262691E+002	3.6546579E-001	-2.7037326E+002
3	0	5.514123926136381E+002	3.6524102E-001	-2.7038385E+002
3	0	5.519123926010070E+002	3.6503115E-001	-2.7039093E+002
3	0	5.524123925883760E+002	3.6479434E-001	-2.7039093E+002
3	0	5.529123925757449E+002	3.6439562E-001	-2.7038742E+002
3	0	5.534123925631138E+002	3.6397743E-001	-2.7037677E+002
3	0	5.539123925504828E+002	3.6414361E-001	-2.7035913E+002
3	0	5.544123925378517E+002	3.6451575E-001	-2.7038031E+002
3	0	5.549123925252206E+002	3.6472929E-001	-2.7039447E+002
3	0	5.554123925125896E+002	3.6480856E-001	-2.7039447E+002
3	0	5.559123924999585E+002	3.6484513E-001	-2.7041214E+002
3	0	5.564123924873275E+002	3.6488917E-001	-2.7038385E+002
3	0	5.569123924746964E+002	3.6469260E-001	-2.7038742E+002
3	0	5.574123924620653E+002	3.6434430E-001	-2.7038385E+002
3	0	5.579123924494343E+002	3.6459085E-001	-2.7037677E+002
3	0	5.584123924368032E+002	3.6500499E-001	-2.7035559E+002
3	0	5.589123924241721E+002	3.6523733E-001	-2.7040860E+002
3	0	5.594123924115411E+002	3.6530989E-001	-2.7036618E+002
3	0	5.599123923989100E+002	3.6530772E-001	-2.7039801E+002
3	0	5.604123923862790E+002	3.6534077E-001	-2.7038385E+002
3	0	5.609123923736479E+002	3.6511508E-001	-2.7038031E+002
3	0	5.614123923610168E+002	3.6486027E-001	-2.7039093E+002
3	0	5.619123923483858E+002	3.6501354E-001	-2.7036972E+002
3	0	5.624123923357547E+002	3.6540180E-001	-2.7036972E+002
3	0	5.629123923231236E+002	3.6562321E-001	-2.7039447E+002
3	0	5.634123923104926E+002	3.6581588E-001	-2.7036267E+002
3	0	5.639123922978615E+002	3.6602196E-001	-2.7037326E+002
3	0	5.644123922852305E+002	3.6635131E-001	-2.7039093E+002
3	0	5.649123922725994E+002	3.6648992E-001	-2.7039093E+002
3	0	5.654123922599683E+002	3.6668143E-001	-2.7039093E+002
3	0	5.659123922473373E+002	3.6741203E-001	-2.7039093E+002
3	0	5.664123922347062E+002	3.6839521E-001	-2.7038031E+002
3	0	5.669123922220751E+002	3.6922571E-001	-2.7039093E+002
3	0	5.674123922094441E+002	3.6987165E-001	-2.7038031E+002
3	0	5.679123921968130E+002	3.7042010E-001	-2.7038385E+002
3	0	5.684123921841820E+002	3.7085220E-001	-2.7040860E+002
3	0	5.689123921715509E+002	3.7099862E-001	-2.7039801E+002
3	0	5.694123921589198E+002	3.7093553E-001	-2.7038385E+002
3	0	5.699123921462888E+002	3.7132281E-001	-2.7038742E+002
3	0	5.704123921336577E+002	3.7191617E-001	-2.7036618E+002
3	0	5.709123921210266E+002	3.7226939E-001	-2.7039447E+002
3	0	5.714123921083956E+002	3.7249377E-001	-2.7038385E+002
3	0	5.719123920957645E+002	3.7257180E-001	-2.7038742E+002
3	0	5.724123920831335E+002	3.7260011E-001	-2.7036972E+002
3	0	5.729123920705024E+002	3.7237772E-001	-2.7038031E+002
3	0	5.734123920578713E+002	3.7198281E-001	-2.7037677E+002
3	0	5.739123920452403E+002	3.7200856E-001	-2.7036267E+002
3	0	5.744123920326092E+002	3.7226740E-001	-2.7039447E+002
3	0	5.749123920199781E+002	3.7233430E-001	-2.7038742E+002
3	0	5.754123920073471E+002	3.7228337E-001	-2.7038031E+002
3	0	5.759123919947160E+002	3.7215355E-001	-2.7039093E+002
3	0	5.764123919820850E+002	3.7195110E-001	-2.7038385E+002
3	0	5.769123919694539E+002	3.7155399E-001	-2.7037326E+002
3	0	5.774123919568228E+002	3.7102222E-001	-2.7036267E+002
3	0	5.779123919441918E+002	3.7089735E-001	-2.7039447E+002
3	0	5.784123919315607E+002	3.7105641E-001	-2.7038742E+002
3	0	5.789123919189296E+002	3.7103462E-001	-2.7038031E+002
3	0	5.794123919062986E+002	3.7084967E-001	-2.7038385E+002
3	0	5.799123918936675E+002	3.7062079E-001	-2.7035559E+002
3	0	5.804123918810365E+002	3.7028375E-001	-2.7037677E+002
3	0	5.809123918684054E+002	3.6973640E-001	-2.7037326E+002
3	0	5.814123918557743E+002	3.6906049E-001	-2.7037677E+002
3	0	5.819123918431433E+002	3.6882651E-001	-2.7039447E+002
3	0	5.824123918305122E+002	3.6884436E-001	-2.7039447E+002
3	0	5.829123918178811E+002	3.6870036E-001	-2.7039093E+002
3	0	5.834123918052501E+002	3.6849681E-001	-2.7039801E+002
3	0	5.839123917926190E+002	3.6834118E-001	-2.7037677E+002
3	0	5.844123917799880E+002	3.6825854E-001	-2.7038742E+002
3	0	5.849123917673569E+002	3.6808163E-001	-2.7040506E+002
3	0	5.854123917547258E+002	3.6793354E-001	-2.7038742E+002
3	0	5.859123917420948E+002	3.6820632E-001	-2.7037326E+002
3	0	5.864123917294637E+002	3.6877984E-001	-2.7037677E+002
3	0	5.869123917168326E+002	3.6922473E-001	-2.7039447E+002
3	0	5.874123917042016E+002	3.6949563E-001	-2.7038742E+002
3	0	5.879123916915705E+002	3.6969700E-001	-2.7036267E+002
3	0	5.884123916789395E+002	3.6984280E-001	-2.7035913E+002
3	0	5.889123916663084E+002	3.6969715E-001	-2.7039801E+002
3	0	5.894123916536773E+002	3.6942381E-001	-2.7038385E+002
3	0	5.899123916410463E+002	3.6949289E-001	-2.7035205E+002
3	0	5.904123916284152E+002	3.6978167E-001	-2.7038742E+002
3	0	5.909123916157841E+002	3.6987579E-001	-2.7037677E+002
3	0	5.914123916031531E+002	3.6979589E-001	-2.7038031E+002
3	0	5.919123915905220E+002	3.6967272E-001	-2.7038031E+002
3	0	5.924123915778910E+002	3.6945418E-001	-2.7038385E+002
3	0	5.929123915652599E+002	3.6901978E-001	-2.7036267E+002
3	0	5.934123915526288E+002	3.6849350E-001	-2.7041214E+002
3	0	5.939123915399978E+002	3.6833000E-001	-2.7036972E+002
3	0	5.944123915273667E+002	3.6838558E-001	-2.7038742E+002
3	0	5.949123915147356E+002	3.6830354E-001	-2.7038742E+002
3	0	5.954123915021046E+002	3.6808729E-001	-2.7038031E+002
3	0	5.959123914894735E+002	3.6781058E-001	-2.7039801E+002
3	0	5.964123914768425E+002	3.6741260E-001	-2.7038742E+002
3	0	5.969123914642114E+002	3.6686212E-001	-2.7038385E+002
3	0	5.974123914515803E+002	3.6623746E-001	-2.7039801E+002
3	0	5.979123914389493E+002	3.6592373E-001	-2.7035913E+002
3	0	5.984123914263182E+002	3.6587054E-001	-2.7040155E+002
3	0	5.989123914136871E+002	3.6566967E-001	-2.7038031E+002
3	0	5.994123914010561E+002	3.6534449E-001	-2.7039093E+002
3	0	5.999123913884250E+002	3.6495721E-001	-2.7038385E+002
3	0	6.004123913757940E+002	3.6455184E-001	-2.7038742E+002
3	0	6.009123913631629E+002	3.6392930E-001	-2.7038031E+002
3	0	6.014123913505318E+002	3.6331114E-001	-2.7039093E+002
3	0	6.019123913379008E+002	3.6298335E-001	-2.7035559E+002
3	0	6.024123913252697E+002	3.6285493E-001	-2.7036972E+002
3	0	6.029123913126386E+002	3.6260384E-001	-2.7034851E+002
3	0	6.034123913000076E+002	3.6227983E-001	-2.7039801E+002
3	0	6.039123912873765E+002	3.6201039E-001	-2.7036972E+002
3	0	6.044123912747455E+002	3.6178860E-001	-2.7039447E+002
3	0	6.049123912621144E+002	3.6152273E-001	-2.7037677E+002
3	0	6.054123912494833E+002	3.6125469E-001	-2.7036972E+002
3	0	6.059123912368523E+002	3.6139914E-001	-2.7036972E+002
3	0	6.064123912242212E+002	3.6182958E-001	-2.7035205E+002
3	0	6.069123912115901E+002	3.6222339E-001	-2.7037326E+002
3	0	6.074123911989591E+002	3.6247405E-001	-2.7039801E+002
3	0	6.079123911863280E+002	3.6260107E-001	-2.7039447E+002
3	0	6.084123911736970E+002	3.6265218E-001	-2.7035913E+002
3	0	6.089123911610659E+002	3.6254850E-001	-2.7038031E+002
3	0	6.094123911484348E+002	3.6230326E-001	-2.7036267E+002
3	0	6.099123911358038E+002	3.6230233E-001	-2.7039447E+002
3	0	6.104123911231727E+002	3.6248341E-001	-2.7039447E+002
3	0	6.109123911105416E+002	3.6252755E-001	-2.7035913E+002
3	0	6.114123910979106E+002	3.6244997E-001	-2.7036267E+002
3	0	6.119123910852795E+002	3.6233228E-001	-2.7035913E+002
3	0	6.124123910726485E+002	3.6211717E-001	-2.7038742E+002
3	0	6.129123910600174E+002	3.6171141E-001	-2.7038385E+002
3	0	6.134123910473863E+002	3.6121142E-001	-2.7038385E+002
3	0	6.139123910347553E+002	3.6102080E-001	-2.7038385E+002
3	0	6.144123910221242E+002	3.6099806E-001	-2.7040506E+002
3	0	6.149123910094931E+002	3.6088017E-001	-2.7036618E+002
3	0	6.154123909968621E+002	3.6067829E-001	-2.7038031E+002
3	0	6.159123909842310E+002	3.6037669E-001	-2.7040155E+002
3	0	6.164123909716000E+002	3.6007091E-001	-2.7038031E+002
3	0	6.169123909589689E+002	3.5956162E-001	-2.7037677E+002
3	0	6.174123909463378E+002	3.5892054E-001	-2.7038385E+002
3	0	6.179123909337068E+002	3.5861504E-001	-2.7036972E+002
3	0	6.184123909210757E+002	3.5847425E-001	-2.7039447E+002
3	0	6.189123909084447E+002	3.5822737E-001	-2.7039447E+002
3	0	6.194123908958136E+002	3.5788587E-001	-2.7038031E+002
3	0	6.199123908831825E+002	3.5750166E-001	-2.7037677E+002
3	0	6.204123908705515E+002	3.5713074E-001	-2.7039447E+002
3	0	6.209123908579204E+002	3.5653734E-001	-2.7036972E+002
3	0	6.214123908452893E+002	3.5593754E-001	-2.7036618E+002
3	0	6.219123908326583E+002	3.5563949E-001	-2.7039093E+002
3	0	6.224123908200272E+002	3.5552970E-001	-2.7040155E+002
3	0	6.229123908073962E+002	3.5533085E-001	-2.7038031E+002
3	0	6.234123907947651E+002	3.5505870E-001	-2.7039447E+002
3	0	6.239123907821340E+002	3.5475287E-001	-2.7038742E+002
3	0	6.244123907695030E+002	3.5450444E-001	-2.7038385E+002
3	0	6.249123907568719E+002	3.5418653E-001	-2.7039801E+002
3	0	6.254123907442408E+002	3.5392043E-001	-2.7039801E+002
3	0	6.259123907316098E+002	3.5400113E-001	-2.7039093E+002
3	0	6.264123907189787E+002	3.5428739E-001	-2.7036267E+002
3	0	6.269123907063477E+002	3.5454166E-001	-2.7038385E+002
3	0	6.274123906937166E+002	3.5472396E-001	-2.7038385E+002
3	0	6.279123906810855E+002	3.5485891E-001	-2.7039801E+002
3	0	6.284123906684545E+002	3.5497332E-001	-2.7038031E+002
3	0	6.289123906558234E+002	3.5489470E-001	-2.7035559E+002
3	0	6.294123906431923E+002	3.5464504E-001	-2.7039093E+002
3	0	6.299123906305613E+002	3.5464925E-001	-2.7037326E+002
3	0	6.304123906179302E+002	3.5477084E-001	-2.7037677E+002
3	0	6.309123906052992E+002	3.5478216E-001	-2.7037677E+002
3	0	6.314123905926681E+002	3.5467643E-001	-2.7038385E+002
3	0	6.319123905800370E+002	3.5449803E-001	-2.7037677E+002
3	0	6.324123905674060E+002	3.5428375E-001	-2.7034143E+002
3	0	6.329123905547749E+002	3.5392958E-001	-2.7038385E+002
3	0	6.334123905421438E+002	3.5348910E-001	-2.7040506E+002
3	0	6.339123905295128E+002	3.5328701E-001	-2.7036618E+002
3	0	6.344123905168817E+002	3.5324487E-001	-2.7038385E+002
3	0	6.349123905042507E+002	3.5310972E-001	-2.7039801E+002
3	0	6.354123904916196E+002	3.5288909E-001	-2.7039093E+002
3	0	6.359123904789885E+002	3.5257992E-001	-2.7038742E+002
3	0	6.364123904663575E+002	3.5222393E-001	-2.7039093E+002
3	0	6.369123904537264E+002	3.5177040E-001	-2.7039447E+002
3	0	6.374123904410953E+002	3.5119909E-001	-2.7040155E+002
3	0	6.379123904284643E+002	3.5092390E-001	-2.7037677E+002
3	0	6.384123904158332E+002	3.5081729E-001	-2.7039447E+002
3	0	6.389123904032022E+002	3.5064283E-001	-2.7039447E+002
3	0	6.394123903905711E+002	3.5036254E-001	-2.7036618E+002
3	0	6.399123903779400E+002	3.5004219E-001	-2.7036618E+002
3	0	6.404123903653090E+002	3.4970370E-001	-2.7038742E+002
3	0	6.409123903526779E+002	3.4922880E-001	-2.7038385E+002
3	0	6.414123903400468E+002	3.4870973E-001	-2.7038031E+002
3	0	6.419123903274158E+002	3.4841797E-001	-2.7038385E+002
3	0	6.424123903147847E+002	3.4828776E-001	-2.7040860E+002
3	0	6.429123903021537E+002	3.4810269E-001	-2.7040155E+002
3	0	6.434123902895226E+002	3.4784457E-001	-2.7037677E+002
3	0	6.439123902768915E+002	3.4758982E-001	-2.7039093E+002
3	0	6.444123902642605E+002	3.4737933E-001	-2.7038385E+002
3	0	6.449123902516294E+002	3.4712860E-001	-2.7036972E+002
3	0	6.454123902389983E+002	3.4687462E-001	-2.7038742E+002
3	0	6.459123902263673E+002	3.4691110E-001	-2.7040155E+002
3	0	6.464123902137362E+002	3.4717757E-001	-2.7040155E+002
3	0	6.469123902011052E+002	3.4742016E-001	-2.7037326E+002
3	0	6.474123901884741E+002	3.4757623E-001	-2.7037677E+002
3	0	6.479123901758430E+002	3.4764388E-001	-2.7036267E+002
3	0	6.484123901632120E+002	3.4762263E-001	-2.7039093E+002
3	0	6.489123901505809E+002	3.4745622E-001	-2.7036618E+002
3	0	6.494123901379498E+002	3.4719676E-001	-2.7036972E+002
3	0	6.499123901253188E+002	3.4715858E-001	-2.7040155E+002
3	0	6.504123901126877E+002	3.4724259E-001	-2.7037326E+002
3	0	6.509123901000567E+002	3.4723300E-001	-2.7039093E+002
3	0	6.514123900874256E+002	3.4712806E-001	-2.7036972E+002
3	0	6.519123900747945E+002	3.4694839E-001	-2.7034497E+002
3	0	6.524123900621635E+002	3.4676296E-001	-2.7035559E+002
3	0	6.529123900495324E+002	3.4640807E-001	-2.7039801E+002
3	0	6.534123900369013E+002	3.4596494E-001	-2.7040155E+002
3	0	6.539123900242703E+002	3.4576139E-001	-2.7035205E+002
3	0	6.544123900116392E+002	3.4572244E-001	-2.7036618E+002
3	0	6.549123899990082E+002	3.4563425E-001	-2.7036972E+002
3	0	6.554123899863771E+002	3.4544677E-001	-2.7038742E+002
3	0	6.559123899737460E+002	3.4519574E-001	-2.7037326E+002
3	0	6.564123899611150E+002	3.4491271E-001	-2.7039093E+002
3	0	6.569123899484839E+002	3.4446990E-001	-2.7040155E+002
3	0	6.574123899358528E+002	3.4399512E-001	-2.7036618E+002
3	0	6.579123899232218E+002	3.4373844E-001	-2.7037677E+002
3	0	6.584123899105907E+002	3.4365544E-001	-2.7037326E+002
3	0	6.589123898979597E+002	3.4351224E-001	-2.7039093E+002
3	0	6.594123898853286E+002	3.4329391E-001	-2.7036618E+002
3	0	6.599123898726975E+002	3.4301877E-001	-2.7037677E+002
3	0	6.599357898721064E+002	3.4285051E-001	-2.7038742E+002