EC-Lab ASCII FILE
Nb header lines : 55                          

Open Circuit Voltage

Run on channel : 1 (SN 81504)
User : 
CE vs. WE compliance from -10 V to 10 V
Electrode connection : standard
Potential control : Ewe
Ewe ctrl range : min = -2.50 V, max = 2.50 V
Safety Limits :
	Do not start on E overload
Acquisition started on : 05/10/2026 06:22:15.566
Loaded Setting File :  C:\PEM-WE_measurements\2026\372_IV_IV IrOx, 5 min Pt, 30 min C, etched cathode\new station\Loopeis new\1,46 V different time gaps closed cell\Loopeis 1,46V_120s_3_PEIS from 6500Hz to 1000Hz.mps
Saved on :
	File : L_23_Loopeis 1,46V_120s_3_PEIS from 6500Hz to 1000Hz_14_OCV_C01.mpr
	Directory : C:\PEM-WE_measurements\2026\372_IV_IV IrOx, 5 min Pt, 30 min C, etched cathode\new station\Loopeis new\1,46 V different time gaps closed cell\
	Host : 192.168.0.2
Device : SP-150e (SN .005491)
Address : 192.168.0.91
EC-LAB for windows v11.71 (software)
Internet server v28.00 (firmware)
Command interpretor v14.01 (firmware)
Electrode material : 
Initial state : 
Electrolyte : 
Comments : 
Current amplifier : SP-150eB-20A
Electrode surface area : 0.001 cm²
Characteristic mass : 0.001 g
Equivalent Weight : 0.000 g/eq.
Density : 0.000 g/cm3
Volume (V) : 0.001 cm³
Record Analogic IN 1
Text export
   Mode : Standard
   Time format : Elapsed
Cycle Definition : Charge/Discharge alternance
External device configuration :
   device type : Temperature Probe
   device name : Other
   Analog IN 1 : 
      unit : T/Â°C
      max : 100.000 at 2.000 V
      min : 0.000 at 1.460 V
tR (h:m:s)          0:02:0.0000         
dER/dt (mV/h)       1.0                 
record              <Ewe>               
dER (mV)            10.00               
dtR (s)             0.5000              
E range min (V)     -2.500              
E range max (V)     2.500               

mode	error	time/s	<Ewe/V>	Analog IN 1/V	
3	0	1.037644183765078E+003	1.2911321E+000	-2.7040860E+002
3	0	1.038144183752447E+003	1.2977999E+000	-2.7034851E+002
3	0	1.038644183739816E+003	1.2942281E+000	-2.7035913E+002
3	0	1.039144183727185E+003	1.2848065E+000	-2.7038031E+002
3	0	1.039644183714554E+003	1.2676368E+000	-2.7039801E+002
3	0	1.040144183701923E+003	1.2394013E+000	-2.7036267E+002
3	0	1.040644183689292E+003	1.1936271E+000	-2.7038385E+002
3	0	1.041144183676661E+003	1.1115384E+000	-2.7034851E+002
3	0	1.041644183664030E+003	8.7902611E-001	-2.7035913E+002
3	0	1.042144183651399E+003	5.5909675E-001	-2.7039093E+002
3	0	1.042644183638768E+003	4.4740802E-001	-2.7035559E+002
3	0	1.043144183626137E+003	4.1009158E-001	-2.7038742E+002
3	0	1.043644183613505E+003	3.9893606E-001	-2.7036618E+002
3	0	1.044144183600874E+003	3.9465937E-001	-2.7037677E+002
3	0	1.044644183588243E+003	3.9166048E-001	-2.7038385E+002
3	0	1.045144183575612E+003	3.8905400E-001	-2.7037677E+002
3	0	1.045644183562981E+003	3.8702834E-001	-2.7037677E+002
3	0	1.046144183550350E+003	3.8598090E-001	-2.7039093E+002
3	0	1.046644183537719E+003	3.8507521E-001	-2.7040506E+002
3	0	1.047144183525088E+003	3.8427418E-001	-2.7038385E+002
3	0	1.047644183512457E+003	3.8377458E-001	-2.7039447E+002
3	0	1.048144183499826E+003	3.8352811E-001	-2.7038031E+002
3	0	1.048644183487195E+003	3.8329557E-001	-2.7035913E+002
3	0	1.049144183474564E+003	3.8309816E-001	-2.7039447E+002
3	0	1.049644183461933E+003	3.8339126E-001	-2.7035913E+002
3	0	1.050144183449302E+003	3.8428932E-001	-2.7038031E+002
3	0	1.050644183436671E+003	3.8501266E-001	-2.7036972E+002
3	0	1.051144183424040E+003	3.8552520E-001	-2.7039447E+002
3	0	1.051644183411408E+003	3.8600942E-001	-2.7039093E+002
3	0	1.052144183398777E+003	3.8645589E-001	-2.7037677E+002
3	0	1.052644183386146E+003	3.8674122E-001	-2.7038742E+002
3	0	1.053144183373515E+003	3.8686374E-001	-2.7037326E+002
3	0	1.053644183360884E+003	3.8718617E-001	-2.7039447E+002
3	0	1.054144183348253E+003	3.8801336E-001	-2.7038385E+002
3	0	1.054644183335622E+003	3.8859794E-001	-2.7038031E+002
3	0	1.055144183322991E+003	3.8888782E-001	-2.7037677E+002
3	0	1.055644183310360E+003	3.8915390E-001	-2.7037677E+002
3	0	1.056144183297729E+003	3.8932335E-001	-2.7039447E+002
3	0	1.056644183285098E+003	3.8925150E-001	-2.7038385E+002
3	0	1.057144183272467E+003	3.8909364E-001	-2.7036618E+002
3	0	1.057644183259836E+003	3.8920397E-001	-2.7040155E+002
3	0	1.058144183247205E+003	3.8978425E-001	-2.7038031E+002
3	0	1.058644183234574E+003	3.9013860E-001	-2.7037677E+002
3	0	1.059144183221943E+003	3.9030421E-001	-2.7038385E+002
3	0	1.059644183209311E+003	3.9035812E-001	-2.7038385E+002
3	0	1.060144183196680E+003	3.9041108E-001	-2.7038031E+002
3	0	1.060644183184049E+003	3.9028868E-001	-2.7035205E+002
3	0	1.061144183171418E+003	3.9001295E-001	-2.7037677E+002
3	0	1.061644183158787E+003	3.8993433E-001	-2.7035559E+002
3	0	1.062144183146156E+003	3.9033204E-001	-2.7037677E+002
3	0	1.062644183133525E+003	3.9050251E-001	-2.7037326E+002
3	0	1.063144183120894E+003	3.9046955E-001	-2.7036618E+002
3	0	1.063644183108263E+003	3.9038253E-001	-2.7036972E+002
3	0	1.064144183095632E+003	3.9023849E-001	-2.7038385E+002
3	0	1.064644183083001E+003	3.8997218E-001	-2.7038385E+002
3	0	1.065144183070370E+003	3.8957295E-001	-2.7039801E+002
3	0	1.065644183057739E+003	3.8939014E-001	-2.7035559E+002
3	0	1.066144183045108E+003	3.8968924E-001	-2.7035205E+002
3	0	1.066644183032477E+003	3.8993502E-001	-2.7038742E+002
3	0	1.067144183019846E+003	3.9009398E-001	-2.7039447E+002
3	0	1.067644183007214E+003	3.9035177E-001	-2.7038742E+002
3	0	1.068144182994583E+003	3.9057508E-001	-2.7035559E+002
3	0	1.068644182981952E+003	3.9080283E-001	-2.7036267E+002
3	0	1.069144182969321E+003	3.9098454E-001	-2.7036618E+002
3	0	1.069644182956690E+003	3.9148402E-001	-2.7039093E+002
3	0	1.070144182944059E+003	3.9237922E-001	-2.7039801E+002
3	0	1.070644182931428E+003	3.9304230E-001	-2.7035913E+002
3	0	1.071144182918797E+003	3.9348641E-001	-2.7037677E+002
3	0	1.071644182906166E+003	3.9378932E-001	-2.7036972E+002
3	0	1.072144182893535E+003	3.9403656E-001	-2.7037677E+002
3	0	1.072644182880904E+003	3.9402685E-001	-2.7038742E+002
3	0	1.073144182868273E+003	3.9388239E-001	-2.7035559E+002
3	0	1.073644182855642E+003	3.9388359E-001	-2.7035913E+002
3	0	1.074144182843011E+003	3.9430919E-001	-2.7039093E+002
3	0	1.074644182830380E+003	3.9455372E-001	-2.7033789E+002
3	0	1.075144182817749E+003	3.9457574E-001	-2.7035913E+002
3	0	1.075644182805117E+003	3.9453882E-001	-2.7036972E+002
3	0	1.076144182792486E+003	3.9445379E-001	-2.7038031E+002
3	0	1.076644182779855E+003	3.9416727E-001	-2.7035913E+002
3	0	1.077144182767224E+003	3.9372781E-001	-2.7035913E+002
3	0	1.077644182754593E+003	3.9346859E-001	-2.7036267E+002
3	0	1.078144182741962E+003	3.9366013E-001	-2.7036972E+002
3	0	1.078644182729331E+003	3.9366117E-001	-2.7036618E+002
3	0	1.079144182716700E+003	3.9345461E-001	-2.7036267E+002
3	0	1.079644182704069E+003	3.9309996E-001	-2.7038031E+002
3	0	1.080144182691438E+003	3.9275229E-001	-2.7041568E+002
3	0	1.080644182678807E+003	3.9221960E-001	-2.7039093E+002
3	0	1.081144182666176E+003	3.9156705E-001	-2.7036972E+002
3	0	1.081644182653545E+003	3.9112237E-001	-2.7037677E+002
3	0	1.082144182640914E+003	3.9112100E-001	-2.7037326E+002
3	0	1.082644182628283E+003	3.9093590E-001	-2.7038742E+002
3	0	1.083144182615652E+003	3.9060307E-001	-2.7035205E+002
3	0	1.083644182603020E+003	3.9020249E-001	-2.7036972E+002
3	0	1.084144182590389E+003	3.8982809E-001	-2.7038031E+002
3	0	1.084644182577758E+003	3.8923737E-001	-2.7036618E+002
3	0	1.085144182565127E+003	3.8852894E-001	-2.7038742E+002
3	0	1.085644182552496E+003	3.8806221E-001	-2.7036972E+002
3	0	1.086144182539865E+003	3.8804349E-001	-2.7038385E+002
3	0	1.086644182527234E+003	3.8792321E-001	-2.7037677E+002
3	0	1.087144182514603E+003	3.8775560E-001	-2.7035913E+002
3	0	1.087644182501972E+003	3.8762826E-001	-2.7041214E+002
3	0	1.088144182489341E+003	3.8759649E-001	-2.7037326E+002
3	0	1.088644182476710E+003	3.8758230E-001	-2.7038385E+002
3	0	1.089144182464079E+003	3.8751316E-001	-2.7038385E+002
3	0	1.089644182451448E+003	3.8761982E-001	-2.7039801E+002
3	0	1.090144182438817E+003	3.8820860E-001	-2.7038385E+002
3	0	1.090644182426186E+003	3.8864642E-001	-2.7037326E+002
3	0	1.091144182413555E+003	3.8887835E-001	-2.7036972E+002
3	0	1.091644182400923E+003	3.8891745E-001	-2.7036618E+002
3	0	1.092144182388292E+003	3.8888764E-001	-2.7037677E+002
3	0	1.092644182375661E+003	3.8867432E-001	-2.7035913E+002
3	0	1.093144182363030E+003	3.8833594E-001	-2.7038385E+002
3	0	1.093644182350399E+003	3.8817939E-001	-2.7036618E+002
3	0	1.094144182337768E+003	3.8836434E-001	-2.7036972E+002
3	0	1.094644182325137E+003	3.8842916E-001	-2.7039093E+002
3	0	1.095144182312506E+003	3.8830963E-001	-2.7039447E+002
3	0	1.095644182299875E+003	3.8812047E-001	-2.7039801E+002
3	0	1.096144182287244E+003	3.8794240E-001	-2.7039447E+002
3	0	1.096644182274613E+003	3.8757035E-001	-2.7038385E+002
3	0	1.097144182261982E+003	3.8699198E-001	-2.7037677E+002
3	0	1.097644182249351E+003	3.8658962E-001	-2.7038031E+002
3	0	1.098144182236720E+003	3.8660720E-001	-2.7039447E+002
3	0	1.098644182224089E+003	3.8647887E-001	-2.7038742E+002
3	0	1.099144182211458E+003	3.8618329E-001	-2.7038031E+002
3	0	1.099644182198826E+003	3.8580924E-001	-2.7035913E+002
3	0	1.100144182186195E+003	3.8546157E-001	-2.7037677E+002
3	0	1.100644182173564E+003	3.8498360E-001	-2.7039093E+002
3	0	1.101144182160933E+003	3.8440517E-001	-2.7036972E+002
3	0	1.101644182148302E+003	3.8393670E-001	-2.7038385E+002
3	0	1.102144182135671E+003	3.8384286E-001	-2.7037326E+002
3	0	1.102644182123040E+003	3.8361841E-001	-2.7036267E+002
3	0	1.103144182110409E+003	3.8325343E-001	-2.7037326E+002
3	0	1.103644182097778E+003	3.8281018E-001	-2.7036972E+002
3	0	1.104144182085147E+003	3.8233227E-001	-2.7036972E+002
3	0	1.104644182072516E+003	3.8172522E-001	-2.7038031E+002
3	0	1.105144182059885E+003	3.8104281E-001	-2.7038385E+002
3	0	1.105644182047254E+003	3.8057515E-001	-2.7035913E+002
3	0	1.106144182034623E+003	3.8050282E-001	-2.7037326E+002
3	0	1.106644182021992E+003	3.8038707E-001	-2.7038031E+002
3	0	1.107144182009361E+003	3.8019195E-001	-2.7039093E+002
3	0	1.107644181996729E+003	3.8003096E-001	-2.7036972E+002
3	0	1.108144181984098E+003	3.7994057E-001	-2.7039093E+002
3	0	1.108644181971467E+003	3.7978098E-001	-2.7037677E+002
3	0	1.109144181958836E+003	3.7965575E-001	-2.7038031E+002
3	0	1.109644181946205E+003	3.7969229E-001	-2.7034497E+002
3	0	1.110144181933574E+003	3.8012269E-001	-2.7040155E+002
3	0	1.110644181920943E+003	3.8044420E-001	-2.7039093E+002
3	0	1.111144181908312E+003	3.8058129E-001	-2.7039093E+002
3	0	1.111644181895681E+003	3.8063076E-001	-2.7038742E+002
3	0	1.112144181883050E+003	3.8060257E-001	-2.7039447E+002
3	0	1.112644181870419E+003	3.8039553E-001	-2.7036618E+002
3	0	1.113144181857788E+003	3.8004518E-001	-2.7037326E+002
3	0	1.113644181845157E+003	3.7979025E-001	-2.7037677E+002
3	0	1.114144181832526E+003	3.7986088E-001	-2.7036972E+002
3	0	1.114644181819895E+003	3.7983203E-001	-2.7036618E+002
3	0	1.115144181807264E+003	3.7967169E-001	-2.7037677E+002
3	0	1.115644181794632E+003	3.7947291E-001	-2.7035913E+002
3	0	1.116144181782001E+003	3.7922859E-001	-2.7041214E+002
3	0	1.116644181769370E+003	3.7881142E-001	-2.7038031E+002
3	0	1.117144181756739E+003	3.7829787E-001	-2.7038031E+002
3	0	1.117644181744108E+003	3.7794897E-001	-2.7037677E+002
3	0	1.118144181731477E+003	3.7791005E-001	-2.7036267E+002
3	0	1.118644181718846E+003	3.7774935E-001	-2.7036972E+002
3	0	1.119144181706215E+003	3.7746739E-001	-2.7035559E+002
3	0	1.119644181693584E+003	3.7714070E-001	-2.7038031E+002
3	0	1.120144181680953E+003	3.7679744E-001	-2.7037677E+002
3	0	1.120644181668322E+003	3.7630954E-001	-2.7036618E+002
3	0	1.121144181655691E+003	3.7571624E-001	-2.7039093E+002
3	0	1.121644181643060E+003	3.7526628E-001	-2.7036618E+002
3	0	1.122144181630429E+003	3.7516466E-001	-2.7038385E+002
3	0	1.122644181617798E+003	3.7493971E-001	-2.7036267E+002
3	0	1.123144181605167E+003	3.7462574E-001	-2.7036618E+002
3	0	1.123644181592535E+003	3.7427568E-001	-2.7037677E+002
3	0	1.124144181579904E+003	3.7394321E-001	-2.7038385E+002
3	0	1.124644181567273E+003	3.7348089E-001	-2.7040860E+002
3	0	1.125144181554642E+003	3.7293243E-001	-2.7036618E+002
3	0	1.125644181542011E+003	3.7250006E-001	-2.7039093E+002
3	0	1.126144181529380E+003	3.7240154E-001	-2.7036972E+002
3	0	1.126644181516749E+003	3.7223172E-001	-2.7037326E+002
3	0	1.127144181504118E+003	3.7202573E-001	-2.7038742E+002
3	0	1.127644181491487E+003	3.7183881E-001	-2.7035913E+002
3	0	1.128144181478856E+003	3.7172073E-001	-2.7038742E+002
3	0	1.128644181466225E+003	3.7152627E-001	-2.7037326E+002
3	0	1.129144181453594E+003	3.7130439E-001	-2.7036972E+002
3	0	1.129644181440963E+003	3.7130284E-001	-2.7036618E+002
3	0	1.130144181428332E+003	3.7165114E-001	-2.7040860E+002
3	0	1.130644181415701E+003	3.7191388E-001	-2.7038031E+002
3	0	1.131144181403070E+003	3.7205577E-001	-2.7036267E+002
3	0	1.131644181390438E+003	3.7211370E-001	-2.7038385E+002
3	0	1.132144181377807E+003	3.7210903E-001	-2.7036618E+002
3	0	1.132644181365176E+003	3.7197244E-001	-2.7037677E+002
3	0	1.133144181352545E+003	3.7166983E-001	-2.7038385E+002
3	0	1.133644181339914E+003	3.7147254E-001	-2.7037677E+002
3	0	1.134144181327283E+003	3.7155634E-001	-2.7038385E+002
3	0	1.134644181314652E+003	3.7152889E-001	-2.7038031E+002
3	0	1.135144181302021E+003	3.7139028E-001	-2.7035913E+002
3	0	1.135644181289390E+003	3.7117812E-001	-2.7037677E+002
3	0	1.136144181276759E+003	3.7093964E-001	-2.7037326E+002
3	0	1.136644181264128E+003	3.7061805E-001	-2.7036618E+002
3	0	1.137144181251497E+003	3.7016335E-001	-2.7038385E+002
3	0	1.137644181238866E+003	3.6982924E-001	-2.7036618E+002
3	0	1.138144181226235E+003	3.6977419E-001	-2.7040155E+002
3	0	1.138644181213604E+003	3.6962923E-001	-2.7038742E+002
3	0	1.139144181200973E+003	3.6937031E-001	-2.7038385E+002
3	0	1.139644181188341E+003	3.6907348E-001	-2.7038742E+002
3	0	1.140144181175710E+003	3.6876205E-001	-2.7035205E+002
3	0	1.140644181163079E+003	3.6837238E-001	-2.7037326E+002
3	0	1.141144181150448E+003	3.6784157E-001	-2.7038385E+002
3	0	1.141644181137817E+003	3.6745101E-001	-2.7038031E+002
3	0	1.142144181125186E+003	3.6733356E-001	-2.7036972E+002
3	0	1.142644181112555E+003	3.6714122E-001	-2.7037677E+002
3	0	1.143144181099924E+003	3.6687773E-001	-2.7037677E+002
3	0	1.143644181087293E+003	3.6657706E-001	-2.7038031E+002
3	0	1.144144181074662E+003	3.6626691E-001	-2.7038031E+002
3	0	1.144644181062031E+003	3.6584494E-001	-2.7038742E+002
3	0	1.145144181049400E+003	3.6534682E-001	-2.7041214E+002
3	0	1.145644181036769E+003	3.6493808E-001	-2.7037326E+002
3	0	1.146144181024138E+003	3.6482373E-001	-2.7037677E+002
3	0	1.146644181011507E+003	3.6466223E-001	-2.7038031E+002
3	0	1.147144180998876E+003	3.6446631E-001	-2.7039093E+002
3	0	1.147644180986244E+003	3.6433479E-001	-2.7039801E+002
3	0	1.148144180973613E+003	3.6422929E-001	-2.7037326E+002
3	0	1.148644180960982E+003	3.6409038E-001	-2.7040860E+002
3	0	1.149144180948351E+003	3.6394018E-001	-2.7035913E+002
3	0	1.149644180935720E+003	3.6393270E-001	-2.7037677E+002
3	0	1.150144180923089E+003	3.6426675E-001	-2.7038031E+002
3	0	1.150644180910458E+003	3.6455005E-001	-2.7036267E+002
3	0	1.151144180897827E+003	3.6472642E-001	-2.7036972E+002
3	0	1.151644180885196E+003	3.6483356E-001	-2.7037326E+002
3	0	1.152144180872565E+003	3.6490196E-001	-2.7037677E+002
3	0	1.152644180859934E+003	3.6482260E-001	-2.7036267E+002
3	0	1.153144180847303E+003	3.6462626E-001	-2.7038742E+002
3	0	1.153644180834672E+003	3.6447629E-001	-2.7038742E+002
3	0	1.154144180822041E+003	3.6456931E-001	-2.7039801E+002
3	0	1.154644180809410E+003	3.6457586E-001	-2.7038385E+002
3	0	1.155144180796779E+003	3.6448368E-001	-2.7040860E+002
3	0	1.155644180784147E+003	3.6433145E-001	-2.7039447E+002
3	0	1.156144180771516E+003	3.6415371E-001	-2.7037326E+002
3	0	1.156644180758885E+003	3.6385879E-001	-2.7038742E+002
3	0	1.157144180746254E+003	3.6341533E-001	-2.7037326E+002
3	0	1.157144580746244E+003	3.6312255E-001	-2.7037326E+002