EC-Lab ASCII FILE
Nb header lines : 55                          

Open Circuit Voltage

Run on channel : 1 (SN 81504)
User : 
CE vs. WE compliance from -10 V to 10 V
Electrode connection : standard
Potential control : Ewe
Ewe ctrl range : min = -2.50 V, max = 2.50 V
Safety Limits :
	Do not start on E overload
Acquisition started on : 05/10/2026 06:49:56.074
Loaded Setting File :  C:\PEM-WE_measurements\2026\372_IV_IV IrOx, 5 min Pt, 30 min C, etched cathode\new station\Loopeis new\1,46 V different time gaps closed cell\Loopeis 1,46V_120s_4_PEIS from 650Hz to 100Hz.mps
Saved on :
	File : L_24_Loopeis 1,46V_120s_4_PEIS from 650Hz to 100Hz_08_OCV_C01.mpr
	Directory : C:\PEM-WE_measurements\2026\372_IV_IV IrOx, 5 min Pt, 30 min C, etched cathode\new station\Loopeis new\1,46 V different time gaps closed cell\
	Host : 192.168.0.2
Device : SP-150e (SN .005491)
Address : 192.168.0.91
EC-LAB for windows v11.71 (software)
Internet server v28.00 (firmware)
Command interpretor v14.01 (firmware)
Electrode material : 
Initial state : 
Electrolyte : 
Comments : 
Current amplifier : SP-150eB-20A
Electrode surface area : 0.001 cm²
Characteristic mass : 0.001 g
Equivalent Weight : 0.000 g/eq.
Density : 0.000 g/cm3
Volume (V) : 0.001 cm³
Record Analogic IN 1
Text export
   Mode : Standard
   Time format : Elapsed
Cycle Definition : Charge/Discharge alternance
External device configuration :
   device type : Temperature Probe
   device name : Other
   Analog IN 1 : 
      unit : T/Â°C
      max : 100.000 at 2.000 V
      min : 0.000 at 1.460 V
tR (h:m:s)          0:02:0.0000         
dER/dt (mV/h)       1.0                 
record              <Ewe>               
dER (mV)            10.00               
dtR (s)             0.5000              
E range min (V)     -2.500              
E range max (V)     2.500               

mode	error	time/s	<Ewe/V>	Analog IN 1/V	
3	0	5.401753928802646E+002	1.1248085E+000	-2.7039447E+002
3	0	5.406753928676335E+002	1.2591003E+000	-2.7037326E+002
3	0	5.411753928550024E+002	1.2575779E+000	-2.7037326E+002
3	0	5.416753928423714E+002	1.2511071E+000	-2.7038742E+002
3	0	5.421753928297403E+002	1.2377603E+000	-2.7036267E+002
3	0	5.426753928171092E+002	1.2146004E+000	-2.7037326E+002
3	0	5.431753928044782E+002	1.1765721E+000	-2.7040155E+002
3	0	5.436753927918471E+002	1.1105918E+000	-2.7038385E+002
3	0	5.441753927792161E+002	9.4637418E-001	-2.7037677E+002
3	0	5.446753927665850E+002	6.0307992E-001	-2.7038385E+002
3	0	5.451753927539539E+002	4.5348993E-001	-2.7038742E+002
3	0	5.456753927413229E+002	4.0480009E-001	-2.7038742E+002
3	0	5.461753927286918E+002	3.9074498E-001	-2.7039801E+002
3	0	5.466753927160607E+002	3.8547730E-001	-2.7038031E+002
3	0	5.471753927034297E+002	3.8240865E-001	-2.7038742E+002
3	0	5.476753926907986E+002	3.7988478E-001	-2.7037326E+002
3	0	5.481753926781676E+002	3.7742928E-001	-2.7039093E+002
3	0	5.486753926655365E+002	3.7521639E-001	-2.7036618E+002
3	0	5.491753926529054E+002	3.7399632E-001	-2.7038742E+002
3	0	5.496753926402744E+002	3.7335569E-001	-2.7034143E+002
3	0	5.501753926276433E+002	3.7257484E-001	-2.7040860E+002
3	0	5.506753926150122E+002	3.7170500E-001	-2.7037677E+002
3	0	5.511753926023812E+002	3.7101996E-001	-2.7036618E+002
3	0	5.516753925897501E+002	3.7039211E-001	-2.7036618E+002
3	0	5.521753925771191E+002	3.6964417E-001	-2.7036267E+002
3	0	5.526753925644880E+002	3.6890161E-001	-2.7039093E+002
3	0	5.531753925518569E+002	3.6891887E-001	-2.7039093E+002
3	0	5.536753925392259E+002	3.6938518E-001	-2.7039801E+002
3	0	5.541753925265948E+002	3.6971593E-001	-2.7038031E+002
3	0	5.546753925139637E+002	3.6994755E-001	-2.7035205E+002
3	0	5.551753925013327E+002	3.7034076E-001	-2.7038385E+002
3	0	5.556753924887016E+002	3.7084606E-001	-2.7038385E+002
3	0	5.561753924760706E+002	3.7117702E-001	-2.7040506E+002
3	0	5.566753924634395E+002	3.7148550E-001	-2.7037326E+002
3	0	5.571753924508084E+002	3.7230682E-001	-2.7036267E+002
3	0	5.576753924381774E+002	3.7338778E-001	-2.7036972E+002
3	0	5.581753924255463E+002	3.7413484E-001	-2.7038385E+002
3	0	5.586753924129152E+002	3.7464026E-001	-2.7041568E+002
3	0	5.591753924002842E+002	3.7508115E-001	-2.7038742E+002
3	0	5.596753923876531E+002	3.7544540E-001	-2.7038742E+002
3	0	5.601753923750221E+002	3.7549773E-001	-2.7039801E+002
3	0	5.606753923623910E+002	3.7548727E-001	-2.7037677E+002
3	0	5.611753923497599E+002	3.7599114E-001	-2.7039093E+002
3	0	5.616753923371289E+002	3.7671322E-001	-2.7038385E+002
3	0	5.621753923244978E+002	3.7719154E-001	-2.7037326E+002
3	0	5.626753923118667E+002	3.7746632E-001	-2.7038385E+002
3	0	5.631753922992357E+002	3.7769362E-001	-2.7037326E+002
3	0	5.636753922866046E+002	3.7782833E-001	-2.7038742E+002
3	0	5.641753922739736E+002	3.7769076E-001	-2.7037326E+002
3	0	5.646753922613425E+002	3.7739089E-001	-2.7039093E+002
3	0	5.651753922487114E+002	3.7762737E-001	-2.7039093E+002
3	0	5.656753922360804E+002	3.7815377E-001	-2.7036972E+002
3	0	5.661753922234493E+002	3.7839910E-001	-2.7039447E+002
3	0	5.666753922108182E+002	3.7838981E-001	-2.7038385E+002
3	0	5.671753921981872E+002	3.7836820E-001	-2.7038385E+002
3	0	5.676753921855561E+002	3.7829310E-001	-2.7039093E+002
3	0	5.681753921729251E+002	3.7796447E-001	-2.7039447E+002
3	0	5.686753921602940E+002	3.7752128E-001	-2.7036618E+002
3	0	5.691753921476629E+002	3.7752810E-001	-2.7038031E+002
3	0	5.696753921350319E+002	3.7783727E-001	-2.7038742E+002
3	0	5.701753921224008E+002	3.7793174E-001	-2.7040155E+002
3	0	5.706753921097697E+002	3.7778428E-001	-2.7038031E+002
3	0	5.711753920971387E+002	3.7761757E-001	-2.7037677E+002
3	0	5.716753920845076E+002	3.7733132E-001	-2.7036618E+002
3	0	5.721753920718766E+002	3.7679341E-001	-2.7037326E+002
3	0	5.726753920592455E+002	3.7624347E-001	-2.7037326E+002
3	0	5.731753920466144E+002	3.7626046E-001	-2.7037677E+002
3	0	5.736753920339834E+002	3.7662202E-001	-2.7039447E+002
3	0	5.741753920213523E+002	3.7689108E-001	-2.7039447E+002
3	0	5.746753920087212E+002	3.7705582E-001	-2.7037677E+002
3	0	5.751753919960902E+002	3.7732580E-001	-2.7038385E+002
3	0	5.756753919834591E+002	3.7766233E-001	-2.7037677E+002
3	0	5.761753919708281E+002	3.7782839E-001	-2.7036972E+002
3	0	5.766753919581970E+002	3.7787628E-001	-2.7037326E+002
3	0	5.771753919455659E+002	3.7847465E-001	-2.7038385E+002
3	0	5.776753919329349E+002	3.7926713E-001	-2.7037326E+002
3	0	5.781753919203038E+002	3.7977761E-001	-2.7037677E+002
3	0	5.786753919076727E+002	3.8002902E-001	-2.7039093E+002
3	0	5.791753918950417E+002	3.8021344E-001	-2.7035913E+002
3	0	5.796753918824106E+002	3.8035753E-001	-2.7037326E+002
3	0	5.801753918697796E+002	3.8023022E-001	-2.7039093E+002
3	0	5.806753918571485E+002	3.7998149E-001	-2.7036267E+002
3	0	5.811753918445174E+002	3.8010907E-001	-2.7038031E+002
3	0	5.816753918318864E+002	3.8049710E-001	-2.7038385E+002
3	0	5.821753918192553E+002	3.8063058E-001	-2.7037677E+002
3	0	5.826753918066242E+002	3.8051414E-001	-2.7036618E+002
3	0	5.831753917939932E+002	3.8036928E-001	-2.7036618E+002
3	0	5.836753917813621E+002	3.8016358E-001	-2.7040506E+002
3	0	5.841753917687311E+002	3.7969938E-001	-2.7037677E+002
3	0	5.846753917561000E+002	3.7915775E-001	-2.7036972E+002
3	0	5.851753917434689E+002	3.7907764E-001	-2.7038385E+002
3	0	5.856753917308379E+002	3.7921658E-001	-2.7041919E+002
3	0	5.861753917182068E+002	3.7914258E-001	-2.7039093E+002
3	0	5.866753917055757E+002	3.7879840E-001	-2.7036972E+002
3	0	5.871753916929447E+002	3.7848476E-001	-2.7038031E+002
3	0	5.876753916803136E+002	3.7811407E-001	-2.7038385E+002
3	0	5.881753916676826E+002	3.7753439E-001	-2.7036267E+002
3	0	5.886753916550515E+002	3.7683344E-001	-2.7035913E+002
3	0	5.891753916424204E+002	3.7661436E-001	-2.7037326E+002
3	0	5.896753916297894E+002	3.7663195E-001	-2.7038742E+002
3	0	5.901753916171583E+002	3.7645319E-001	-2.7038742E+002
3	0	5.906753916045272E+002	3.7604228E-001	-2.7038031E+002
3	0	5.911753915918962E+002	3.7562940E-001	-2.7036618E+002
3	0	5.916753915792651E+002	3.7513909E-001	-2.7037326E+002
3	0	5.921753915666341E+002	3.7450117E-001	-2.7037326E+002
3	0	5.926753915540030E+002	3.7379244E-001	-2.7038742E+002
3	0	5.931753915413719E+002	3.7354800E-001	-2.7035913E+002
3	0	5.936753915287409E+002	3.7366292E-001	-2.7039093E+002
3	0	5.941753915161098E+002	3.7368384E-001	-2.7036972E+002
3	0	5.946753915034788E+002	3.7357405E-001	-2.7038742E+002
3	0	5.951753914908477E+002	3.7358254E-001	-2.7039447E+002
3	0	5.956753914782166E+002	3.7364772E-001	-2.7036618E+002
3	0	5.961753914655856E+002	3.7360811E-001	-2.7040155E+002
3	0	5.966753914529545E+002	3.7360176E-001	-2.7037326E+002
3	0	5.971753914403234E+002	3.7397802E-001	-2.7039447E+002
3	0	5.976753914276924E+002	3.7453359E-001	-2.7037677E+002
3	0	5.981753914150613E+002	3.7486640E-001	-2.7039093E+002
3	0	5.986753914024303E+002	3.7496564E-001	-2.7038031E+002
3	0	5.991753913897992E+002	3.7499276E-001	-2.7038742E+002
3	0	5.996753913771681E+002	3.7497059E-001	-2.7038031E+002
3	0	6.001753913645371E+002	3.7473473E-001	-2.7037677E+002
3	0	6.006753913519060E+002	3.7436286E-001	-2.7039447E+002
3	0	6.011753913392749E+002	3.7434587E-001	-2.7036972E+002
3	0	6.016753913266439E+002	3.7456352E-001	-2.7039093E+002
3	0	6.021753913140128E+002	3.7457630E-001	-2.7039801E+002
3	0	6.026753913013818E+002	3.7436199E-001	-2.7039093E+002
3	0	6.031753912887507E+002	3.7408921E-001	-2.7039801E+002
3	0	6.036753912761196E+002	3.7376469E-001	-2.7036618E+002
3	0	6.041753912634886E+002	3.7328425E-001	-2.7038742E+002
3	0	6.046753912508575E+002	3.7267464E-001	-2.7037326E+002
3	0	6.051753912382264E+002	3.7240493E-001	-2.7036618E+002
3	0	6.056753912255954E+002	3.7242156E-001	-2.7037677E+002
3	0	6.061753912129643E+002	3.7226039E-001	-2.7037326E+002
3	0	6.066753912003333E+002	3.7189782E-001	-2.7039447E+002
3	0	6.071753911877022E+002	3.7149224E-001	-2.7038031E+002
3	0	6.076753911750711E+002	3.7104580E-001	-2.7036267E+002
3	0	6.081753911624401E+002	3.7038127E-001	-2.7038742E+002
3	0	6.086753911498090E+002	3.6969259E-001	-2.7037677E+002
3	0	6.091753911371779E+002	3.6938953E-001	-2.7035913E+002
3	0	6.096753911245469E+002	3.6930689E-001	-2.7036267E+002
3	0	6.101753911119158E+002	3.6905441E-001	-2.7041919E+002
3	0	6.106753910992848E+002	3.6865133E-001	-2.7037326E+002
3	0	6.111753910866537E+002	3.6825353E-001	-2.7036972E+002
3	0	6.116753910740226E+002	3.6785346E-001	-2.7036972E+002
3	0	6.121753910613916E+002	3.6722785E-001	-2.7039093E+002
3	0	6.126753910487605E+002	3.6652729E-001	-2.7037677E+002
3	0	6.131753910361294E+002	3.6620066E-001	-2.7035559E+002
3	0	6.136753910234984E+002	3.6617810E-001	-2.7038742E+002
3	0	6.141753910108673E+002	3.6610529E-001	-2.7035559E+002
3	0	6.146753909982363E+002	3.6596993E-001	-2.7037677E+002
3	0	6.151753909856052E+002	3.6592898E-001	-2.7036972E+002
3	0	6.156753909729741E+002	3.6589396E-001	-2.7036972E+002
3	0	6.161753909603431E+002	3.6582038E-001	-2.7036972E+002
3	0	6.166753909477120E+002	3.6571327E-001	-2.7036972E+002
3	0	6.171753909350809E+002	3.6592633E-001	-2.7036618E+002
3	0	6.176753909224499E+002	3.6637884E-001	-2.7039093E+002
3	0	6.181753909098188E+002	3.6665869E-001	-2.7037677E+002
3	0	6.186753908971878E+002	3.6672750E-001	-2.7038385E+002
3	0	6.191753908845567E+002	3.6672640E-001	-2.7038385E+002
3	0	6.196753908719256E+002	3.6665949E-001	-2.7038031E+002
3	0	6.201753908592946E+002	3.6642319E-001	-2.7037326E+002
3	0	6.206753908466635E+002	3.6605787E-001	-2.7037326E+002
3	0	6.211753908340324E+002	3.6599228E-001	-2.7036972E+002
3	0	6.216753908214014E+002	3.6611518E-001	-2.7035913E+002
3	0	6.221753908087703E+002	3.6607227E-001	-2.7040506E+002
3	0	6.226753907961393E+002	3.6587125E-001	-2.7040506E+002
3	0	6.231753907835082E+002	3.6565194E-001	-2.7037677E+002
3	0	6.236753907708771E+002	3.6535907E-001	-2.7039801E+002
3	0	6.241753907582461E+002	3.6491275E-001	-2.7038031E+002
3	0	6.246753907456150E+002	3.6433262E-001	-2.7038385E+002
3	0	6.251753907329839E+002	3.6405629E-001	-2.7036267E+002
3	0	6.256753907203529E+002	3.6402953E-001	-2.7036267E+002
3	0	6.261753907077218E+002	3.6385092E-001	-2.7037677E+002
3	0	6.266753906950908E+002	3.6353260E-001	-2.7036618E+002
3	0	6.271753906824597E+002	3.6316600E-001	-2.7040506E+002
3	0	6.276753906698286E+002	3.6280495E-001	-2.7036267E+002
3	0	6.281753906571976E+002	3.6234406E-001	-2.7034497E+002
3	0	6.286753906445665E+002	3.6175358E-001	-2.7040506E+002
3	0	6.291753906319354E+002	3.6143780E-001	-2.7036972E+002
3	0	6.296753906193044E+002	3.6137158E-001	-2.7036267E+002
3	0	6.301753906066733E+002	3.6115822E-001	-2.7037326E+002
3	0	6.306753905940423E+002	3.6080050E-001	-2.7036972E+002
3	0	6.311753905814112E+002	3.6043409E-001	-2.7036267E+002
3	0	6.316753905687801E+002	3.6003432E-001	-2.7038385E+002
3	0	6.321753905561491E+002	3.5944489E-001	-2.7036618E+002
3	0	6.326753905435180E+002	3.5878512E-001	-2.7038742E+002
3	0	6.331753905308869E+002	3.5849577E-001	-2.7037677E+002
3	0	6.336753905182559E+002	3.5846350E-001	-2.7037326E+002
3	0	6.341753905056248E+002	3.5838014E-001	-2.7037326E+002
3	0	6.346753904929938E+002	3.5823181E-001	-2.7038385E+002
3	0	6.351753904803627E+002	3.5817328E-001	-2.7036972E+002
3	0	6.356753904677316E+002	3.5811421E-001	-2.7036618E+002
3	0	6.361753904551006E+002	3.5802057E-001	-2.7036972E+002
3	0	6.366753904424695E+002	3.5795128E-001	-2.7038742E+002
3	0	6.371753904298384E+002	3.5817063E-001	-2.7038742E+002
3	0	6.376753904172074E+002	3.5856226E-001	-2.7035559E+002
3	0	6.381753904045763E+002	3.5880536E-001	-2.7037326E+002
3	0	6.386753903919453E+002	3.5888422E-001	-2.7039801E+002
3	0	6.391753903793142E+002	3.5890174E-001	-2.7037326E+002
3	0	6.396753903666831E+002	3.5880828E-001	-2.7039801E+002
3	0	6.401753903540521E+002	3.5856822E-001	-2.7038385E+002
3	0	6.406753903414210E+002	3.5822523E-001	-2.7036972E+002
3	0	6.411753903287899E+002	3.5811982E-001	-2.7038031E+002
3	0	6.416753903161589E+002	3.5820305E-001	-2.7039447E+002
3	0	6.421753903035278E+002	3.5817340E-001	-2.7038385E+002
3	0	6.426753902908968E+002	3.5799122E-001	-2.7038031E+002
3	0	6.431753902782657E+002	3.5778558E-001	-2.7036972E+002
3	0	6.436753902656346E+002	3.5751843E-001	-2.7040860E+002
3	0	6.441753902530036E+002	3.5711834E-001	-2.7038385E+002
3	0	6.446753902403725E+002	3.5662985E-001	-2.7039093E+002
3	0	6.451753902277414E+002	3.5638961E-001	-2.7038742E+002
3	0	6.456753902151104E+002	3.5634044E-001	-2.7037326E+002
3	0	6.461753902024793E+002	3.5617286E-001	-2.7037677E+002
3	0	6.466753901898483E+002	3.5588643E-001	-2.7038385E+002
3	0	6.471753901772172E+002	3.5562980E-001	-2.7038385E+002
3	0	6.476753901645861E+002	3.5529342E-001	-2.7038742E+002
3	0	6.481753901519551E+002	3.5485789E-001	-2.7039447E+002
3	0	6.486753901393240E+002	3.5431227E-001	-2.7038742E+002
3	0	6.491753901266929E+002	3.5402092E-001	-2.7038385E+002
3	0	6.496753901140619E+002	3.5394344E-001	-2.7039093E+002
3	0	6.501753901014308E+002	3.5376829E-001	-2.7038385E+002
3	0	6.506753900887998E+002	3.5343328E-001	-2.7034143E+002
3	0	6.511753900761687E+002	3.5309878E-001	-2.7038031E+002
3	0	6.516753900635376E+002	3.5273698E-001	-2.7038742E+002
3	0	6.521753900509066E+002	3.5230845E-001	-2.7038031E+002
3	0	6.526753900382755E+002	3.5179031E-001	-2.7037326E+002
3	0	6.531753900256444E+002	3.5151032E-001	-2.7039801E+002
3	0	6.536753900130134E+002	3.5147315E-001	-2.7037677E+002
3	0	6.541753900003823E+002	3.5139757E-001	-2.7039093E+002
3	0	6.546753899877513E+002	3.5127202E-001	-2.7038031E+002
3	0	6.551753899751202E+002	3.5121283E-001	-2.7037677E+002
3	0	6.556753899624891E+002	3.5118869E-001	-2.7040506E+002
3	0	6.561753899498581E+002	3.5109642E-001	-2.7036972E+002
3	0	6.566753899372270E+002	3.5097668E-001	-2.7038385E+002
3	0	6.571753899245959E+002	3.5114285E-001	-2.7038031E+002
3	0	6.576753899119649E+002	3.5148498E-001	-2.7040155E+002
3	0	6.581753898993338E+002	3.5171753E-001	-2.7037677E+002
3	0	6.586753898867028E+002	3.5176760E-001	-2.7038031E+002
3	0	6.591753898740717E+002	3.5177273E-001	-2.7038742E+002
3	0	6.596753898614406E+002	3.5171887E-001	-2.7036972E+002
3	0	6.596987898608495E+002	3.5161179E-001	-2.7036267E+002