EC-Lab ASCII FILE
Nb header lines : 55                          

Open Circuit Voltage

Run on channel : 1 (SN 81504)
User : 
CE vs. WE compliance from -10 V to 10 V
Electrode connection : standard
Potential control : Ewe
Ewe ctrl range : min = -2.50 V, max = 2.50 V
Safety Limits :
	Do not start on E overload
Acquisition started on : 05/10/2026 06:49:56.074
Loaded Setting File :  C:\PEM-WE_measurements\2026\372_IV_IV IrOx, 5 min Pt, 30 min C, etched cathode\new station\Loopeis new\1,46 V different time gaps closed cell\Loopeis 1,46V_120s_4_PEIS from 650Hz to 100Hz.mps
Saved on :
	File : L_24_Loopeis 1,46V_120s_4_PEIS from 650Hz to 100Hz_18_OCV_C01.mpr
	Directory : C:\PEM-WE_measurements\2026\372_IV_IV IrOx, 5 min Pt, 30 min C, etched cathode\new station\Loopeis new\1,46 V different time gaps closed cell\
	Host : 192.168.0.2
Device : SP-150e (SN .005491)
Address : 192.168.0.91
EC-LAB for windows v11.71 (software)
Internet server v28.00 (firmware)
Command interpretor v14.01 (firmware)
Electrode material : 
Initial state : 
Electrolyte : 
Comments : 
Current amplifier : SP-150eB-20A
Electrode surface area : 0.001 cm²
Characteristic mass : 0.001 g
Equivalent Weight : 0.000 g/eq.
Density : 0.000 g/cm3
Volume (V) : 0.001 cm³
Record Analogic IN 1
Text export
   Mode : Standard
   Time format : Elapsed
Cycle Definition : Charge/Discharge alternance
External device configuration :
   device type : Temperature Probe
   device name : Other
   Analog IN 1 : 
      unit : T/Â°C
      max : 100.000 at 2.000 V
      min : 0.000 at 1.460 V
tR (h:m:s)          0:02:0.0000         
dER/dt (mV/h)       1.0                 
record              <Ewe>               
dER (mV)            10.00               
dtR (s)             0.5000              
E range min (V)     -2.500              
E range max (V)     2.500               

mode	error	time/s	<Ewe/V>	Analog IN 1/V	
3	0	1.369358978784076E+003	1.2907968E+000	-2.7037326E+002
3	0	1.369858978771445E+003	1.2973889E+000	-2.7039801E+002
3	0	1.370358978758813E+003	1.2940353E+000	-2.7038742E+002
3	0	1.370858978746182E+003	1.2849741E+000	-2.7038031E+002
3	0	1.371358978733551E+003	1.2683171E+000	-2.7039093E+002
3	0	1.371858978720920E+003	1.2408910E+000	-2.7038742E+002
3	0	1.372358978708289E+003	1.1967063E+000	-2.7039447E+002
3	0	1.372858978695658E+003	1.1190479E+000	-2.7038742E+002
3	0	1.373358978683027E+003	9.0836692E-001	-2.7040506E+002
3	0	1.373858978670396E+003	5.7495600E-001	-2.7039093E+002
3	0	1.374358978657765E+003	4.5441687E-001	-2.7036618E+002
3	0	1.374858978645134E+003	4.1356349E-001	-2.7038031E+002
3	0	1.375358978632503E+003	4.0122506E-001	-2.7038031E+002
3	0	1.375858978619872E+003	3.9629281E-001	-2.7038742E+002
3	0	1.376358978607241E+003	3.9295575E-001	-2.7038031E+002
3	0	1.376858978594610E+003	3.9062685E-001	-2.7039447E+002
3	0	1.377358978581979E+003	3.8913035E-001	-2.7035559E+002
3	0	1.377858978569348E+003	3.8769007E-001	-2.7038385E+002
3	0	1.378358978556716E+003	3.8639429E-001	-2.7037326E+002
3	0	1.378858978544085E+003	3.8549557E-001	-2.7038742E+002
3	0	1.379358978531454E+003	3.8481426E-001	-2.7039447E+002
3	0	1.379858978518823E+003	3.8423768E-001	-2.7038742E+002
3	0	1.380358978506192E+003	3.8381928E-001	-2.7035559E+002
3	0	1.380858978493561E+003	3.8401076E-001	-2.7039447E+002
3	0	1.381358978480930E+003	3.8480884E-001	-2.7036618E+002
3	0	1.381858978468299E+003	3.8539010E-001	-2.7038742E+002
3	0	1.382358978455668E+003	3.8583294E-001	-2.7038031E+002
3	0	1.382858978443037E+003	3.8620144E-001	-2.7036618E+002
3	0	1.383358978430406E+003	3.8659489E-001	-2.7037326E+002
3	0	1.383858978417775E+003	3.8668501E-001	-2.7038742E+002
3	0	1.384358978405144E+003	3.8671321E-001	-2.7036267E+002
3	0	1.384858978392513E+003	3.8708964E-001	-2.7036267E+002
3	0	1.385358978379882E+003	3.8786179E-001	-2.7038385E+002
3	0	1.385858978367251E+003	3.8836315E-001	-2.7039447E+002
3	0	1.386358978354619E+003	3.8866138E-001	-2.7038031E+002
3	0	1.386858978341988E+003	3.8884619E-001	-2.7037326E+002
3	0	1.387358978329357E+003	3.8907143E-001	-2.7038742E+002
3	0	1.387858978316726E+003	3.8896239E-001	-2.7036618E+002
3	0	1.388358978304095E+003	3.8877177E-001	-2.7039447E+002
3	0	1.388858978291464E+003	3.8896275E-001	-2.7035205E+002
3	0	1.389358978278833E+003	3.8951904E-001	-2.7036267E+002
3	0	1.389858978266202E+003	3.8981137E-001	-2.7036267E+002
3	0	1.390358978253571E+003	3.8994086E-001	-2.7036618E+002
3	0	1.390858978240940E+003	3.9001849E-001	-2.7037326E+002
3	0	1.391358978228309E+003	3.9004672E-001	-2.7035913E+002
3	0	1.391858978215678E+003	3.8986230E-001	-2.7041214E+002
3	0	1.392358978203047E+003	3.8950369E-001	-2.7040155E+002
3	0	1.392858978190416E+003	3.8950676E-001	-2.7038385E+002
3	0	1.393358978177785E+003	3.8989526E-001	-2.7039801E+002
3	0	1.393858978165154E+003	3.9004833E-001	-2.7036267E+002
3	0	1.394358978152522E+003	3.9000764E-001	-2.7038385E+002
3	0	1.394858978139891E+003	3.8993329E-001	-2.7035913E+002
3	0	1.395358978127260E+003	3.8983095E-001	-2.7038031E+002
3	0	1.395858978114629E+003	3.8951898E-001	-2.7039447E+002
3	0	1.396358978101998E+003	3.8914210E-001	-2.7036972E+002
3	0	1.396858978089367E+003	3.8903588E-001	-2.7035559E+002
3	0	1.397358978076736E+003	3.8932088E-001	-2.7035205E+002
3	0	1.397858978064105E+003	3.8943112E-001	-2.7036618E+002
3	0	1.398358978051474E+003	3.8945940E-001	-2.7036618E+002
3	0	1.398858978038843E+003	3.8950893E-001	-2.7038742E+002
3	0	1.399358978026212E+003	3.8968539E-001	-2.7038031E+002
3	0	1.399858978013581E+003	3.8976735E-001	-2.7037677E+002
3	0	1.400358978000950E+003	3.8982940E-001	-2.7038031E+002
3	0	1.400858977988319E+003	3.9030972E-001	-2.7036267E+002
3	0	1.401358977975688E+003	3.9124084E-001	-2.7040506E+002
3	0	1.401858977963057E+003	3.9205843E-001	-2.7036618E+002
3	0	1.402358977950425E+003	3.9270854E-001	-2.7039093E+002
3	0	1.402858977937794E+003	3.9323163E-001	-2.7037677E+002
3	0	1.403358977925163E+003	3.9369193E-001	-2.7037326E+002
3	0	1.403858977912532E+003	3.9388895E-001	-2.7038742E+002
3	0	1.404358977899901E+003	3.9389291E-001	-2.7036972E+002
3	0	1.404858977887270E+003	3.9416677E-001	-2.7036267E+002
3	0	1.405358977874639E+003	3.9478174E-001	-2.7038031E+002
3	0	1.405858977862008E+003	3.9515233E-001	-2.7038385E+002
3	0	1.406358977849377E+003	3.9533871E-001	-2.7038385E+002
3	0	1.406858977836746E+003	3.9544186E-001	-2.7038385E+002
3	0	1.407358977824115E+003	3.9547279E-001	-2.7036618E+002
3	0	1.407858977811484E+003	3.9527151E-001	-2.7039801E+002
3	0	1.408358977798853E+003	3.9488456E-001	-2.7038385E+002
3	0	1.408858977786222E+003	3.9475650E-001	-2.7036267E+002
3	0	1.409358977773591E+003	3.9503002E-001	-2.7037326E+002
3	0	1.409858977760960E+003	3.9508000E-001	-2.7037326E+002
3	0	1.410358977748328E+003	3.9495751E-001	-2.7039093E+002
3	0	1.410858977735697E+003	3.9473513E-001	-2.7038031E+002
3	0	1.411358977723066E+003	3.9440167E-001	-2.7035559E+002
3	0	1.411858977710435E+003	3.9386475E-001	-2.7038385E+002
3	0	1.412358977697804E+003	3.9320117E-001	-2.7038742E+002
3	0	1.412858977685173E+003	3.9285904E-001	-2.7038385E+002
3	0	1.413358977672542E+003	3.9290693E-001	-2.7038031E+002
3	0	1.413858977659911E+003	3.9276522E-001	-2.7038385E+002
3	0	1.414358977647280E+003	3.9249858E-001	-2.7036972E+002
3	0	1.414858977634649E+003	3.9213118E-001	-2.7039801E+002
3	0	1.415358977622018E+003	3.9176315E-001	-2.7036972E+002
3	0	1.415858977609387E+003	3.9114651E-001	-2.7036972E+002
3	0	1.416358977596756E+003	3.9040023E-001	-2.7037677E+002
3	0	1.416858977584125E+003	3.8994038E-001	-2.7039093E+002
3	0	1.417358977571494E+003	3.8987991E-001	-2.7036972E+002
3	0	1.417858977558863E+003	3.8965780E-001	-2.7038742E+002
3	0	1.418358977546231E+003	3.8938221E-001	-2.7036972E+002
3	0	1.418858977533600E+003	3.8911831E-001	-2.7038031E+002
3	0	1.419358977520969E+003	3.8888511E-001	-2.7038742E+002
3	0	1.419858977508338E+003	3.8865516E-001	-2.7039093E+002
3	0	1.420358977495707E+003	3.8837689E-001	-2.7039801E+002
3	0	1.420858977483076E+003	3.8847810E-001	-2.7038031E+002
3	0	1.421358977470445E+003	3.8904509E-001	-2.7039447E+002
3	0	1.421858977457814E+003	3.8949689E-001	-2.7037326E+002
3	0	1.422358977445183E+003	3.8978961E-001	-2.7038742E+002
3	0	1.422858977432552E+003	3.8996866E-001	-2.7041214E+002
3	0	1.423358977419921E+003	3.9005771E-001	-2.7039093E+002
3	0	1.423858977407290E+003	3.8991851E-001	-2.7035559E+002
3	0	1.424358977394659E+003	3.8958791E-001	-2.7038385E+002
3	0	1.424858977382028E+003	3.8954088E-001	-2.7036267E+002
3	0	1.425358977369397E+003	3.8983491E-001	-2.7035559E+002
3	0	1.425858977356766E+003	3.8991272E-001	-2.7038385E+002
3	0	1.426358977344134E+003	3.8980487E-001	-2.7038742E+002
3	0	1.426858977331503E+003	3.8961792E-001	-2.7038385E+002
3	0	1.427358977318872E+003	3.8939691E-001	-2.7039093E+002
3	0	1.427858977306241E+003	3.8898203E-001	-2.7038385E+002
3	0	1.428358977293610E+003	3.8837805E-001	-2.7041568E+002
3	0	1.428858977280979E+003	3.8807020E-001	-2.7037677E+002
3	0	1.429358977268348E+003	3.8806307E-001	-2.7036267E+002
3	0	1.429858977255717E+003	3.8790387E-001	-2.7039093E+002
3	0	1.430358977243086E+003	3.8754964E-001	-2.7039801E+002
3	0	1.430858977230455E+003	3.8718149E-001	-2.7038742E+002
3	0	1.431358977217824E+003	3.8676283E-001	-2.7038742E+002
3	0	1.431858977205193E+003	3.8620421E-001	-2.7039093E+002
3	0	1.432358977192562E+003	3.8549581E-001	-2.7035913E+002
3	0	1.432858977179931E+003	3.8506210E-001	-2.7037677E+002
3	0	1.433358977167300E+003	3.8497171E-001	-2.7038742E+002
3	0	1.433858977154669E+003	3.8473079E-001	-2.7038742E+002
3	0	1.434358977142037E+003	3.8435897E-001	-2.7040155E+002
3	0	1.434858977129406E+003	3.8394400E-001	-2.7039447E+002
3	0	1.435358977116775E+003	3.8345402E-001	-2.7036618E+002
3	0	1.435858977104144E+003	3.8284361E-001	-2.7039093E+002
3	0	1.436358977091513E+003	3.8214159E-001	-2.7037677E+002
3	0	1.436858977078882E+003	3.8168508E-001	-2.7035559E+002
3	0	1.437358977066251E+003	3.8152710E-001	-2.7038385E+002
3	0	1.437858977053620E+003	3.8125589E-001	-2.7037326E+002
3	0	1.438358977040989E+003	3.8090378E-001	-2.7037326E+002
3	0	1.438858977028358E+003	3.8060206E-001	-2.7035559E+002
3	0	1.439358977015727E+003	3.8036591E-001	-2.7038031E+002
3	0	1.439858977003096E+003	3.8008988E-001	-2.7039093E+002
3	0	1.440358976990465E+003	3.7978697E-001	-2.7037326E+002
3	0	1.440858976977834E+003	3.7979227E-001	-2.7039093E+002
3	0	1.441358976965203E+003	3.8017929E-001	-2.7039093E+002
3	0	1.441858976952572E+003	3.8049462E-001	-2.7038031E+002
3	0	1.442358976939940E+003	3.8068187E-001	-2.7037326E+002
3	0	1.442858976927309E+003	3.8077414E-001	-2.7037326E+002
3	0	1.443358976914678E+003	3.8082424E-001	-2.7038385E+002
3	0	1.443858976902047E+003	3.8067999E-001	-2.7040155E+002
3	0	1.444358976889416E+003	3.8039434E-001	-2.7036972E+002
3	0	1.444858976876785E+003	3.8025889E-001	-2.7039447E+002
3	0	1.445358976864154E+003	3.8042042E-001	-2.7036618E+002
3	0	1.445858976851523E+003	3.8044259E-001	-2.7035559E+002
3	0	1.446358976838892E+003	3.8033620E-001	-2.7038385E+002
3	0	1.446858976826261E+003	3.8016069E-001	-2.7038031E+002
3	0	1.447358976813630E+003	3.7994471E-001	-2.7039093E+002
3	0	1.447858976800999E+003	3.7954935E-001	-2.7038742E+002
3	0	1.448358976788368E+003	3.7899056E-001	-2.7039093E+002
3	0	1.448858976775737E+003	3.7868521E-001	-2.7035913E+002
3	0	1.449358976763106E+003	3.7866995E-001	-2.7034851E+002
3	0	1.449858976750475E+003	3.7852499E-001	-2.7038385E+002
3	0	1.450358976737843E+003	3.7828043E-001	-2.7037677E+002
3	0	1.450858976725212E+003	3.7799549E-001	-2.7034851E+002
3	0	1.451358976712581E+003	3.7766400E-001	-2.7036972E+002
3	0	1.451858976699950E+003	3.7720814E-001	-2.7038385E+002
3	0	1.452358976687319E+003	3.7658757E-001	-2.7038031E+002
3	0	1.452858976674688E+003	3.7619865E-001	-2.7038385E+002
3	0	1.453358976662057E+003	3.7615061E-001	-2.7037326E+002
3	0	1.453858976649426E+003	3.7594992E-001	-2.7037326E+002
3	0	1.454358976636795E+003	3.7563992E-001	-2.7039801E+002
3	0	1.454858976624164E+003	3.7527177E-001	-2.7037677E+002
3	0	1.455358976611533E+003	3.7488571E-001	-2.7037677E+002
3	0	1.455858976598902E+003	3.7438205E-001	-2.7038031E+002
3	0	1.456358976586271E+003	3.7379113E-001	-2.7036618E+002
3	0	1.456858976573640E+003	3.7336713E-001	-2.7038031E+002
3	0	1.457358976561009E+003	3.7323973E-001	-2.7038385E+002
3	0	1.457858976548378E+003	3.7305725E-001	-2.7036267E+002
3	0	1.458358976535746E+003	3.7282008E-001	-2.7037677E+002
3	0	1.458858976523115E+003	3.7254313E-001	-2.7038742E+002
3	0	1.459358976510484E+003	3.7231836E-001	-2.7034851E+002
3	0	1.459858976497853E+003	3.7208092E-001	-2.7036618E+002
3	0	1.460358976485222E+003	3.7179765E-001	-2.7036618E+002
3	0	1.460858976472591E+003	3.7177774E-001	-2.7036972E+002
3	0	1.461358976459960E+003	3.7208012E-001	-2.7037326E+002
3	0	1.461858976447329E+003	3.7234208E-001	-2.7037326E+002
3	0	1.462358976434698E+003	3.7249967E-001	-2.7038031E+002
3	0	1.462858976422067E+003	3.7260070E-001	-2.7038385E+002
3	0	1.463358976409436E+003	3.7262833E-001	-2.7040506E+002
3	0	1.463858976396805E+003	3.7248635E-001	-2.7038031E+002
3	0	1.464358976384174E+003	3.7217215E-001	-2.7038031E+002
3	0	1.464858976371543E+003	3.7203932E-001	-2.7038031E+002
3	0	1.465358976358912E+003	3.7212673E-001	-2.7038742E+002
3	0	1.465858976346281E+003	3.7208584E-001	-2.7039447E+002
3	0	1.466358976333649E+003	3.7194815E-001	-2.7038742E+002
3	0	1.466858976321018E+003	3.7172696E-001	-2.7037677E+002
3	0	1.467358976308387E+003	3.7147284E-001	-2.7037326E+002
3	0	1.467858976295756E+003	3.7109232E-001	-2.7038742E+002
3	0	1.468358976283125E+003	3.7062523E-001	-2.7038385E+002
3	0	1.468858976270494E+003	3.7031677E-001	-2.7037326E+002
3	0	1.469358976257863E+003	3.7028220E-001	-2.7036267E+002
3	0	1.469858976245232E+003	3.7016535E-001	-2.7037326E+002
3	0	1.470358976232601E+003	3.6994892E-001	-2.7037677E+002
3	0	1.470858976219970E+003	3.6967868E-001	-2.7037677E+002
3	0	1.471358976207339E+003	3.6934382E-001	-2.7037326E+002
3	0	1.471858976194708E+003	3.6890140E-001	-2.7038385E+002
3	0	1.472358976182077E+003	3.6839429E-001	-2.7038385E+002
3	0	1.472858976169446E+003	3.6802551E-001	-2.7035913E+002
3	0	1.473358976156815E+003	3.6793819E-001	-2.7038742E+002
3	0	1.473858976144184E+003	3.6777502E-001	-2.7039801E+002
3	0	1.474358976131552E+003	3.6753285E-001	-2.7039093E+002
3	0	1.474858976118921E+003	3.6722305E-001	-2.7034851E+002
3	0	1.475358976106290E+003	3.6689982E-001	-2.7037677E+002
3	0	1.475858976093659E+003	3.6647457E-001	-2.7038031E+002
3	0	1.476358976081028E+003	3.6594179E-001	-2.7038742E+002
3	0	1.476858976068397E+003	3.6555940E-001	-2.7035913E+002
3	0	1.477358976055766E+003	3.6545944E-001	-2.7038031E+002
3	0	1.477858976043135E+003	3.6528936E-001	-2.7039093E+002
3	0	1.478358976030504E+003	3.6505726E-001	-2.7036267E+002
3	0	1.478858976017873E+003	3.6477873E-001	-2.7035913E+002
3	0	1.479358976005242E+003	3.6454657E-001	-2.7036972E+002
3	0	1.479858975992611E+003	3.6429936E-001	-2.7040860E+002
3	0	1.480358975979980E+003	3.6402604E-001	-2.7036972E+002
3	0	1.480858975967349E+003	3.6395285E-001	-2.7041214E+002
3	0	1.481358975954718E+003	3.6421171E-001	-2.7035913E+002
3	0	1.481858975942087E+003	3.6446965E-001	-2.7037326E+002
3	0	1.482358975929455E+003	3.6469385E-001	-2.7037326E+002
3	0	1.482858975916824E+003	3.6486986E-001	-2.7037677E+002
3	0	1.483358975904193E+003	3.6498359E-001	-2.7040506E+002
3	0	1.483858975891562E+003	3.6492974E-001	-2.7038385E+002
3	0	1.484358975878931E+003	3.6472997E-001	-2.7037677E+002
3	0	1.484858975866300E+003	3.6464989E-001	-2.7034497E+002
3	0	1.485358975853669E+003	3.6479715E-001	-2.7039801E+002
3	0	1.485858975841038E+003	3.6485642E-001	-2.7039801E+002
3	0	1.486358975828407E+003	3.6480221E-001	-2.7041568E+002
3	0	1.486858975815776E+003	3.6468455E-001	-2.7037677E+002
3	0	1.487358975803145E+003	3.6454469E-001	-2.7038031E+002
3	0	1.487858975790514E+003	3.6427653E-001	-2.7036972E+002
3	0	1.488358975777883E+003	3.6384797E-001	-2.7036267E+002
3	0	1.488858975765252E+003	3.6354318E-001	-2.7038385E+002
3	0	1.488859375765242E+003	3.6360919E-001	-2.7038031E+002