EC-Lab ASCII FILE
Nb header lines : 55                          

Open Circuit Voltage

Run on channel : 1 (SN 81504)
User : 
CE vs. WE compliance from -10 V to 10 V
Electrode connection : standard
Potential control : Ewe
Ewe ctrl range : min = -2.50 V, max = 2.50 V
Safety Limits :
	Do not start on E overload
Acquisition started on : 05/10/2026 06:49:56.074
Loaded Setting File :  C:\PEM-WE_measurements\2026\372_IV_IV IrOx, 5 min Pt, 30 min C, etched cathode\new station\Loopeis new\1,46 V different time gaps closed cell\Loopeis 1,46V_120s_4_PEIS from 650Hz to 100Hz.mps
Saved on :
	File : L_24_Loopeis 1,46V_120s_4_PEIS from 650Hz to 100Hz_16_OCV_C01.mpr
	Directory : C:\PEM-WE_measurements\2026\372_IV_IV IrOx, 5 min Pt, 30 min C, etched cathode\new station\Loopeis new\1,46 V different time gaps closed cell\
	Host : 192.168.0.2
Device : SP-150e (SN .005491)
Address : 192.168.0.91
EC-LAB for windows v11.71 (software)
Internet server v28.00 (firmware)
Command interpretor v14.01 (firmware)
Electrode material : 
Initial state : 
Electrolyte : 
Comments : 
Current amplifier : SP-150eB-20A
Electrode surface area : 0.001 cm²
Characteristic mass : 0.001 g
Equivalent Weight : 0.000 g/eq.
Density : 0.000 g/cm3
Volume (V) : 0.001 cm³
Record Analogic IN 1
Text export
   Mode : Standard
   Time format : Elapsed
Cycle Definition : Charge/Discharge alternance
External device configuration :
   device type : Temperature Probe
   device name : Other
   Analog IN 1 : 
      unit : T/Â°C
      max : 100.000 at 2.000 V
      min : 0.000 at 1.460 V
tR (h:m:s)          0:02:0.0000         
dER/dt (mV/h)       1.0                 
record              <Ewe>               
dER (mV)            10.00               
dtR (s)             0.5000              
E range min (V)     -2.500              
E range max (V)     2.500               

mode	error	time/s	<Ewe/V>	Analog IN 1/V	
3	0	1.204333782952963E+003	1.1244661E+000	-2.7036618E+002
3	0	1.204833782940332E+003	1.2589617E+000	-2.7038031E+002
3	0	1.205333782927701E+003	1.2576222E+000	-2.7040155E+002
3	0	1.205833782915070E+003	1.2513206E+000	-2.7037677E+002
3	0	1.206333782902439E+003	1.2381660E+000	-2.7036267E+002
3	0	1.206833782889807E+003	1.2152778E+000	-2.7039093E+002
3	0	1.207333782877176E+003	1.1776235E+000	-2.7038031E+002
3	0	1.207833782864545E+003	1.1128019E+000	-2.7038385E+002
3	0	1.208333782851914E+003	9.5979995E-001	-2.7039447E+002
3	0	1.208833782839283E+003	6.2297815E-001	-2.7037677E+002
3	0	1.209333782826652E+003	4.6623474E-001	-2.7037677E+002
3	0	1.209833782814021E+003	4.1262445E-001	-2.7036618E+002
3	0	1.210333782801390E+003	3.9631861E-001	-2.7036267E+002
3	0	1.210833782788759E+003	3.9029390E-001	-2.7036972E+002
3	0	1.211333782776128E+003	3.8675556E-001	-2.7038031E+002
3	0	1.211833782763497E+003	3.8378784E-001	-2.7037326E+002
3	0	1.212333782750866E+003	3.8086820E-001	-2.7037677E+002
3	0	1.212833782738235E+003	3.7871468E-001	-2.7038385E+002
3	0	1.213333782725604E+003	3.7757427E-001	-2.7039801E+002
3	0	1.213833782712973E+003	3.7640902E-001	-2.7037326E+002
3	0	1.214333782700342E+003	3.7522623E-001	-2.7038031E+002
3	0	1.214833782687710E+003	3.7419015E-001	-2.7039447E+002
3	0	1.215333782675079E+003	3.7325135E-001	-2.7039801E+002
3	0	1.215833782662448E+003	3.7233379E-001	-2.7040155E+002
3	0	1.216333782649817E+003	3.7136456E-001	-2.7036267E+002
3	0	1.216833782637186E+003	3.7087578E-001	-2.7040155E+002
3	0	1.217333782624555E+003	3.7118226E-001	-2.7039093E+002
3	0	1.217833782611924E+003	3.7147602E-001	-2.7039447E+002
3	0	1.218333782599293E+003	3.7165573E-001	-2.7038742E+002
3	0	1.218833782586662E+003	3.7200606E-001	-2.7039801E+002
3	0	1.219333782574031E+003	3.7246498E-001	-2.7038385E+002
3	0	1.219833782561400E+003	3.7281033E-001	-2.7037326E+002
3	0	1.220333782548769E+003	3.7309188E-001	-2.7040155E+002
3	0	1.220833782536138E+003	3.7371415E-001	-2.7036618E+002
3	0	1.221333782523507E+003	3.7485114E-001	-2.7037326E+002
3	0	1.221833782510876E+003	3.7577015E-001	-2.7040155E+002
3	0	1.222333782498245E+003	3.7638056E-001	-2.7036618E+002
3	0	1.222833782485613E+003	3.7695202E-001	-2.7038742E+002
3	0	1.223333782472982E+003	3.7745255E-001	-2.7038742E+002
3	0	1.223833782460351E+003	3.7769657E-001	-2.7036972E+002
3	0	1.224333782447720E+003	3.7772575E-001	-2.7038385E+002
3	0	1.224833782435089E+003	3.7804577E-001	-2.7037677E+002
3	0	1.225333782422458E+003	3.7888294E-001	-2.7035913E+002
3	0	1.225833782409827E+003	3.7948838E-001	-2.7038742E+002
3	0	1.226333782397196E+003	3.7979940E-001	-2.7036972E+002
3	0	1.226833782384565E+003	3.8002598E-001	-2.7036972E+002
3	0	1.227333782371934E+003	3.8020304E-001	-2.7036972E+002
3	0	1.227833782359303E+003	3.8010392E-001	-2.7035559E+002
3	0	1.228333782346672E+003	3.7986472E-001	-2.7038385E+002
3	0	1.228833782334041E+003	3.7988091E-001	-2.7037326E+002
3	0	1.229333782321410E+003	3.8041756E-001	-2.7036267E+002
3	0	1.229833782308779E+003	3.8073796E-001	-2.7037677E+002
3	0	1.230333782296148E+003	3.8079256E-001	-2.7038031E+002
3	0	1.230833782283516E+003	3.8075435E-001	-2.7036267E+002
3	0	1.231333782270885E+003	3.8060668E-001	-2.7037677E+002
3	0	1.231833782258254E+003	3.8028312E-001	-2.7038385E+002
3	0	1.232333782245623E+003	3.7980387E-001	-2.7040155E+002
3	0	1.232833782232992E+003	3.7960845E-001	-2.7038031E+002
3	0	1.233333782220361E+003	3.7991405E-001	-2.7040155E+002
3	0	1.233833782207730E+003	3.8005984E-001	-2.7036618E+002
3	0	1.234333782195099E+003	3.8000649E-001	-2.7038385E+002
3	0	1.234833782182468E+003	3.7986755E-001	-2.7036972E+002
3	0	1.235333782169837E+003	3.7965140E-001	-2.7038031E+002
3	0	1.235833782157206E+003	3.7926117E-001	-2.7038742E+002
3	0	1.236333782144575E+003	3.7869430E-001	-2.7038385E+002
3	0	1.236833782131944E+003	3.7837383E-001	-2.7038385E+002
3	0	1.237333782119313E+003	3.7861910E-001	-2.7039447E+002
3	0	1.237833782106682E+003	3.7881854E-001	-2.7038742E+002
3	0	1.238333782094051E+003	3.7893134E-001	-2.7036972E+002
3	0	1.238833782081419E+003	3.7913293E-001	-2.7038031E+002
3	0	1.239333782068788E+003	3.7941864E-001	-2.7038742E+002
3	0	1.239833782056157E+003	3.7964374E-001	-2.7037326E+002
3	0	1.240333782043526E+003	3.7988842E-001	-2.7036267E+002
3	0	1.240833782030895E+003	3.8035846E-001	-2.7037326E+002
3	0	1.241333782018264E+003	3.8132948E-001	-2.7039447E+002
3	0	1.241833782005633E+003	3.8205788E-001	-2.7040155E+002
3	0	1.242333781993002E+003	3.8250121E-001	-2.7038385E+002
3	0	1.242833781980371E+003	3.8288501E-001	-2.7038031E+002
3	0	1.243333781967740E+003	3.8318184E-001	-2.7037326E+002
3	0	1.243833781955109E+003	3.8323942E-001	-2.7039801E+002
3	0	1.244333781942478E+003	3.8299736E-001	-2.7038031E+002
3	0	1.244833781929847E+003	3.8306826E-001	-2.7037677E+002
3	0	1.245333781917216E+003	3.8357428E-001	-2.7037677E+002
3	0	1.245833781904585E+003	3.8385662E-001	-2.7038385E+002
3	0	1.246333781891954E+003	3.8388366E-001	-2.7038031E+002
3	0	1.246833781879322E+003	3.8380155E-001	-2.7038742E+002
3	0	1.247333781866691E+003	3.8367254E-001	-2.7036972E+002
3	0	1.247833781854060E+003	3.8333121E-001	-2.7037326E+002
3	0	1.248333781841429E+003	3.8275555E-001	-2.7039447E+002
3	0	1.248833781828798E+003	3.8239992E-001	-2.7035913E+002
3	0	1.249333781816167E+003	3.8249701E-001	-2.7036267E+002
3	0	1.249833781803536E+003	3.8237986E-001	-2.7036972E+002
3	0	1.250333781790905E+003	3.8209239E-001	-2.7038385E+002
3	0	1.250833781778274E+003	3.8177925E-001	-2.7036972E+002
3	0	1.251333781765643E+003	3.8136446E-001	-2.7041214E+002
3	0	1.251833781753012E+003	3.8079187E-001	-2.7036972E+002
3	0	1.252333781740381E+003	3.8004807E-001	-2.7038385E+002
3	0	1.252833781727750E+003	3.7945861E-001	-2.7039093E+002
3	0	1.253333781715119E+003	3.7938705E-001	-2.7038031E+002
3	0	1.253833781702488E+003	3.7915707E-001	-2.7038742E+002
3	0	1.254333781689857E+003	3.7876108E-001	-2.7038031E+002
3	0	1.254833781677225E+003	3.7824875E-001	-2.7037677E+002
3	0	1.255333781664594E+003	3.7772033E-001	-2.7036267E+002
3	0	1.255833781651963E+003	3.7703311E-001	-2.7039447E+002
3	0	1.256333781639332E+003	3.7623098E-001	-2.7036267E+002
3	0	1.256833781626701E+003	3.7568691E-001	-2.7037326E+002
3	0	1.257333781614070E+003	3.7563246E-001	-2.7036972E+002
3	0	1.257833781601439E+003	3.7547576E-001	-2.7038742E+002
3	0	1.258333781588808E+003	3.7529951E-001	-2.7037326E+002
3	0	1.258833781576177E+003	3.7523791E-001	-2.7038385E+002
3	0	1.259333781563546E+003	3.7526229E-001	-2.7038385E+002
3	0	1.259833781550915E+003	3.7524644E-001	-2.7038385E+002
3	0	1.260333781538284E+003	3.7512130E-001	-2.7036972E+002
3	0	1.260833781525653E+003	3.7526870E-001	-2.7037326E+002
3	0	1.261333781513022E+003	3.7583473E-001	-2.7036972E+002
3	0	1.261833781500391E+003	3.7618273E-001	-2.7038385E+002
3	0	1.262333781487760E+003	3.7626219E-001	-2.7037677E+002
3	0	1.262833781475128E+003	3.7632591E-001	-2.7038385E+002
3	0	1.263333781462497E+003	3.7627575E-001	-2.7039801E+002
3	0	1.263833781449866E+003	3.7602943E-001	-2.7037326E+002
3	0	1.264333781437235E+003	3.7560454E-001	-2.7036972E+002
3	0	1.264833781424604E+003	3.7537706E-001	-2.7036972E+002
3	0	1.265333781411973E+003	3.7556210E-001	-2.7038031E+002
3	0	1.265833781399342E+003	3.7559003E-001	-2.7038385E+002
3	0	1.266333781386711E+003	3.7540701E-001	-2.7038742E+002
3	0	1.266833781374080E+003	3.7519783E-001	-2.7036618E+002
3	0	1.267333781361449E+003	3.7489113E-001	-2.7038385E+002
3	0	1.267833781348818E+003	3.7440395E-001	-2.7035205E+002
3	0	1.268333781336187E+003	3.7379020E-001	-2.7035913E+002
3	0	1.268833781323556E+003	3.7336746E-001	-2.7038385E+002
3	0	1.269333781310925E+003	3.7332779E-001	-2.7039093E+002
3	0	1.269833781298294E+003	3.7312388E-001	-2.7038742E+002
3	0	1.270333781285663E+003	3.7271449E-001	-2.7038742E+002
3	0	1.270833781273031E+003	3.7232196E-001	-2.7038385E+002
3	0	1.271333781260400E+003	3.7186968E-001	-2.7038031E+002
3	0	1.271833781247769E+003	3.7134176E-001	-2.7036618E+002
3	0	1.272333781235138E+003	3.7060001E-001	-2.7037677E+002
3	0	1.272833781222507E+003	3.7008211E-001	-2.7035913E+002
3	0	1.273333781209876E+003	3.6997071E-001	-2.7035913E+002
3	0	1.273833781197245E+003	3.6974934E-001	-2.7037677E+002
3	0	1.274333781184614E+003	3.6938089E-001	-2.7039801E+002
3	0	1.274833781171983E+003	3.6899742E-001	-2.7038031E+002
3	0	1.275333781159352E+003	3.6859885E-001	-2.7037677E+002
3	0	1.275833781146721E+003	3.6803871E-001	-2.7036267E+002
3	0	1.276333781134090E+003	3.6736384E-001	-2.7034851E+002
3	0	1.276833781121459E+003	3.6685485E-001	-2.7038742E+002
3	0	1.277333781108828E+003	3.6675683E-001	-2.7038385E+002
3	0	1.277833781096197E+003	3.6663875E-001	-2.7038031E+002
3	0	1.278333781083566E+003	3.6646071E-001	-2.7038385E+002
3	0	1.278833781070934E+003	3.6630559E-001	-2.7038742E+002
3	0	1.279333781058303E+003	3.6627623E-001	-2.7036618E+002
3	0	1.279833781045672E+003	3.6609811E-001	-2.7041919E+002
3	0	1.280333781033041E+003	3.6591744E-001	-2.7037677E+002
3	0	1.280833781020410E+003	3.6602101E-001	-2.7039093E+002
3	0	1.281333781007779E+003	3.6644682E-001	-2.7037326E+002
3	0	1.281833780995148E+003	3.6672980E-001	-2.7038385E+002
3	0	1.282333780982517E+003	3.6683798E-001	-2.7035559E+002
3	0	1.282833780969886E+003	3.6689824E-001	-2.7039093E+002
3	0	1.283333780957255E+003	3.6683634E-001	-2.7039093E+002
3	0	1.283833780944624E+003	3.6663124E-001	-2.7035913E+002
3	0	1.284333780931993E+003	3.6626223E-001	-2.7036618E+002
3	0	1.284833780919362E+003	3.6605278E-001	-2.7037326E+002
3	0	1.285333780906731E+003	3.6618844E-001	-2.7035559E+002
3	0	1.285833780894100E+003	3.6618090E-001	-2.7039093E+002
3	0	1.286333780881469E+003	3.6602151E-001	-2.7038385E+002
3	0	1.286833780868837E+003	3.6579442E-001	-2.7035205E+002
3	0	1.287333780856206E+003	3.6555338E-001	-2.7036267E+002
3	0	1.287833780843575E+003	3.6515722E-001	-2.7038385E+002
3	0	1.288333780830944E+003	3.6463928E-001	-2.7038742E+002
3	0	1.288833780818313E+003	3.6425045E-001	-2.7037326E+002
3	0	1.289333780805682E+003	3.6417699E-001	-2.7037326E+002
3	0	1.289833780793051E+003	3.6398497E-001	-2.7036972E+002
3	0	1.290333780780420E+003	3.6367384E-001	-2.7036267E+002
3	0	1.290833780767789E+003	3.6332303E-001	-2.7039801E+002
3	0	1.291333780755158E+003	3.6296707E-001	-2.7035913E+002
3	0	1.291833780742527E+003	3.6245948E-001	-2.7038031E+002
3	0	1.292333780729896E+003	3.6182299E-001	-2.7039447E+002
3	0	1.292833780717265E+003	3.6139831E-001	-2.7038385E+002
3	0	1.293333780704634E+003	3.6127552E-001	-2.7038385E+002
3	0	1.293833780692003E+003	3.6104110E-001	-2.7039093E+002
3	0	1.294333780679372E+003	3.6069787E-001	-2.7037677E+002
3	0	1.294833780666740E+003	3.6029375E-001	-2.7039447E+002
3	0	1.295333780654109E+003	3.5991955E-001	-2.7036972E+002
3	0	1.295833780641478E+003	3.5942891E-001	-2.7038031E+002
3	0	1.296333780628847E+003	3.5883683E-001	-2.7038385E+002
3	0	1.296833780616216E+003	3.5840136E-001	-2.7037677E+002
3	0	1.297333780603585E+003	3.5827711E-001	-2.7038031E+002
3	0	1.297833780590954E+003	3.5810423E-001	-2.7040155E+002
3	0	1.298333780578323E+003	3.5789651E-001	-2.7038742E+002
3	0	1.298833780565692E+003	3.5776362E-001	-2.7039093E+002
3	0	1.299333780553061E+003	3.5767934E-001	-2.7036972E+002
3	0	1.299833780540430E+003	3.5760343E-001	-2.7039447E+002
3	0	1.300333780527799E+003	3.5746154E-001	-2.7039093E+002
3	0	1.300833780515168E+003	3.5751072E-001	-2.7040155E+002
3	0	1.301333780502537E+003	3.5786274E-001	-2.7037326E+002
3	0	1.301833780489906E+003	3.5813177E-001	-2.7038742E+002
3	0	1.302333780477275E+003	3.5824141E-001	-2.7040506E+002
3	0	1.302833780464644E+003	3.5823354E-001	-2.7039093E+002
3	0	1.303333780452012E+003	3.5819444E-001	-2.7035913E+002
3	0	1.303833780439381E+003	3.5802332E-001	-2.7039093E+002
3	0	1.304333780426750E+003	3.5771662E-001	-2.7040506E+002
3	0	1.304833780414119E+003	3.5753798E-001	-2.7040506E+002
3	0	1.305333780401488E+003	3.5760424E-001	-2.7037326E+002
3	0	1.305833780388857E+003	3.5754699E-001	-2.7040155E+002
3	0	1.306333780376226E+003	3.5735822E-001	-2.7039801E+002
3	0	1.306833780363595E+003	3.5712326E-001	-2.7040860E+002
3	0	1.307333780350964E+003	3.5692880E-001	-2.7034851E+002
3	0	1.307833780338333E+003	3.5655773E-001	-2.7038385E+002
3	0	1.308333780325702E+003	3.5608596E-001	-2.7040506E+002
3	0	1.308833780313071E+003	3.5572365E-001	-2.7038031E+002
3	0	1.309333780300440E+003	3.5567445E-001	-2.7036972E+002
3	0	1.309833780287809E+003	3.5552537E-001	-2.7040155E+002
3	0	1.310333780275178E+003	3.5525876E-001	-2.7035559E+002
3	0	1.310833780262547E+003	3.5495129E-001	-2.7038742E+002
3	0	1.311333780249915E+003	3.5464922E-001	-2.7041214E+002
3	0	1.311833780237284E+003	3.5422283E-001	-2.7036267E+002
3	0	1.312333780224653E+003	3.5369462E-001	-2.7037326E+002
3	0	1.312833780212022E+003	3.5329640E-001	-2.7035913E+002
3	0	1.313333780199391E+003	3.5317901E-001	-2.7038385E+002
3	0	1.313833780186760E+003	3.5300589E-001	-2.7035913E+002
3	0	1.314333780174129E+003	3.5274947E-001	-2.7037326E+002
3	0	1.314833780161498E+003	3.5243359E-001	-2.7038385E+002
3	0	1.315333780148867E+003	3.5212404E-001	-2.7038742E+002
3	0	1.315833780136236E+003	3.5171381E-001	-2.7036618E+002
3	0	1.316333780123605E+003	3.5118675E-001	-2.7037677E+002
3	0	1.316833780110974E+003	3.5082477E-001	-2.7037326E+002
3	0	1.317333780098343E+003	3.5074636E-001	-2.7038031E+002
3	0	1.317833780085712E+003	3.5062692E-001	-2.7036267E+002
3	0	1.318333780073081E+003	3.5047778E-001	-2.7034851E+002
3	0	1.318833780060450E+003	3.5036644E-001	-2.7038031E+002
3	0	1.319333780047818E+003	3.5030642E-001	-2.7038742E+002
3	0	1.319833780035187E+003	3.5024559E-001	-2.7039801E+002
3	0	1.320333780022556E+003	3.5011572E-001	-2.7036618E+002
3	0	1.320833780009925E+003	3.5018200E-001	-2.7036618E+002
3	0	1.321333779997294E+003	3.5056111E-001	-2.7039801E+002
3	0	1.321833779984663E+003	3.5085878E-001	-2.7038742E+002
3	0	1.322333779972032E+003	3.5103753E-001	-2.7038385E+002
3	0	1.322833779959401E+003	3.5113722E-001	-2.7036618E+002
3	0	1.323333779946770E+003	3.5115790E-001	-2.7038385E+002
3	0	1.323833779934139E+003	3.5105687E-001	-2.7038031E+002
3	0	1.323858379933517E+003	3.5092121E-001	-2.7038742E+002