EC-Lab ASCII FILE
Nb header lines : 55                          

Open Circuit Voltage

Run on channel : 1 (SN 81504)
User : 
CE vs. WE compliance from -10 V to 10 V
Electrode connection : standard
Potential control : Ewe
Ewe ctrl range : min = -2.50 V, max = 2.50 V
Safety Limits :
	Do not start on E overload
Acquisition started on : 05/10/2026 07:17:37.794
Loaded Setting File :  C:\PEM-WE_measurements\2026\372_IV_IV IrOx, 5 min Pt, 30 min C, etched cathode\new station\Loopeis new\1,46 V different time gaps closed cell\Loopeis 1,46V_120s_5_PEIS from 65Hz to 10Hz.mps
Saved on :
	File : L_25_Loopeis 1,46V_120s_5_PEIS from 65Hz to 10Hz_06_OCV_C01.mpr
	Directory : C:\PEM-WE_measurements\2026\372_IV_IV IrOx, 5 min Pt, 30 min C, etched cathode\new station\Loopeis new\1,46 V different time gaps closed cell\
	Host : 192.168.0.2
Device : SP-150e (SN .005491)
Address : 192.168.0.91
EC-LAB for windows v11.71 (software)
Internet server v28.00 (firmware)
Command interpretor v14.01 (firmware)
Electrode material : 
Initial state : 
Electrolyte : 
Comments : 
Current amplifier : SP-150eB-20A
Electrode surface area : 0.001 cm²
Characteristic mass : 0.001 g
Equivalent Weight : 0.000 g/eq.
Density : 0.000 g/cm3
Volume (V) : 0.001 cm³
Record Analogic IN 1
Text export
   Mode : Standard
   Time format : Elapsed
Cycle Definition : Charge/Discharge alternance
External device configuration :
   device type : Temperature Probe
   device name : Other
   Analog IN 1 : 
      unit : T/Â°C
      max : 100.000 at 2.000 V
      min : 0.000 at 1.460 V
tR (h:m:s)          0:02:0.0000         
dER/dt (mV/h)       1.0                 
record              <Ewe>               
dER (mV)            10.00               
dtR (s)             0.5000              
E range min (V)     -2.500              
E range max (V)     2.500               

mode	error	time/s	<Ewe/V>	Analog IN 1/V	
3	0	5.182916005703737E+002	1.2898448E+000	-2.7039093E+002
3	0	5.187916005577426E+002	1.2963340E+000	-2.7036618E+002
3	0	5.192916005451116E+002	1.2957318E+000	-2.7039801E+002
3	0	5.197916005324805E+002	1.2927810E+000	-2.7036618E+002
3	0	5.202916005198495E+002	1.2866216E+000	-2.7037326E+002
3	0	5.207916005072184E+002	1.2757851E+000	-2.7037677E+002
3	0	5.212916004945873E+002	1.2582725E+000	-2.7036618E+002
3	0	5.217916004819563E+002	1.2312803E+000	-2.7038031E+002
3	0	5.222916004693252E+002	1.1896595E+000	-2.7038385E+002
3	0	5.227916004566941E+002	1.1215034E+000	-2.7037677E+002
3	0	5.232916004440631E+002	9.9391723E-001	-2.7040506E+002
3	0	5.237916004314320E+002	7.4800420E-001	-2.7036972E+002
3	0	5.242916004188010E+002	5.9903365E-001	-2.7038742E+002
3	0	5.247916004061699E+002	5.5353910E-001	-2.7037326E+002
3	0	5.252916003935388E+002	5.3628874E-001	-2.7038385E+002
3	0	5.257916003809078E+002	5.3244895E-001	-2.7035205E+002
3	0	5.262916003682767E+002	5.3399163E-001	-2.7037677E+002
3	0	5.267916003556456E+002	5.3715944E-001	-2.7035205E+002
3	0	5.272916003430146E+002	5.4120100E-001	-2.7038742E+002
3	0	5.277916003303835E+002	5.4697859E-001	-2.7035559E+002
3	0	5.282916003177525E+002	5.5317420E-001	-2.7037677E+002
3	0	5.287916003051214E+002	5.5916244E-001	-2.7038742E+002
3	0	5.292916002924903E+002	5.6452161E-001	-2.7037326E+002
3	0	5.297916002798593E+002	5.6946963E-001	-2.7038385E+002
3	0	5.302916002672282E+002	5.7364887E-001	-2.7039093E+002
3	0	5.307916002545971E+002	5.7649410E-001	-2.7035913E+002
3	0	5.312916002419661E+002	5.7892132E-001	-2.7040860E+002
3	0	5.317916002293350E+002	5.8230168E-001	-2.7035913E+002
3	0	5.322916002167040E+002	5.8546907E-001	-2.7037677E+002
3	0	5.327916002040729E+002	5.8802706E-001	-2.7036972E+002
3	0	5.332916001914418E+002	5.8977997E-001	-2.7036972E+002
3	0	5.337916001788108E+002	5.9128809E-001	-2.7038742E+002
3	0	5.342916001661797E+002	5.9226346E-001	-2.7039801E+002
3	0	5.347916001535486E+002	5.9245467E-001	-2.7035559E+002
3	0	5.352916001409176E+002	5.9227043E-001	-2.7035913E+002
3	0	5.357916001282865E+002	5.9337521E-001	-2.7038031E+002
3	0	5.362916001156555E+002	5.9463304E-001	-2.7037677E+002
3	0	5.367916001030244E+002	5.9562629E-001	-2.7035559E+002
3	0	5.372916000903933E+002	5.9606630E-001	-2.7040506E+002
3	0	5.377916000777623E+002	5.9623313E-001	-2.7037677E+002
3	0	5.382916000651312E+002	5.9596598E-001	-2.7035913E+002
3	0	5.387916000525001E+002	5.9503210E-001	-2.7039093E+002
3	0	5.392916000398691E+002	5.9387672E-001	-2.7036618E+002
3	0	5.397916000272380E+002	5.9414613E-001	-2.7040155E+002
3	0	5.402916000146070E+002	5.9474593E-001	-2.7036972E+002
3	0	5.407916000019759E+002	5.9521025E-001	-2.7038031E+002
3	0	5.412915999893448E+002	5.9533167E-001	-2.7036972E+002
3	0	5.417915999767138E+002	5.9523916E-001	-2.7039093E+002
3	0	5.422915999640827E+002	5.9501940E-001	-2.7037677E+002
3	0	5.427915999514516E+002	5.9446341E-001	-2.7037677E+002
3	0	5.432915999388206E+002	5.9411001E-001	-2.7037677E+002
3	0	5.437915999261895E+002	5.9546560E-001	-2.7037677E+002
3	0	5.442915999135585E+002	5.9746772E-001	-2.7037326E+002
3	0	5.447915999009274E+002	5.9971023E-001	-2.7037677E+002
3	0	5.452915998882963E+002	6.0192120E-001	-2.7036618E+002
3	0	5.457915998756653E+002	6.0403645E-001	-2.7036618E+002
3	0	5.462915998630342E+002	6.0596269E-001	-2.7038742E+002
3	0	5.467915998504031E+002	6.0712981E-001	-2.7038385E+002
3	0	5.472915998377721E+002	6.0794270E-001	-2.7039093E+002
3	0	5.477915998251410E+002	6.0992706E-001	-2.7037326E+002
3	0	5.482915998125100E+002	6.1203098E-001	-2.7037677E+002
3	0	5.487915997998789E+002	6.1383581E-001	-2.7037326E+002
3	0	5.492915997872478E+002	6.1513090E-001	-2.7039093E+002
3	0	5.497915997746168E+002	6.1615342E-001	-2.7038742E+002
3	0	5.502915997619857E+002	6.1649930E-001	-2.7038742E+002
3	0	5.507915997493546E+002	6.1607969E-001	-2.7038031E+002
3	0	5.512915997367236E+002	6.1531770E-001	-2.7038031E+002
3	0	5.517915997240925E+002	6.1565769E-001	-2.7038031E+002
3	0	5.522915997114615E+002	6.1630589E-001	-2.7039447E+002
3	0	5.527915996988304E+002	6.1671102E-001	-2.7036972E+002
3	0	5.532915996861993E+002	6.1668122E-001	-2.7038031E+002
3	0	5.537915996735683E+002	6.1617756E-001	-2.7038742E+002
3	0	5.542915996609372E+002	6.1518240E-001	-2.7038742E+002
3	0	5.547915996483061E+002	6.1341268E-001	-2.7036618E+002
3	0	5.552915996356751E+002	6.1127311E-001	-2.7036267E+002
3	0	5.557915996230440E+002	6.1039144E-001	-2.7038385E+002
3	0	5.562915996104130E+002	6.0985887E-001	-2.7037326E+002
3	0	5.567915995977819E+002	6.0924757E-001	-2.7036267E+002
3	0	5.572915995851508E+002	6.0830981E-001	-2.7039801E+002
3	0	5.577915995725198E+002	6.0708338E-001	-2.7037326E+002
3	0	5.582915995598887E+002	6.0548449E-001	-2.7037677E+002
3	0	5.587915995472576E+002	6.0322922E-001	-2.7039447E+002
3	0	5.592915995346266E+002	6.0053724E-001	-2.7036972E+002
3	0	5.597915995219955E+002	5.9904480E-001	-2.7038031E+002
3	0	5.602915995093645E+002	5.9804702E-001	-2.7039093E+002
3	0	5.607915994967334E+002	5.9701234E-001	-2.7037326E+002
3	0	5.612915994841023E+002	5.9560621E-001	-2.7039093E+002
3	0	5.617915994714713E+002	5.9397686E-001	-2.7039447E+002
3	0	5.622915994588402E+002	5.9217459E-001	-2.7039447E+002
3	0	5.627915994462091E+002	5.9006959E-001	-2.7036618E+002
3	0	5.632915994335781E+002	5.8811307E-001	-2.7038742E+002
3	0	5.637915994209470E+002	5.8792293E-001	-2.7038031E+002
3	0	5.642915994083160E+002	5.8883667E-001	-2.7040155E+002
3	0	5.647915993956849E+002	5.9027302E-001	-2.7036618E+002
3	0	5.652915993830538E+002	5.9190750E-001	-2.7036972E+002
3	0	5.657915993704228E+002	5.9369081E-001	-2.7039801E+002
3	0	5.662915993577917E+002	5.9524602E-001	-2.7037326E+002
3	0	5.667915993451606E+002	5.9604806E-001	-2.7036618E+002
3	0	5.672915993325296E+002	5.9639335E-001	-2.7035913E+002
3	0	5.677915993198985E+002	5.9789485E-001	-2.7038031E+002
3	0	5.682915993072675E+002	5.9959185E-001	-2.7038742E+002
3	0	5.687915992946364E+002	6.0105729E-001	-2.7039093E+002
3	0	5.692915992820053E+002	6.0209900E-001	-2.7036267E+002
3	0	5.697915992693743E+002	6.0272694E-001	-2.7035913E+002
3	0	5.702915992567432E+002	6.0271233E-001	-2.7039093E+002
3	0	5.707915992441121E+002	6.0180140E-001	-2.7039447E+002
3	0	5.712915992314811E+002	6.0030681E-001	-2.7038031E+002
3	0	5.717915992188500E+002	5.9991008E-001	-2.7037326E+002
3	0	5.722915992062190E+002	5.9981859E-001	-2.7038031E+002
3	0	5.727915991935879E+002	5.9948790E-001	-2.7035559E+002
3	0	5.732915991809568E+002	5.9879774E-001	-2.7036972E+002
3	0	5.737915991683258E+002	5.9758419E-001	-2.7037677E+002
3	0	5.742915991556947E+002	5.9585059E-001	-2.7039447E+002
3	0	5.747915991430637E+002	5.9324634E-001	-2.7038031E+002
3	0	5.752915991304326E+002	5.9030074E-001	-2.7036618E+002
3	0	5.757915991178015E+002	5.8849210E-001	-2.7036618E+002
3	0	5.762915991051705E+002	5.8713251E-001	-2.7036972E+002
3	0	5.767915990925394E+002	5.8570933E-001	-2.7037677E+002
3	0	5.772915990799083E+002	5.8393723E-001	-2.7038742E+002
3	0	5.777915990672773E+002	5.8156961E-001	-2.7040155E+002
3	0	5.782915990546462E+002	5.7846081E-001	-2.7038742E+002
3	0	5.787915990420152E+002	5.7572407E-001	-2.7036618E+002
3	0	5.792915990293841E+002	5.7271022E-001	-2.7037326E+002
3	0	5.797915990167530E+002	5.7070309E-001	-2.7037677E+002
3	0	5.802915990041220E+002	5.6892151E-001	-2.7039093E+002
3	0	5.807915989914909E+002	5.6672353E-001	-2.7038031E+002
3	0	5.812915989788598E+002	5.6449515E-001	-2.7039093E+002
3	0	5.817915989662288E+002	5.6201625E-001	-2.7038031E+002
3	0	5.822915989535977E+002	5.5929589E-001	-2.7038031E+002
3	0	5.827915989409667E+002	5.5620641E-001	-2.7038031E+002
3	0	5.832915989283356E+002	5.5331308E-001	-2.7036618E+002
3	0	5.837915989157045E+002	5.5225909E-001	-2.7039093E+002
3	0	5.842915989030735E+002	5.5203831E-001	-2.7039447E+002
3	0	5.847915988904424E+002	5.5217010E-001	-2.7036267E+002
3	0	5.852915988778113E+002	5.5284047E-001	-2.7038385E+002
3	0	5.857915988651803E+002	5.5384737E-001	-2.7038031E+002
3	0	5.862915988525492E+002	5.5478561E-001	-2.7038031E+002
3	0	5.867915988399182E+002	5.5527198E-001	-2.7036972E+002
3	0	5.872915988272871E+002	5.5555671E-001	-2.7037326E+002
3	0	5.877915988146560E+002	5.5702752E-001	-2.7038742E+002
3	0	5.882915988020250E+002	5.5876648E-001	-2.7040155E+002
3	0	5.887915987893939E+002	5.6002241E-001	-2.7036618E+002
3	0	5.892915987767628E+002	5.6094348E-001	-2.7035913E+002
3	0	5.897915987641318E+002	5.6153655E-001	-2.7035913E+002
3	0	5.902915987515007E+002	5.6149143E-001	-2.7036267E+002
3	0	5.907915987388697E+002	5.6050807E-001	-2.7037326E+002
3	0	5.912915987262386E+002	5.5903041E-001	-2.7038742E+002
3	0	5.917915987136075E+002	5.5861884E-001	-2.7039447E+002
3	0	5.922915987009765E+002	5.5836880E-001	-2.7036618E+002
3	0	5.927915986883454E+002	5.5761057E-001	-2.7038742E+002
3	0	5.932915986757143E+002	5.5658382E-001	-2.7038742E+002
3	0	5.937915986630833E+002	5.5531073E-001	-2.7039447E+002
3	0	5.942915986504522E+002	5.5352259E-001	-2.7038031E+002
3	0	5.947915986378212E+002	5.5088502E-001	-2.7041568E+002
3	0	5.952915986251901E+002	5.4776907E-001	-2.7040506E+002
3	0	5.957915986125590E+002	5.4584867E-001	-2.7036972E+002
3	0	5.962915985999280E+002	5.4417247E-001	-2.7037326E+002
3	0	5.967915985872969E+002	5.4214245E-001	-2.7038385E+002
3	0	5.972915985746658E+002	5.3988779E-001	-2.7039801E+002
3	0	5.977915985620348E+002	5.3733748E-001	-2.7039801E+002
3	0	5.982915985494037E+002	5.3417879E-001	-2.7038742E+002
3	0	5.987915985367727E+002	5.3019446E-001	-2.7037326E+002
3	0	5.992915985241416E+002	5.2624798E-001	-2.7038742E+002
3	0	5.997915985115105E+002	5.2373725E-001	-2.7036267E+002
3	0	6.002915984988795E+002	5.2132583E-001	-2.7037326E+002
3	0	6.007915984862484E+002	5.1871496E-001	-2.7037677E+002
3	0	6.012915984736173E+002	5.1589644E-001	-2.7036972E+002
3	0	6.017915984609863E+002	5.1284307E-001	-2.7039093E+002
3	0	6.022915984483552E+002	5.0935394E-001	-2.7037326E+002
3	0	6.027915984357242E+002	5.0554889E-001	-2.7034851E+002
3	0	6.032915984230931E+002	5.0211591E-001	-2.7039801E+002
3	0	6.037915984104620E+002	5.0056905E-001	-2.7036972E+002
3	0	6.042915983978310E+002	4.9954709E-001	-2.7038742E+002
3	0	6.047915983851999E+002	4.9886447E-001	-2.7036972E+002
3	0	6.052915983725688E+002	4.9860516E-001	-2.7036618E+002
3	0	6.057915983599378E+002	4.9870285E-001	-2.7037326E+002
3	0	6.062915983473067E+002	4.9878660E-001	-2.7036972E+002
3	0	6.067915983346757E+002	4.9839234E-001	-2.7036972E+002
3	0	6.072915983220446E+002	4.9787691E-001	-2.7037677E+002
3	0	6.077915983094135E+002	4.9869666E-001	-2.7040155E+002
3	0	6.082915982967825E+002	4.9951702E-001	-2.7038031E+002
3	0	6.087915982841514E+002	5.0009173E-001	-2.7038031E+002
3	0	6.092915982715203E+002	5.0038159E-001	-2.7036972E+002
3	0	6.097915982588893E+002	5.0029820E-001	-2.7035913E+002
3	0	6.102915982462582E+002	4.9978858E-001	-2.7038742E+002
3	0	6.107915982336272E+002	4.9858147E-001	-2.7038031E+002
3	0	6.112915982209961E+002	4.9701580E-001	-2.7035913E+002
3	0	6.117915982083650E+002	4.9657726E-001	-2.7035913E+002
3	0	6.122915981957340E+002	4.9608907E-001	-2.7036972E+002
3	0	6.127915981831029E+002	4.9526551E-001	-2.7038742E+002
3	0	6.132915981704718E+002	4.9404827E-001	-2.7036972E+002
3	0	6.137915981578408E+002	4.9245960E-001	-2.7036972E+002
3	0	6.142915981452097E+002	4.9037462E-001	-2.7036618E+002
3	0	6.147915981325787E+002	4.8758796E-001	-2.7040155E+002
3	0	6.152915981199476E+002	4.8467240E-001	-2.7038385E+002
3	0	6.157915981073165E+002	4.8300412E-001	-2.7038742E+002
3	0	6.162915980946855E+002	4.8123741E-001	-2.7037677E+002
3	0	6.167915980820544E+002	4.7916082E-001	-2.7038385E+002
3	0	6.172915980694233E+002	4.7687489E-001	-2.7037326E+002
3	0	6.177915980567923E+002	4.7431087E-001	-2.7036618E+002
3	0	6.182915980441612E+002	4.7142884E-001	-2.7036972E+002
3	0	6.187915980315302E+002	4.6802995E-001	-2.7038385E+002
3	0	6.192915980188991E+002	4.6453992E-001	-2.7036972E+002
3	0	6.197915980062680E+002	4.6228498E-001	-2.7036618E+002
3	0	6.202915979936370E+002	4.6007171E-001	-2.7038742E+002
3	0	6.207915979810059E+002	4.5764440E-001	-2.7036972E+002
3	0	6.212915979683748E+002	4.5514786E-001	-2.7039801E+002
3	0	6.217915979557438E+002	4.5241535E-001	-2.7038742E+002
3	0	6.222915979431127E+002	4.4960704E-001	-2.7038385E+002
3	0	6.227915979304817E+002	4.4643220E-001	-2.7038031E+002
3	0	6.232915979178506E+002	4.4346344E-001	-2.7038385E+002
3	0	6.237915979052195E+002	4.4191447E-001	-2.7038385E+002
3	0	6.242915978925885E+002	4.4089797E-001	-2.7035559E+002
3	0	6.247915978799574E+002	4.4011018E-001	-2.7036618E+002
3	0	6.252915978673263E+002	4.3960905E-001	-2.7036618E+002
3	0	6.257915978546953E+002	4.3927237E-001	-2.7038385E+002
3	0	6.262915978420642E+002	4.3887708E-001	-2.7037326E+002
3	0	6.267915978294332E+002	4.3813840E-001	-2.7037326E+002
3	0	6.272915978168021E+002	4.3733430E-001	-2.7036972E+002
3	0	6.277915978041710E+002	4.3754533E-001	-2.7039801E+002
3	0	6.282915977915400E+002	4.3762800E-001	-2.7035913E+002
3	0	6.287915977789089E+002	4.3748215E-001	-2.7036618E+002
3	0	6.292915977662778E+002	4.3713444E-001	-2.7036618E+002
3	0	6.297915977536468E+002	4.3655902E-001	-2.7036972E+002
3	0	6.302915977410157E+002	4.3569964E-001	-2.7038031E+002
3	0	6.307915977283847E+002	4.3435201E-001	-2.7038031E+002
3	0	6.312915977157536E+002	4.3282542E-001	-2.7035913E+002
3	0	6.317915977031225E+002	4.3219069E-001	-2.7036972E+002
3	0	6.322915976904915E+002	4.3145394E-001	-2.7039447E+002
3	0	6.327915976778604E+002	4.3046531E-001	-2.7040506E+002
3	0	6.332915976652293E+002	4.2921111E-001	-2.7038742E+002
3	0	6.337915976525983E+002	4.2782888E-001	-2.7038742E+002
3	0	6.342915976399672E+002	4.2608684E-001	-2.7036972E+002
3	0	6.347915976273362E+002	4.2400035E-001	-2.7039093E+002
3	0	6.352915976147051E+002	4.2170763E-001	-2.7035913E+002
3	0	6.357915976020740E+002	4.2038441E-001	-2.7040155E+002
3	0	6.362915975894430E+002	4.1907629E-001	-2.7038742E+002
3	0	6.367915975768119E+002	4.1753474E-001	-2.7036972E+002
3	0	6.372915975641808E+002	4.1578194E-001	-2.7038385E+002
3	0	6.377915975515498E+002	4.1380125E-001	-2.7036972E+002
3	0	6.377919975515397E+002	4.1271192E-001	-2.7037677E+002