EC-Lab ASCII FILE
Nb header lines : 55                          

Open Circuit Voltage

Run on channel : 1 (SN 81504)
User : 
CE vs. WE compliance from -10 V to 10 V
Electrode connection : standard
Potential control : Ewe
Ewe ctrl range : min = -2.50 V, max = 2.50 V
Safety Limits :
	Do not start on E overload
Acquisition started on : 05/10/2026 07:17:37.794
Loaded Setting File :  C:\PEM-WE_measurements\2026\372_IV_IV IrOx, 5 min Pt, 30 min C, etched cathode\new station\Loopeis new\1,46 V different time gaps closed cell\Loopeis 1,46V_120s_5_PEIS from 65Hz to 10Hz.mps
Saved on :
	File : L_25_Loopeis 1,46V_120s_5_PEIS from 65Hz to 10Hz_18_OCV_C01.mpr
	Directory : C:\PEM-WE_measurements\2026\372_IV_IV IrOx, 5 min Pt, 30 min C, etched cathode\new station\Loopeis new\1,46 V different time gaps closed cell\
	Host : 192.168.0.2
Device : SP-150e (SN .005491)
Address : 192.168.0.91
EC-LAB for windows v11.71 (software)
Internet server v28.00 (firmware)
Command interpretor v14.01 (firmware)
Electrode material : 
Initial state : 
Electrolyte : 
Comments : 
Current amplifier : SP-150eB-20A
Electrode surface area : 0.001 cm²
Characteristic mass : 0.001 g
Equivalent Weight : 0.000 g/eq.
Density : 0.000 g/cm3
Volume (V) : 0.001 cm³
Record Analogic IN 1
Text export
   Mode : Standard
   Time format : Elapsed
Cycle Definition : Charge/Discharge alternance
External device configuration :
   device type : Temperature Probe
   device name : Other
   Analog IN 1 : 
      unit : T/Â°C
      max : 100.000 at 2.000 V
      min : 0.000 at 1.460 V
tR (h:m:s)          0:02:0.0000         
dER/dt (mV/h)       1.0                 
record              <Ewe>               
dER (mV)            10.00               
dtR (s)             0.5000              
E range min (V)     -2.500              
E range max (V)     2.500               

mode	error	time/s	<Ewe/V>	Analog IN 1/V	
3	0	1.511009985512137E+003	1.2920705E+000	-2.7035559E+002
3	0	1.511509985499506E+003	1.2991589E+000	-2.7035913E+002
3	0	1.512009985486875E+003	1.2975550E+000	-2.7036972E+002
3	0	1.512509985474244E+003	1.2924162E+000	-2.7038742E+002
3	0	1.513009985461613E+003	1.2823392E+000	-2.7039801E+002
3	0	1.513509985448982E+003	1.2652893E+000	-2.7036618E+002
3	0	1.514009985436351E+003	1.2382003E+000	-2.7036267E+002
3	0	1.514509985423720E+003	1.1950908E+000	-2.7038742E+002
3	0	1.515009985411089E+003	1.1166537E+000	-2.7036618E+002
3	0	1.515509985398458E+003	8.8346940E-001	-2.7039447E+002
3	0	1.516009985385826E+003	5.7182592E-001	-2.7040506E+002
3	0	1.516509985373195E+003	4.7455284E-001	-2.7036618E+002
3	0	1.517009985360564E+003	4.4264710E-001	-2.7036618E+002
3	0	1.517509985347933E+003	4.3209952E-001	-2.7038031E+002
3	0	1.518009985335302E+003	4.2691097E-001	-2.7036972E+002
3	0	1.518509985322671E+003	4.2323792E-001	-2.7038742E+002
3	0	1.519009985310040E+003	4.2093414E-001	-2.7038031E+002
3	0	1.519509985297409E+003	4.1956517E-001	-2.7040155E+002
3	0	1.520009985284778E+003	4.1823348E-001	-2.7038742E+002
3	0	1.520509985272147E+003	4.1686949E-001	-2.7035913E+002
3	0	1.521009985259516E+003	4.1575250E-001	-2.7037677E+002
3	0	1.521509985246885E+003	4.1482401E-001	-2.7038385E+002
3	0	1.522009985234254E+003	4.1373703E-001	-2.7036972E+002
3	0	1.522509985221623E+003	4.1267711E-001	-2.7036267E+002
3	0	1.523009985208992E+003	4.1227585E-001	-2.7035559E+002
3	0	1.523509985196361E+003	4.1243333E-001	-2.7039093E+002
3	0	1.524009985183729E+003	4.1241390E-001	-2.7037326E+002
3	0	1.524509985171098E+003	4.1216692E-001	-2.7037326E+002
3	0	1.525009985158467E+003	4.1190434E-001	-2.7039093E+002
3	0	1.525509985145836E+003	4.1160148E-001	-2.7041214E+002
3	0	1.526009985133205E+003	4.1109768E-001	-2.7038742E+002
3	0	1.526509985120574E+003	4.1049090E-001	-2.7038031E+002
3	0	1.527009985107943E+003	4.1039968E-001	-2.7036618E+002
3	0	1.527509985095312E+003	4.1078284E-001	-2.7037326E+002
3	0	1.528009985082681E+003	4.1104281E-001	-2.7037677E+002
3	0	1.528509985070050E+003	4.1120729E-001	-2.7036618E+002
3	0	1.529009985057419E+003	4.1164574E-001	-2.7037326E+002
3	0	1.529509985044788E+003	4.1217312E-001	-2.7038742E+002
3	0	1.530009985032157E+003	4.1260514E-001	-2.7038385E+002
3	0	1.530509985019526E+003	4.1302550E-001	-2.7037677E+002
3	0	1.531009985006895E+003	4.1405100E-001	-2.7038742E+002
3	0	1.531509984994264E+003	4.1544867E-001	-2.7039093E+002
3	0	1.532009984981632E+003	4.1660282E-001	-2.7038742E+002
3	0	1.532509984969001E+003	4.1748747E-001	-2.7037677E+002
3	0	1.533009984956370E+003	4.1827008E-001	-2.7036267E+002
3	0	1.533509984943739E+003	4.1896120E-001	-2.7039447E+002
3	0	1.534009984931108E+003	4.1940641E-001	-2.7040155E+002
3	0	1.534509984918477E+003	4.1960955E-001	-2.7038385E+002
3	0	1.535009984905846E+003	4.2022577E-001	-2.7038031E+002
3	0	1.535509984893215E+003	4.2122781E-001	-2.7040860E+002
3	0	1.536009984880584E+003	4.2198953E-001	-2.7038385E+002
3	0	1.536509984867953E+003	4.2243123E-001	-2.7037326E+002
3	0	1.537009984855322E+003	4.2275548E-001	-2.7038742E+002
3	0	1.537509984842691E+003	4.2296985E-001	-2.7037677E+002
3	0	1.538009984830060E+003	4.2288578E-001	-2.7037326E+002
3	0	1.538509984817429E+003	4.2259452E-001	-2.7039447E+002
3	0	1.539009984804798E+003	4.2284340E-001	-2.7038742E+002
3	0	1.539509984792167E+003	4.2346868E-001	-2.7038031E+002
3	0	1.540009984779535E+003	4.2384547E-001	-2.7038385E+002
3	0	1.540509984766904E+003	4.2392874E-001	-2.7038385E+002
3	0	1.541009984754273E+003	4.2389861E-001	-2.7039447E+002
3	0	1.541509984741642E+003	4.2376965E-001	-2.7038742E+002
3	0	1.542009984729011E+003	4.2337614E-001	-2.7038742E+002
3	0	1.542509984716380E+003	4.2272195E-001	-2.7039447E+002
3	0	1.543009984703749E+003	4.2257091E-001	-2.7036972E+002
3	0	1.543509984691118E+003	4.2278644E-001	-2.7038031E+002
3	0	1.544009984678487E+003	4.2280281E-001	-2.7037326E+002
3	0	1.544509984665856E+003	4.2250374E-001	-2.7035559E+002
3	0	1.545009984653225E+003	4.2214495E-001	-2.7038031E+002
3	0	1.545509984640594E+003	4.2175481E-001	-2.7038031E+002
3	0	1.546009984627963E+003	4.2102262E-001	-2.7038742E+002
3	0	1.546509984615332E+003	4.2016554E-001	-2.7036267E+002
3	0	1.547009984602701E+003	4.1975006E-001	-2.7039801E+002
3	0	1.547509984590070E+003	4.1978648E-001	-2.7036618E+002
3	0	1.548009984577438E+003	4.1973668E-001	-2.7038385E+002
3	0	1.548509984564807E+003	4.1958326E-001	-2.7036267E+002
3	0	1.549009984552176E+003	4.1955915E-001	-2.7037677E+002
3	0	1.549509984539545E+003	4.1961229E-001	-2.7038385E+002
3	0	1.550009984526914E+003	4.1952088E-001	-2.7036618E+002
3	0	1.550509984514283E+003	4.1955709E-001	-2.7039093E+002
3	0	1.551009984501652E+003	4.2016461E-001	-2.7036972E+002
3	0	1.551509984489021E+003	4.2121825E-001	-2.7039801E+002
3	0	1.552009984476390E+003	4.2211190E-001	-2.7038385E+002
3	0	1.552509984463759E+003	4.2275667E-001	-2.7037326E+002
3	0	1.553009984451128E+003	4.2329070E-001	-2.7037677E+002
3	0	1.553509984438497E+003	4.2369446E-001	-2.7036267E+002
3	0	1.554009984425866E+003	4.2375588E-001	-2.7038031E+002
3	0	1.554509984413235E+003	4.2357117E-001	-2.7037326E+002
3	0	1.555009984400604E+003	4.2382190E-001	-2.7037677E+002
3	0	1.555509984387973E+003	4.2443463E-001	-2.7038385E+002
3	0	1.556009984375341E+003	4.2479247E-001	-2.7038031E+002
3	0	1.556509984362710E+003	4.2483479E-001	-2.7037326E+002
3	0	1.557009984350079E+003	4.2481130E-001	-2.7036267E+002
3	0	1.557509984337448E+003	4.2458126E-001	-2.7038031E+002
3	0	1.558009984324817E+003	4.2409968E-001	-2.7037326E+002
3	0	1.558509984312186E+003	4.2341891E-001	-2.7036972E+002
3	0	1.559009984299555E+003	4.2307121E-001	-2.7038385E+002
3	0	1.559509984286924E+003	4.2311585E-001	-2.7038031E+002
3	0	1.560009984274293E+003	4.2299354E-001	-2.7038385E+002
3	0	1.560509984261662E+003	4.2258039E-001	-2.7037677E+002
3	0	1.561009984249031E+003	4.2205614E-001	-2.7040155E+002
3	0	1.561509984236400E+003	4.2142215E-001	-2.7035559E+002
3	0	1.562009984223769E+003	4.2058671E-001	-2.7039093E+002
3	0	1.562509984211138E+003	4.1953427E-001	-2.7038031E+002
3	0	1.563009984198507E+003	4.1894192E-001	-2.7038385E+002
3	0	1.563509984185876E+003	4.1876605E-001	-2.7038385E+002
3	0	1.564009984173244E+003	4.1844115E-001	-2.7038385E+002
3	0	1.564509984160613E+003	4.1785213E-001	-2.7038742E+002
3	0	1.565009984147982E+003	4.1720623E-001	-2.7039093E+002
3	0	1.565509984135351E+003	4.1648591E-001	-2.7038385E+002
3	0	1.566009984122720E+003	4.1555157E-001	-2.7038031E+002
3	0	1.566509984110089E+003	4.1447541E-001	-2.7039447E+002
3	0	1.567009984097458E+003	4.1375896E-001	-2.7038031E+002
3	0	1.567509984084827E+003	4.1350219E-001	-2.7037677E+002
3	0	1.568009984072196E+003	4.1317999E-001	-2.7040155E+002
3	0	1.568509984059565E+003	4.1271579E-001	-2.7039093E+002
3	0	1.569009984046934E+003	4.1236380E-001	-2.7038031E+002
3	0	1.569509984034303E+003	4.1211173E-001	-2.7038385E+002
3	0	1.570009984021672E+003	4.1181916E-001	-2.7036972E+002
3	0	1.570509984009041E+003	4.1152117E-001	-2.7038385E+002
3	0	1.571009983996410E+003	4.1167665E-001	-2.7037677E+002
3	0	1.571509983983779E+003	4.1224137E-001	-2.7036267E+002
3	0	1.572009983971147E+003	4.1263005E-001	-2.7038742E+002
3	0	1.572509983958516E+003	4.1275281E-001	-2.7038031E+002
3	0	1.573009983945885E+003	4.1285038E-001	-2.7038385E+002
3	0	1.573509983933254E+003	4.1284564E-001	-2.7036267E+002
3	0	1.574009983920623E+003	4.1265497E-001	-2.7036972E+002
3	0	1.574509983907992E+003	4.1226393E-001	-2.7038031E+002
3	0	1.575009983895361E+003	4.1226283E-001	-2.7035205E+002
3	0	1.575509983882730E+003	4.1249496E-001	-2.7038742E+002
3	0	1.576009983870099E+003	4.1247082E-001	-2.7038031E+002
3	0	1.576509983857468E+003	4.1222376E-001	-2.7041214E+002
3	0	1.577009983844837E+003	4.1194206E-001	-2.7038742E+002
3	0	1.577509983832206E+003	4.1158023E-001	-2.7037677E+002
3	0	1.578009983819575E+003	4.1102356E-001	-2.7035913E+002
3	0	1.578509983806944E+003	4.1028717E-001	-2.7037326E+002
3	0	1.579009983794313E+003	4.0986288E-001	-2.7037326E+002
3	0	1.579509983781682E+003	4.0976080E-001	-2.7040155E+002
3	0	1.580009983769050E+003	4.0947413E-001	-2.7039093E+002
3	0	1.580509983756419E+003	4.0896654E-001	-2.7038031E+002
3	0	1.581009983743788E+003	4.0846559E-001	-2.7036972E+002
3	0	1.581509983731157E+003	4.0784669E-001	-2.7036267E+002
3	0	1.582009983718526E+003	4.0709051E-001	-2.7037677E+002
3	0	1.582509983705895E+003	4.0625843E-001	-2.7038742E+002
3	0	1.583009983693264E+003	4.0578482E-001	-2.7037326E+002
3	0	1.583509983680633E+003	4.0559021E-001	-2.7036267E+002
3	0	1.584009983668002E+003	4.0518573E-001	-2.7037326E+002
3	0	1.584509983655371E+003	4.0465990E-001	-2.7038031E+002
3	0	1.585009983642740E+003	4.0412605E-001	-2.7038742E+002
3	0	1.585509983630109E+003	4.0358341E-001	-2.7038742E+002
3	0	1.586009983617478E+003	4.0279272E-001	-2.7037326E+002
3	0	1.586509983604847E+003	4.0192169E-001	-2.7037677E+002
3	0	1.587009983592216E+003	4.0140954E-001	-2.7038385E+002
3	0	1.587509983579585E+003	4.0117073E-001	-2.7036618E+002
3	0	1.588009983566953E+003	4.0084797E-001	-2.7034497E+002
3	0	1.588509983554322E+003	4.0048522E-001	-2.7037677E+002
3	0	1.589009983541691E+003	4.0020850E-001	-2.7036972E+002
3	0	1.589509983529060E+003	3.9998248E-001	-2.7035913E+002
3	0	1.590009983516429E+003	3.9972025E-001	-2.7039447E+002
3	0	1.590509983503798E+003	3.9946032E-001	-2.7038031E+002
3	0	1.591009983491167E+003	3.9962125E-001	-2.7038742E+002
3	0	1.591509983478536E+003	4.0008274E-001	-2.7037677E+002
3	0	1.592009983465905E+003	4.0040576E-001	-2.7038742E+002
3	0	1.592509983453274E+003	4.0056705E-001	-2.7038031E+002
3	0	1.593009983440643E+003	4.0064296E-001	-2.7037326E+002
3	0	1.593509983428012E+003	4.0067035E-001	-2.7038031E+002
3	0	1.594009983415381E+003	4.0045711E-001	-2.7036267E+002
3	0	1.594509983402750E+003	4.0012357E-001	-2.7039093E+002
3	0	1.595009983390119E+003	4.0006286E-001	-2.7035913E+002
3	0	1.595509983377488E+003	4.0023223E-001	-2.7038031E+002
3	0	1.596009983364856E+003	4.0025407E-001	-2.7038742E+002
3	0	1.596509983352225E+003	4.0010047E-001	-2.7038742E+002
3	0	1.597009983339594E+003	3.9991498E-001	-2.7038031E+002
3	0	1.597509983326963E+003	3.9960784E-001	-2.7039093E+002
3	0	1.598009983314332E+003	3.9911449E-001	-2.7038742E+002
3	0	1.598509983301701E+003	3.9855248E-001	-2.7041568E+002
3	0	1.599009983289070E+003	3.9830211E-001	-2.7038742E+002
3	0	1.599509983276439E+003	3.9824712E-001	-2.7037326E+002
3	0	1.600009983263808E+003	3.9805090E-001	-2.7037326E+002
3	0	1.600509983251177E+003	3.9767909E-001	-2.7035559E+002
3	0	1.601009983238546E+003	3.9726865E-001	-2.7035913E+002
3	0	1.601509983225915E+003	3.9680082E-001	-2.7038385E+002
3	0	1.602009983213284E+003	3.9621386E-001	-2.7039801E+002
3	0	1.602509983200653E+003	3.9550561E-001	-2.7036267E+002
3	0	1.603009983188022E+003	3.9511520E-001	-2.7036267E+002
3	0	1.603509983175391E+003	3.9491788E-001	-2.7037677E+002
3	0	1.604009983162759E+003	3.9458802E-001	-2.7036267E+002
3	0	1.604509983150128E+003	3.9419439E-001	-2.7037677E+002
3	0	1.605009983137497E+003	3.9378929E-001	-2.7037326E+002
3	0	1.605509983124866E+003	3.9335221E-001	-2.7039093E+002
3	0	1.606009983112235E+003	3.9281538E-001	-2.7039093E+002
3	0	1.606509983099604E+003	3.9217970E-001	-2.7036267E+002
3	0	1.607009983086973E+003	3.9181814E-001	-2.7037677E+002
3	0	1.607509983074342E+003	3.9163563E-001	-2.7038742E+002
3	0	1.608009983061711E+003	3.9128426E-001	-2.7037677E+002
3	0	1.608509983049080E+003	3.9095050E-001	-2.7038385E+002
3	0	1.609009983036449E+003	3.9070779E-001	-2.7037326E+002
3	0	1.609509983023818E+003	3.9052874E-001	-2.7036972E+002
3	0	1.610009983011187E+003	3.9031070E-001	-2.7036618E+002
3	0	1.610509982998556E+003	3.9013788E-001	-2.7037677E+002
3	0	1.611009982985925E+003	3.9030460E-001	-2.7038031E+002
3	0	1.611509982973294E+003	3.9069322E-001	-2.7037326E+002
3	0	1.612009982960662E+003	3.9089924E-001	-2.7039801E+002
3	0	1.612509982948031E+003	3.9106506E-001	-2.7039093E+002
3	0	1.613009982935400E+003	3.9117184E-001	-2.7037677E+002
3	0	1.613509982922769E+003	3.9118451E-001	-2.7038031E+002
3	0	1.614009982910138E+003	3.9104313E-001	-2.7038031E+002
3	0	1.614509982897507E+003	3.9075008E-001	-2.7040506E+002
3	0	1.615009982884876E+003	3.9069679E-001	-2.7037677E+002
3	0	1.615509982872245E+003	3.9078474E-001	-2.7036972E+002
3	0	1.616009982859614E+003	3.9066941E-001	-2.7036267E+002
3	0	1.616509982846983E+003	3.9050704E-001	-2.7040155E+002
3	0	1.617009982834352E+003	3.9030173E-001	-2.7041214E+002
3	0	1.617509982821721E+003	3.9004573E-001	-2.7038031E+002
3	0	1.618009982809090E+003	3.8967860E-001	-2.7036972E+002
3	0	1.618509982796459E+003	3.8919365E-001	-2.7039447E+002
3	0	1.619009982783828E+003	3.8891095E-001	-2.7038031E+002
3	0	1.619509982771197E+003	3.8884407E-001	-2.7039093E+002
3	0	1.620009982758565E+003	3.8858649E-001	-2.7040506E+002
3	0	1.620509982745934E+003	3.8830051E-001	-2.7037326E+002
3	0	1.621009982733303E+003	3.8798246E-001	-2.7037326E+002
3	0	1.621509982720672E+003	3.8762590E-001	-2.7037326E+002
3	0	1.622009982708041E+003	3.8711700E-001	-2.7036267E+002
3	0	1.622509982695410E+003	3.8653278E-001	-2.7037677E+002
3	0	1.623009982682779E+003	3.8618314E-001	-2.7036972E+002
3	0	1.623509982670148E+003	3.8602501E-001	-2.7037677E+002
3	0	1.624009982657517E+003	3.8569438E-001	-2.7038031E+002
3	0	1.624509982644886E+003	3.8535640E-001	-2.7037677E+002
3	0	1.625009982632255E+003	3.8500649E-001	-2.7040506E+002
3	0	1.625509982619624E+003	3.8464186E-001	-2.7037326E+002
3	0	1.626009982606993E+003	3.8416350E-001	-2.7037677E+002
3	0	1.626509982594362E+003	3.8358316E-001	-2.7036267E+002
3	0	1.627009982581731E+003	3.8321748E-001	-2.7038742E+002
3	0	1.627509982569100E+003	3.8303119E-001	-2.7038031E+002
3	0	1.628009982556468E+003	3.8273397E-001	-2.7038385E+002
3	0	1.628509982543837E+003	3.8244125E-001	-2.7038742E+002
3	0	1.629009982531206E+003	3.8219994E-001	-2.7037677E+002
3	0	1.629509982518575E+003	3.8204384E-001	-2.7036972E+002
3	0	1.630009982505944E+003	3.8188055E-001	-2.7035205E+002
3	0	1.630509982493313E+003	3.8170868E-001	-2.7036972E+002
3	0	1.630510382493303E+003	3.8158616E-001	-2.7038031E+002