EC-Lab ASCII FILE
Nb header lines : 55                          

Open Circuit Voltage

Run on channel : 1 (SN 81504)
User : 
CE vs. WE compliance from -10 V to 10 V
Electrode connection : standard
Potential control : Ewe
Ewe ctrl range : min = -2.50 V, max = 2.50 V
Safety Limits :
	Do not start on E overload
Acquisition started on : 05/10/2026 07:17:37.794
Loaded Setting File :  C:\PEM-WE_measurements\2026\372_IV_IV IrOx, 5 min Pt, 30 min C, etched cathode\new station\Loopeis new\1,46 V different time gaps closed cell\Loopeis 1,46V_120s_5_PEIS from 65Hz to 10Hz.mps
Saved on :
	File : L_25_Loopeis 1,46V_120s_5_PEIS from 65Hz to 10Hz_08_OCV_C01.mpr
	Directory : C:\PEM-WE_measurements\2026\372_IV_IV IrOx, 5 min Pt, 30 min C, etched cathode\new station\Loopeis new\1,46 V different time gaps closed cell\
	Host : 192.168.0.2
Device : SP-150e (SN .005491)
Address : 192.168.0.91
EC-LAB for windows v11.71 (software)
Internet server v28.00 (firmware)
Command interpretor v14.01 (firmware)
Electrode material : 
Initial state : 
Electrolyte : 
Comments : 
Current amplifier : SP-150eB-20A
Electrode surface area : 0.001 cm²
Characteristic mass : 0.001 g
Equivalent Weight : 0.000 g/eq.
Density : 0.000 g/cm3
Volume (V) : 0.001 cm³
Record Analogic IN 1
Text export
   Mode : Standard
   Time format : Elapsed
Cycle Definition : Charge/Discharge alternance
External device configuration :
   device type : Temperature Probe
   device name : Other
   Analog IN 1 : 
      unit : T/Â°C
      max : 100.000 at 2.000 V
      min : 0.000 at 1.460 V
tR (h:m:s)          0:02:0.0000         
dER/dt (mV/h)       1.0                 
record              <Ewe>               
dER (mV)            10.00               
dtR (s)             0.5000              
E range min (V)     -2.500              
E range max (V)     2.500               

mode	error	time/s	<Ewe/V>	Analog IN 1/V	
3	0	6.826993996497913E+002	1.2909216E+000	-2.7037326E+002
3	0	6.831993996371602E+002	1.2979293E+000	-2.7040155E+002
3	0	6.836993996245292E+002	1.2970692E+000	-2.7038742E+002
3	0	6.841993996118981E+002	1.2933862E+000	-2.7038031E+002
3	0	6.846993995992671E+002	1.2859380E+000	-2.7037677E+002
3	0	6.851993995866360E+002	1.2732642E+000	-2.7038742E+002
3	0	6.856993995740049E+002	1.2532872E+000	-2.7037677E+002
3	0	6.861993995613739E+002	1.2227498E+000	-2.7039801E+002
3	0	6.866993995487428E+002	1.1746821E+000	-2.7038742E+002
3	0	6.871993995361117E+002	1.0866579E+000	-2.7037326E+002
3	0	6.876993995234807E+002	8.5789222E-001	-2.7037677E+002
3	0	6.881993995108496E+002	5.9592116E-001	-2.7036267E+002
3	0	6.886993994982186E+002	5.1293290E-001	-2.7039801E+002
3	0	6.891993994855875E+002	4.8293167E-001	-2.7038031E+002
3	0	6.896993994729564E+002	4.7220516E-001	-2.7038385E+002
3	0	6.901993994603254E+002	4.6744630E-001	-2.7037326E+002
3	0	6.906993994476943E+002	4.6432385E-001	-2.7036972E+002
3	0	6.911993994350632E+002	4.6278444E-001	-2.7038742E+002
3	0	6.916993994224322E+002	4.6281794E-001	-2.7036618E+002
3	0	6.921993994098011E+002	4.6272239E-001	-2.7037677E+002
3	0	6.926993993971701E+002	4.6250710E-001	-2.7038385E+002
3	0	6.931993993845390E+002	4.6244866E-001	-2.7036618E+002
3	0	6.936993993719079E+002	4.6239626E-001	-2.7038385E+002
3	0	6.941993993592769E+002	4.6220553E-001	-2.7037677E+002
3	0	6.946993993466458E+002	4.6180734E-001	-2.7036267E+002
3	0	6.951993993340147E+002	4.6198323E-001	-2.7038385E+002
3	0	6.956993993213837E+002	4.6317816E-001	-2.7035559E+002
3	0	6.961993993087526E+002	4.6407023E-001	-2.7039801E+002
3	0	6.966993992961216E+002	4.6465334E-001	-2.7038031E+002
3	0	6.971993992834905E+002	4.6513245E-001	-2.7037326E+002
3	0	6.976993992708594E+002	4.6562684E-001	-2.7038031E+002
3	0	6.981993992582284E+002	4.6566388E-001	-2.7039093E+002
3	0	6.986993992455973E+002	4.6531379E-001	-2.7038385E+002
3	0	6.991993992329662E+002	4.6560910E-001	-2.7038742E+002
3	0	6.996993992203352E+002	4.6688250E-001	-2.7038031E+002
3	0	7.001993992077041E+002	4.6772379E-001	-2.7036972E+002
3	0	7.006993991950731E+002	4.6812162E-001	-2.7038031E+002
3	0	7.011993991824420E+002	4.6850324E-001	-2.7037326E+002
3	0	7.016993991698109E+002	4.6885797E-001	-2.7038031E+002
3	0	7.021993991571799E+002	4.6879426E-001	-2.7035559E+002
3	0	7.026993991445488E+002	4.6839347E-001	-2.7037326E+002
3	0	7.031993991319177E+002	4.6880582E-001	-2.7036972E+002
3	0	7.036993991192867E+002	4.7045970E-001	-2.7036972E+002
3	0	7.041993991066556E+002	4.7208792E-001	-2.7035559E+002
3	0	7.046993990940246E+002	4.7365570E-001	-2.7037326E+002
3	0	7.051993990813935E+002	4.7536966E-001	-2.7036618E+002
3	0	7.056993990687624E+002	4.7719666E-001	-2.7038385E+002
3	0	7.061993990561314E+002	4.7904211E-001	-2.7036972E+002
3	0	7.066993990435003E+002	4.8058128E-001	-2.7036618E+002
3	0	7.071993990308692E+002	4.8280174E-001	-2.7036972E+002
3	0	7.076993990182382E+002	4.8595262E-001	-2.7038031E+002
3	0	7.081993990056071E+002	4.8885265E-001	-2.7038742E+002
3	0	7.086993989929761E+002	4.9119285E-001	-2.7038742E+002
3	0	7.091993989803450E+002	4.9336818E-001	-2.7036972E+002
3	0	7.096993989677139E+002	4.9548790E-001	-2.7038385E+002
3	0	7.101993989550829E+002	4.9702853E-001	-2.7037326E+002
3	0	7.106993989424518E+002	4.9799562E-001	-2.7035559E+002
3	0	7.111993989298207E+002	4.9961418E-001	-2.7039447E+002
3	0	7.116993989171897E+002	5.0211024E-001	-2.7035913E+002
3	0	7.121993989045586E+002	5.0416052E-001	-2.7038031E+002
3	0	7.126993988919276E+002	5.0572360E-001	-2.7038385E+002
3	0	7.131993988792965E+002	5.0716388E-001	-2.7037326E+002
3	0	7.136993988666654E+002	5.0833213E-001	-2.7037326E+002
3	0	7.141993988540344E+002	5.0895518E-001	-2.7036618E+002
3	0	7.146993988414033E+002	5.0900984E-001	-2.7036267E+002
3	0	7.151993988287722E+002	5.0959277E-001	-2.7038742E+002
3	0	7.156993988161412E+002	5.1105809E-001	-2.7036972E+002
3	0	7.161993988035101E+002	5.1206696E-001	-2.7038742E+002
3	0	7.166993987908791E+002	5.1244855E-001	-2.7038742E+002
3	0	7.171993987782480E+002	5.1258093E-001	-2.7037677E+002
3	0	7.176993987656169E+002	5.1269186E-001	-2.7038385E+002
3	0	7.181993987529859E+002	5.1211601E-001	-2.7036267E+002
3	0	7.186993987403548E+002	5.1106262E-001	-2.7036267E+002
3	0	7.191993987277237E+002	5.1056290E-001	-2.7037326E+002
3	0	7.196993987150927E+002	5.1102471E-001	-2.7035559E+002
3	0	7.201993987024616E+002	5.1117039E-001	-2.7037677E+002
3	0	7.206993986898306E+002	5.1086545E-001	-2.7036618E+002
3	0	7.211993986771995E+002	5.1032591E-001	-2.7040155E+002
3	0	7.216993986645684E+002	5.0958890E-001	-2.7036972E+002
3	0	7.221993986519374E+002	5.0825149E-001	-2.7038385E+002
3	0	7.226993986393063E+002	5.0650734E-001	-2.7039801E+002
3	0	7.231993986266752E+002	5.0544393E-001	-2.7038742E+002
3	0	7.236993986140442E+002	5.0564325E-001	-2.7039801E+002
3	0	7.241993986014131E+002	5.0596505E-001	-2.7036618E+002
3	0	7.246993985887821E+002	5.0618118E-001	-2.7038742E+002
3	0	7.251993985761510E+002	5.0677443E-001	-2.7038742E+002
3	0	7.256993985635199E+002	5.0768471E-001	-2.7036972E+002
3	0	7.261993985508889E+002	5.0829244E-001	-2.7038385E+002
3	0	7.266993985382578E+002	5.0854677E-001	-2.7037326E+002
3	0	7.271993985256267E+002	5.0939423E-001	-2.7039447E+002
3	0	7.276993985129957E+002	5.1125413E-001	-2.7036267E+002
3	0	7.281993985003646E+002	5.1281083E-001	-2.7038385E+002
3	0	7.286993984877336E+002	5.1377505E-001	-2.7035913E+002
3	0	7.291993984751025E+002	5.1453078E-001	-2.7037677E+002
3	0	7.296993984624714E+002	5.1508057E-001	-2.7038031E+002
3	0	7.301993984498404E+002	5.1518077E-001	-2.7036618E+002
3	0	7.306993984372093E+002	5.1472664E-001	-2.7036972E+002
3	0	7.311993984245782E+002	5.1464474E-001	-2.7037326E+002
3	0	7.316993984119472E+002	5.1542896E-001	-2.7035913E+002
3	0	7.321993983993161E+002	5.1595300E-001	-2.7037677E+002
3	0	7.326993983866851E+002	5.1595223E-001	-2.7038385E+002
3	0	7.331993983740540E+002	5.1548660E-001	-2.7036267E+002
3	0	7.336993983614229E+002	5.1487088E-001	-2.7039093E+002
3	0	7.341993983487919E+002	5.1363325E-001	-2.7038742E+002
3	0	7.346993983361608E+002	5.1188505E-001	-2.7039093E+002
3	0	7.351993983235297E+002	5.1065415E-001	-2.7037677E+002
3	0	7.356993983108987E+002	5.1033932E-001	-2.7038031E+002
3	0	7.361993982982676E+002	5.0974238E-001	-2.7036972E+002
3	0	7.366993982856366E+002	5.0861531E-001	-2.7038742E+002
3	0	7.371993982730055E+002	5.0738966E-001	-2.7037326E+002
3	0	7.376993982603744E+002	5.0611198E-001	-2.7037326E+002
3	0	7.381993982477434E+002	5.0434518E-001	-2.7037326E+002
3	0	7.386993982351123E+002	5.0180030E-001	-2.7038031E+002
3	0	7.391993982224813E+002	4.9991322E-001	-2.7038031E+002
3	0	7.396993982098502E+002	4.9900627E-001	-2.7039093E+002
3	0	7.401993981972191E+002	4.9786434E-001	-2.7035913E+002
3	0	7.406993981845881E+002	4.9623162E-001	-2.7037326E+002
3	0	7.411993981719570E+002	4.9445504E-001	-2.7035559E+002
3	0	7.416993981593259E+002	4.9263605E-001	-2.7039801E+002
3	0	7.421993981466949E+002	4.9035972E-001	-2.7038742E+002
3	0	7.426993981340638E+002	4.8768607E-001	-2.7038385E+002
3	0	7.431993981214328E+002	4.8567328E-001	-2.7038385E+002
3	0	7.436993981088017E+002	4.8490891E-001	-2.7036972E+002
3	0	7.441993980961706E+002	4.8426238E-001	-2.7036267E+002
3	0	7.446993980835396E+002	4.8350930E-001	-2.7038385E+002
3	0	7.451993980709085E+002	4.8297313E-001	-2.7037326E+002
3	0	7.456993980582774E+002	4.8277566E-001	-2.7037677E+002
3	0	7.461993980456464E+002	4.8241827E-001	-2.7037677E+002
3	0	7.466993980330153E+002	4.8184201E-001	-2.7037326E+002
3	0	7.471993980203843E+002	4.8184100E-001	-2.7038385E+002
3	0	7.476993980077532E+002	4.8276100E-001	-2.7036972E+002
3	0	7.481993979951221E+002	4.8342159E-001	-2.7039447E+002
3	0	7.486993979824911E+002	4.8372072E-001	-2.7038031E+002
3	0	7.491993979698600E+002	4.8389655E-001	-2.7036267E+002
3	0	7.496993979572289E+002	4.8384127E-001	-2.7036972E+002
3	0	7.501993979445979E+002	4.8322862E-001	-2.7036972E+002
3	0	7.506993979319668E+002	4.8216462E-001	-2.7038742E+002
3	0	7.511993979193358E+002	4.8154357E-001	-2.7038385E+002
3	0	7.516993979067047E+002	4.8171946E-001	-2.7038031E+002
3	0	7.521993978940736E+002	4.8164767E-001	-2.7035205E+002
3	0	7.526993978814426E+002	4.8102933E-001	-2.7035559E+002
3	0	7.531993978688115E+002	4.8022750E-001	-2.7036972E+002
3	0	7.536993978561804E+002	4.7924060E-001	-2.7035913E+002
3	0	7.541993978435494E+002	4.7784293E-001	-2.7037677E+002
3	0	7.546993978309183E+002	4.7592795E-001	-2.7037326E+002
3	0	7.551993978182873E+002	4.7441921E-001	-2.7039093E+002
3	0	7.556993978056562E+002	4.7370335E-001	-2.7038385E+002
3	0	7.561993977930251E+002	4.7273019E-001	-2.7036972E+002
3	0	7.566993977803941E+002	4.7135404E-001	-2.7040506E+002
3	0	7.571993977677630E+002	4.6987697E-001	-2.7036618E+002
3	0	7.576993977551319E+002	4.6812430E-001	-2.7039801E+002
3	0	7.581993977425009E+002	4.6594733E-001	-2.7037677E+002
3	0	7.586993977298698E+002	4.6360886E-001	-2.7038031E+002
3	0	7.591993977172388E+002	4.6162996E-001	-2.7039801E+002
3	0	7.596993977046077E+002	4.6050680E-001	-2.7036618E+002
3	0	7.601993976919766E+002	4.5923370E-001	-2.7036267E+002
3	0	7.606993976793456E+002	4.5763546E-001	-2.7036267E+002
3	0	7.611993976667145E+002	4.5592150E-001	-2.7036618E+002
3	0	7.616993976540834E+002	4.5418817E-001	-2.7038742E+002
3	0	7.621993976414524E+002	4.5214581E-001	-2.7037326E+002
3	0	7.626993976288213E+002	4.4986385E-001	-2.7037326E+002
3	0	7.631993976161903E+002	4.4804215E-001	-2.7038742E+002
3	0	7.636993976035592E+002	4.4722772E-001	-2.7038742E+002
3	0	7.641993975909281E+002	4.4649822E-001	-2.7036972E+002
3	0	7.646993975782971E+002	4.4584152E-001	-2.7036972E+002
3	0	7.651993975656660E+002	4.4531360E-001	-2.7037677E+002
3	0	7.656993975530349E+002	4.4494876E-001	-2.7038031E+002
3	0	7.661993975404039E+002	4.4459486E-001	-2.7036618E+002
3	0	7.666993975277728E+002	4.4411319E-001	-2.7038385E+002
3	0	7.671993975151418E+002	4.4394821E-001	-2.7036972E+002
3	0	7.676993975025107E+002	4.4447711E-001	-2.7039801E+002
3	0	7.681993974898796E+002	4.4484079E-001	-2.7038385E+002
3	0	7.686993974772486E+002	4.4476193E-001	-2.7036972E+002
3	0	7.691993974646175E+002	4.4456345E-001	-2.7038385E+002
3	0	7.696993974519864E+002	4.4413480E-001	-2.7038742E+002
3	0	7.701993974393554E+002	4.4329524E-001	-2.7039801E+002
3	0	7.706993974267243E+002	4.4220763E-001	-2.7039093E+002
3	0	7.711993974140933E+002	4.4149855E-001	-2.7037326E+002
3	0	7.716993974014622E+002	4.4138888E-001	-2.7039093E+002
3	0	7.721993973888311E+002	4.4105545E-001	-2.7038385E+002
3	0	7.726993973762001E+002	4.4041979E-001	-2.7039801E+002
3	0	7.731993973635690E+002	4.3960309E-001	-2.7040155E+002
3	0	7.736993973509379E+002	4.3870696E-001	-2.7038031E+002
3	0	7.741993973383069E+002	4.3759090E-001	-2.7036972E+002
3	0	7.746993973256758E+002	4.3610129E-001	-2.7036618E+002
3	0	7.751993973130448E+002	4.3496925E-001	-2.7036618E+002
3	0	7.756993973004137E+002	4.3446031E-001	-2.7037677E+002
3	0	7.761993972877826E+002	4.3377468E-001	-2.7040506E+002
3	0	7.766993972751516E+002	4.3279603E-001	-2.7034497E+002
3	0	7.771993972625205E+002	4.3173000E-001	-2.7036972E+002
3	0	7.776993972498894E+002	4.3059236E-001	-2.7037677E+002
3	0	7.781993972372584E+002	4.2924035E-001	-2.7039447E+002
3	0	7.786993972246273E+002	4.2766443E-001	-2.7038385E+002
3	0	7.791993972119963E+002	4.2647341E-001	-2.7037326E+002
3	0	7.796993971993652E+002	4.2592525E-001	-2.7040860E+002
3	0	7.801993971867341E+002	4.2529669E-001	-2.7034497E+002
3	0	7.806993971741031E+002	4.2439505E-001	-2.7039447E+002
3	0	7.811993971614720E+002	4.2345056E-001	-2.7040860E+002
3	0	7.816993971488409E+002	4.2246330E-001	-2.7036267E+002
3	0	7.821993971362099E+002	4.2121154E-001	-2.7037677E+002
3	0	7.826993971235788E+002	4.1983473E-001	-2.7038742E+002
3	0	7.831993971109478E+002	4.1895187E-001	-2.7037326E+002
3	0	7.836993970983167E+002	4.1872934E-001	-2.7036267E+002
3	0	7.841993970856856E+002	4.1852781E-001	-2.7038031E+002
3	0	7.846993970730546E+002	4.1822633E-001	-2.7038031E+002
3	0	7.851993970604235E+002	4.1804299E-001	-2.7038031E+002
3	0	7.856993970477924E+002	4.1797772E-001	-2.7037677E+002
3	0	7.861993970351614E+002	4.1779548E-001	-2.7036618E+002
3	0	7.866993970225303E+002	4.1743538E-001	-2.7035913E+002
3	0	7.871993970098993E+002	4.1736639E-001	-2.7036618E+002
3	0	7.876993969972682E+002	4.1780862E-001	-2.7036267E+002
3	0	7.881993969846371E+002	4.1808742E-001	-2.7039093E+002
3	0	7.886993969720061E+002	4.1806698E-001	-2.7036267E+002
3	0	7.891993969593750E+002	4.1792160E-001	-2.7039801E+002
3	0	7.896993969467439E+002	4.1779593E-001	-2.7036972E+002
3	0	7.901993969341129E+002	4.1734353E-001	-2.7039093E+002
3	0	7.906993969214818E+002	4.1672942E-001	-2.7037326E+002
3	0	7.911993969088508E+002	4.1633010E-001	-2.7036618E+002
3	0	7.916993968962197E+002	4.1636848E-001	-2.7038385E+002
3	0	7.921993968835886E+002	4.1625631E-001	-2.7038385E+002
3	0	7.926993968709576E+002	4.1592145E-001	-2.7036618E+002
3	0	7.931993968583265E+002	4.1548747E-001	-2.7039801E+002
3	0	7.936993968456954E+002	4.1498503E-001	-2.7035913E+002
3	0	7.941993968330644E+002	4.1427287E-001	-2.7039093E+002
3	0	7.946993968204333E+002	4.1337556E-001	-2.7037677E+002
3	0	7.951993968078023E+002	4.1274020E-001	-2.7039093E+002
3	0	7.956993967951712E+002	4.1255271E-001	-2.7040506E+002
3	0	7.961993967825401E+002	4.1225129E-001	-2.7041214E+002
3	0	7.966993967699091E+002	4.1174227E-001	-2.7038385E+002
3	0	7.971993967572780E+002	4.1112077E-001	-2.7036972E+002
3	0	7.976993967446469E+002	4.1050482E-001	-2.7035913E+002
3	0	7.981993967320159E+002	4.0969792E-001	-2.7038385E+002
3	0	7.986993967193848E+002	4.0873227E-001	-2.7039801E+002
3	0	7.991993967067538E+002	4.0800267E-001	-2.7040860E+002
3	0	7.996993966941227E+002	4.0775642E-001	-2.7038385E+002
3	0	8.001993966814916E+002	4.0744254E-001	-2.7039447E+002
3	0	8.006993966688606E+002	4.0689942E-001	-2.7038031E+002
3	0	8.011993966562295E+002	4.0633097E-001	-2.7038385E+002
3	0	8.016993966435984E+002	4.0578783E-001	-2.7039093E+002
3	0	8.021993966309674E+002	4.0506512E-001	-2.7038031E+002
3	0	8.022227966303763E+002	4.0463364E-001	-2.7038031E+002