EC-Lab ASCII FILE
Nb header lines : 48                          

Open Circuit Voltage

Run on channel : 1 (SN 81504)
User : 
CE vs. WE compliance from -10 V to 10 V
Electrode connection : standard
Potential control : Ewe
Ewe ctrl range : min = -2.50 V, max = 2.50 V
Safety Limits :
	Do not start on E overload
Acquisition started on : 05/10/2026 08:28:58.550
Loaded Setting File :  C:\PEM-WE_measurements\2026\372_IV_IV IrOx, 5 min Pt, 30 min C, etched cathode\new station\Loopeis new\1,46 V different time gaps closed cell\Loopeis 1,46V_180s_2_PEIS from 65kHz to 10kHz.mps
Saved on :
	File : L_27_Loopeis 1,46V_180s_2_PEIS from 65kHz to 10kHz_16_OCV_C01.mpr
	Directory : C:\PEM-WE_measurements\2026\372_IV_IV IrOx, 5 min Pt, 30 min C, etched cathode\new station\Loopeis new\1,46 V different time gaps closed cell\
	Host : 192.168.0.2
Device : SP-150e (SN .005491)
Address : 192.168.0.91
EC-LAB for windows v11.71 (software)
Internet server v28.00 (firmware)
Command interpretor v14.01 (firmware)
Electrode material : 
Initial state : 
Electrolyte : 
Comments : 
Current amplifier : SP-150eB-20A
Electrode surface area : 0.001 cm²
Characteristic mass : 0.001 g
Equivalent Weight : 0.000 g/eq.
Density : 0.000 g/cm3
Volume (V) : 0.001 cm³
Record Analogic IN 1
Text export
   Mode : Standard
   Time format : Elapsed
Cycle Definition : Charge/Discharge alternance
tR (h:m:s)          0:03:0.0000         
dER/dt (mV/h)       1.0                 
record              <Ewe>               
dER (mV)            10.00               
dtR (s)             0.5000              
E range min (V)     -2.500              
E range max (V)     2.500               

mode	error	time/s	<Ewe/V>	Analog IN 1/V	
3	0	1.622195348804438E+003	1.1054459E+000	-1.4881945E-004
3	0	1.622695348791807E+003	1.2558436E+000	-3.4306191E-005
3	0	1.623195348779176E+003	1.2460200E+000	3.8648941E-006
3	0	1.623695348766545E+003	1.2238208E+000	2.2950437E-005
3	0	1.624195348753914E+003	1.1837778E+000	-9.1562819E-005
3	0	1.624695348741283E+003	1.1100069E+000	3.8648941E-006
3	0	1.625195348728652E+003	8.6683148E-001	-5.3391734E-005
3	0	1.625695348716021E+003	4.8062474E-001	6.1121522E-005
3	0	1.626195348703390E+003	3.5829967E-001	-1.4881945E-004
3	0	1.626695348690759E+003	3.3607000E-001	-3.4306191E-005
3	0	1.627195348678128E+003	3.3366966E-001	-2.0607607E-004
3	0	1.627695348665497E+003	3.3483231E-001	-9.1562819E-005
3	0	1.628195348652866E+003	3.3638817E-001	3.8648941E-006
3	0	1.628695348640234E+003	3.3751723E-001	-5.3391734E-005
3	0	1.629195348627603E+003	3.3818665E-001	-9.1562819E-005
3	0	1.629695348614972E+003	3.3873704E-001	-1.2973390E-004
3	0	1.630195348602341E+003	3.3936933E-001	-1.5220648E-005
3	0	1.630695348589710E+003	3.3976868E-001	-9.1562819E-005
3	0	1.631195348577079E+003	3.4002054E-001	-9.1562819E-005
3	0	1.631695348564448E+003	3.4024146E-001	-5.3391734E-005
3	0	1.632195348551817E+003	3.4046790E-001	-3.4306191E-005
3	0	1.632695348539186E+003	3.4056640E-001	-9.1562819E-005
3	0	1.633195348526555E+003	3.4063986E-001	-5.3391734E-005
3	0	1.633695348513924E+003	3.4082755E-001	6.1121522E-005
3	0	1.634195348501293E+003	3.4129974E-001	-2.0607607E-004
3	0	1.634695348488662E+003	3.4169337E-001	-9.1562819E-005
3	0	1.635195348476031E+003	3.4203362E-001	4.2035979E-005
3	0	1.635695348463400E+003	3.4240100E-001	-1.5220648E-005
3	0	1.636195348450769E+003	3.4279823E-001	-1.6790499E-004
3	0	1.636695348438137E+003	3.4316629E-001	-1.5220648E-005
3	0	1.637195348425506E+003	3.4348506E-001	9.9292607E-005
3	0	1.637695348412875E+003	3.4395501E-001	1.7563478E-004
3	0	1.638195348400244E+003	3.4467882E-001	4.2035979E-005
3	0	1.638695348387613E+003	3.4525448E-001	-7.2477276E-005
3	0	1.639195348374982E+003	3.4571722E-001	-9.1562819E-005
3	0	1.639695348362351E+003	3.4610286E-001	-1.1064836E-004
3	0	1.640195348349720E+003	3.4644178E-001	4.2035979E-005
3	0	1.640695348337089E+003	3.4668308E-001	-9.1562819E-005
3	0	1.641195348324458E+003	3.4679574E-001	-1.6790499E-004
3	0	1.641695348311827E+003	3.4698683E-001	-1.2973390E-004
3	0	1.642195348299196E+003	3.4743285E-001	3.8648941E-006
3	0	1.642695348286565E+003	3.4774733E-001	-9.1562819E-005
3	0	1.643195348273934E+003	3.4793931E-001	-3.4306191E-005
3	0	1.643695348261303E+003	3.4807235E-001	4.2035979E-005
3	0	1.644195348248672E+003	3.4823656E-001	3.8648941E-006
3	0	1.644695348236040E+003	3.4825912E-001	-7.2477276E-005
3	0	1.645195348223409E+003	3.4822190E-001	3.8648941E-006
3	0	1.645695348210778E+003	3.4828785E-001	-1.5220648E-005
3	0	1.646195348198147E+003	3.4861696E-001	-7.2477276E-005
3	0	1.646695348185516E+003	3.4883133E-001	-1.4881945E-004
3	0	1.647195348172885E+003	3.4895200E-001	-1.5220648E-005
3	0	1.647695348160254E+003	3.4902424E-001	-1.6790499E-004
3	0	1.648195348147623E+003	3.4908143E-001	-1.1064836E-004
3	0	1.648695348134992E+003	3.4906837E-001	-9.1562819E-005
3	0	1.649195348122361E+003	3.4895912E-001	-3.4306191E-005
3	0	1.649695348109730E+003	3.4896159E-001	3.8648941E-006
3	0	1.650195348097099E+003	3.4920761E-001	-5.3391734E-005
3	0	1.650695348084468E+003	3.4938267E-001	3.8648941E-006
3	0	1.651195348071837E+003	3.4944418E-001	-1.4881945E-004
3	0	1.651695348059206E+003	3.4947515E-001	3.8648941E-006
3	0	1.652195348046575E+003	3.4947887E-001	-1.8699054E-004
3	0	1.652695348033943E+003	3.4938854E-001	-3.4306191E-005
3	0	1.653195348021312E+003	3.4919003E-001	-1.5220648E-005
3	0	1.653695348008681E+003	3.4911606E-001	-1.5220648E-005
3	0	1.654195347996050E+003	3.4931493E-001	-1.2973390E-004
3	0	1.654695347983419E+003	3.4943575E-001	-7.2477276E-005
3	0	1.655195347970788E+003	3.4950665E-001	-1.5220648E-005
3	0	1.655695347958157E+003	3.4962964E-001	-1.5220648E-005
3	0	1.656195347945526E+003	3.4979972E-001	3.8648941E-006
3	0	1.656695347932895E+003	3.4992206E-001	-5.3391734E-005
3	0	1.657195347920264E+003	3.5003054E-001	-3.4306191E-005
3	0	1.657695347907633E+003	3.5025218E-001	-1.5220648E-005
3	0	1.658195347895002E+003	3.5074848E-001	-1.2973390E-004
3	0	1.658695347882371E+003	3.5113496E-001	6.1121522E-005
3	0	1.659195347869740E+003	3.5139477E-001	-9.1562819E-005
3	0	1.659695347857109E+003	3.5158175E-001	8.0207064E-005
3	0	1.660195347844478E+003	3.5172990E-001	6.1121522E-005
3	0	1.660695347831846E+003	3.5173920E-001	3.8648941E-006
3	0	1.661195347819215E+003	3.5167587E-001	-7.2477276E-005
3	0	1.661695347806584E+003	3.5172582E-001	-1.5220648E-005
3	0	1.662195347793953E+003	3.5195902E-001	3.8648941E-006
3	0	1.662695347781322E+003	3.5205480E-001	-5.3391734E-005
3	0	1.663195347768691E+003	3.5206112E-001	-7.2477276E-005
3	0	1.663695347756060E+003	3.5203329E-001	4.2035979E-005
3	0	1.664195347743429E+003	3.5198194E-001	-7.2477276E-005
3	0	1.664695347730798E+003	3.5184208E-001	-5.3391734E-005
3	0	1.665195347718167E+003	3.5156494E-001	-9.1562819E-005
3	0	1.665695347705536E+003	3.5142091E-001	-9.1562819E-005
3	0	1.666195347692905E+003	3.5153019E-001	-7.2477276E-005
3	0	1.666695347680274E+003	3.5154435E-001	-5.3391734E-005
3	0	1.667195347667643E+003	3.5147825E-001	-5.3391734E-005
3	0	1.667695347655012E+003	3.5134891E-001	2.2950437E-005
3	0	1.668195347642381E+003	3.5122907E-001	-7.2477276E-005
3	0	1.668695347629749E+003	3.5102448E-001	-1.5220648E-005
3	0	1.669195347617118E+003	3.5076669E-001	-9.1562819E-005
3	0	1.669695347604487E+003	3.5057375E-001	-1.4881945E-004
3	0	1.670195347591856E+003	3.5063034E-001	-1.5220648E-005
3	0	1.670695347579225E+003	3.5060942E-001	-1.1064836E-004
3	0	1.671195347566594E+003	3.5048613E-001	4.2035979E-005
3	0	1.671695347553963E+003	3.5033554E-001	-1.5220648E-005
3	0	1.672195347541332E+003	3.5017550E-001	-1.5220648E-005
3	0	1.672695347528701E+003	3.4994096E-001	4.2035979E-005
3	0	1.673195347516070E+003	3.4960318E-001	-1.1064836E-004
3	0	1.673695347503439E+003	3.4939888E-001	-1.1064836E-004
3	0	1.674195347490808E+003	3.4941339E-001	3.8648941E-006
3	0	1.674695347478177E+003	3.4936574E-001	-5.3391734E-005
3	0	1.675195347465546E+003	3.4929267E-001	-1.4881945E-004
3	0	1.675695347452915E+003	3.4924194E-001	3.8648941E-006
3	0	1.676195347440284E+003	3.4926793E-001	8.0207064E-005
3	0	1.676695347427652E+003	3.4927028E-001	-5.3391734E-005
3	0	1.677195347415021E+003	3.4920177E-001	-1.1064836E-004
3	0	1.677695347402390E+003	3.4927326E-001	-3.4306191E-005
3	0	1.678195347389759E+003	3.4960806E-001	-5.3391734E-005
3	0	1.678695347377128E+003	3.4984711E-001	-2.2516162E-004
3	0	1.679195347364497E+003	3.4997076E-001	6.1121522E-005
3	0	1.679695347351866E+003	3.5003495E-001	-1.5220648E-005
3	0	1.680195347339235E+003	3.5005862E-001	-7.2477276E-005
3	0	1.680695347326604E+003	3.4995946E-001	3.8648941E-006
3	0	1.681195347313973E+003	3.4977973E-001	3.8648941E-006
3	0	1.681695347301342E+003	3.4964743E-001	-1.1064836E-004
3	0	1.682195347288711E+003	3.4974772E-001	-2.0607607E-004
3	0	1.682695347276080E+003	3.4976491E-001	-3.4306191E-005
3	0	1.683195347263449E+003	3.4969285E-001	1.1837815E-004
3	0	1.683695347250818E+003	3.4955287E-001	-9.1562819E-005
3	0	1.684195347238187E+003	3.4943095E-001	-5.3391734E-005
3	0	1.684695347225555E+003	3.4917209E-001	-7.2477276E-005
3	0	1.685195347212924E+003	3.4887692E-001	-5.3391734E-005
3	0	1.685695347200293E+003	3.4865075E-001	-7.2477276E-005
3	0	1.686195347187662E+003	3.4867287E-001	-1.1064836E-004
3	0	1.686695347175031E+003	3.4861925E-001	-1.4881945E-004
3	0	1.687195347162400E+003	3.4847832E-001	-7.2477276E-005
3	0	1.687695347149769E+003	3.4829351E-001	1.3746369E-004
3	0	1.688195347137138E+003	3.4807506E-001	-9.1562819E-005
3	0	1.688695347124507E+003	3.4781259E-001	-1.1064836E-004
3	0	1.689195347111876E+003	3.4744617E-001	-1.1064836E-004
3	0	1.689695347099245E+003	3.4716034E-001	-9.1562819E-005
3	0	1.690195347086614E+003	3.4711587E-001	-1.8699054E-004
3	0	1.690695347073983E+003	3.4700808E-001	-7.2477276E-005
3	0	1.691195347061352E+003	3.4682700E-001	-3.4306191E-005
3	0	1.691695347048721E+003	3.4659639E-001	-1.5220648E-005
3	0	1.692195347036090E+003	3.4640115E-001	-9.1562819E-005
3	0	1.692695347023458E+003	3.4612441E-001	2.2950437E-005
3	0	1.693195347010827E+003	3.4578314E-001	-1.5220648E-005
3	0	1.693695346998196E+003	3.4551007E-001	-1.1064836E-004
3	0	1.694195346985565E+003	3.4548488E-001	-5.3391734E-005
3	0	1.694695346972934E+003	3.4541377E-001	-9.1562819E-005
3	0	1.695195346960303E+003	3.4528810E-001	3.8648941E-006
3	0	1.695695346947672E+003	3.4518290E-001	3.8648941E-006
3	0	1.696195346935041E+003	3.4513202E-001	2.2950437E-005
3	0	1.696695346922410E+003	3.4506804E-001	-7.2477276E-005
3	0	1.697195346909779E+003	3.4496972E-001	-2.0607607E-004
3	0	1.697695346897148E+003	3.4499171E-001	6.1121522E-005
3	0	1.698195346884517E+003	3.4528908E-001	-9.1562819E-005
3	0	1.698695346871886E+003	3.4554711E-001	-1.2973390E-004
3	0	1.699195346859255E+003	3.4572995E-001	6.1121522E-005
3	0	1.699695346846624E+003	3.4584719E-001	-5.3391734E-005
3	0	1.700195346833993E+003	3.4589323E-001	3.8648941E-006
3	0	1.700695346821361E+003	3.4584096E-001	-7.2477276E-005
3	0	1.701195346808730E+003	3.4565851E-001	-5.3391734E-005
3	0	1.701695346796099E+003	3.4551510E-001	-1.5220648E-005
3	0	1.702195346783468E+003	3.4559178E-001	-1.5220648E-005
3	0	1.702695346770837E+003	3.4557000E-001	6.1121522E-005
3	0	1.703195346758206E+003	3.4546170E-001	-7.2477276E-005
3	0	1.703695346745575E+003	3.4528655E-001	-7.2477276E-005
3	0	1.704195346732944E+003	3.4510949E-001	-1.5220648E-005
3	0	1.704695346720313E+003	3.4485260E-001	9.9292607E-005
3	0	1.705195346707682E+003	3.4452340E-001	-1.1064836E-004
3	0	1.705695346695051E+003	3.4424564E-001	-5.3391734E-005
3	0	1.706195346682420E+003	3.4420469E-001	-1.2973390E-004
3	0	1.706695346669789E+003	3.4410924E-001	-7.2477276E-005
3	0	1.707195346657158E+003	3.4394318E-001	-3.4306191E-005
3	0	1.707695346644527E+003	3.4372994E-001	-1.1064836E-004
3	0	1.708195346631896E+003	3.4353402E-001	3.8648941E-006
3	0	1.708695346619264E+003	3.4323400E-001	-7.2477276E-005
3	0	1.709195346606633E+003	3.4283948E-001	-1.2973390E-004
3	0	1.709695346594002E+003	3.4252489E-001	-9.1562819E-005
3	0	1.710195346581371E+003	3.4245965E-001	3.8648941E-006
3	0	1.710695346568740E+003	3.4234750E-001	6.1121522E-005
3	0	1.711195346556109E+003	3.4216651E-001	-5.3391734E-005
3	0	1.711695346543478E+003	3.4193426E-001	-7.2477276E-005
3	0	1.712195346530847E+003	3.4172896E-001	-7.2477276E-005
3	0	1.712695346518216E+003	3.4141749E-001	-9.1562819E-005
3	0	1.713195346505585E+003	3.4103882E-001	2.2950437E-005
3	0	1.713695346492954E+003	3.4081197E-001	-7.2477276E-005
3	0	1.714195346480323E+003	3.4092483E-001	-2.0607607E-004
3	0	1.714695346467692E+003	3.4100643E-001	3.8648941E-006
3	0	1.715195346455061E+003	3.4101382E-001	-3.4306191E-005
3	0	1.715695346442430E+003	3.4083572E-001	-1.5220648E-005
3	0	1.716195346429799E+003	3.4062901E-001	-1.6790499E-004
3	0	1.716695346417167E+003	3.4043500E-001	-1.2973390E-004
3	0	1.717195346404536E+003	3.4025326E-001	-5.3391734E-005
3	0	1.717695346391905E+003	3.4019044E-001	-1.4881945E-004
3	0	1.718195346379274E+003	3.4041259E-001	-1.4881945E-004
3	0	1.718695346366643E+003	3.4060353E-001	3.8648941E-006
3	0	1.719195346354012E+003	3.4071276E-001	-1.2973390E-004
3	0	1.719695346341381E+003	3.4074208E-001	-1.1064836E-004
3	0	1.720195346328750E+003	3.4073800E-001	-5.3391734E-005
3	0	1.720695346316119E+003	3.4060106E-001	-5.3391734E-005
3	0	1.721195346303488E+003	3.4037167E-001	-3.4306191E-005
3	0	1.721695346290857E+003	3.4020013E-001	8.0207064E-005
3	0	1.722195346278226E+003	3.4023026E-001	-3.4306191E-005
3	0	1.722695346265595E+003	3.4020558E-001	-7.2477276E-005
3	0	1.723195346252964E+003	3.4010094E-001	2.2950437E-005
3	0	1.723695346240333E+003	3.3992928E-001	-7.2477276E-005
3	0	1.724195346227702E+003	3.3975178E-001	-1.1064836E-004
3	0	1.724695346215070E+003	3.3949670E-001	-1.5220648E-005
3	0	1.725195346202439E+003	3.3917150E-001	-9.1562819E-005
3	0	1.725695346189808E+003	3.3888799E-001	-7.2477276E-005
3	0	1.726195346177177E+003	3.3882633E-001	-1.2973390E-004
3	0	1.726695346164546E+003	3.3871803E-001	-1.2973390E-004
3	0	1.727195346151915E+003	3.3854517E-001	-7.2477276E-005
3	0	1.727695346139284E+003	3.3832684E-001	-1.1064836E-004
3	0	1.728195346126653E+003	3.3808494E-001	-3.4306191E-005
3	0	1.728695346114022E+003	3.3778590E-001	-1.5220648E-005
3	0	1.729195346101391E+003	3.3742487E-001	-1.2973390E-004
3	0	1.729695346088760E+003	3.3713531E-001	-9.1562819E-005
3	0	1.730195346076129E+003	3.3704105E-001	-1.2973390E-004
3	0	1.730695346063498E+003	3.3692884E-001	-1.2973390E-004
3	0	1.731195346050867E+003	3.3675385E-001	2.2950437E-005
3	0	1.731695346038236E+003	3.3652288E-001	-1.5220648E-005
3	0	1.732195346025605E+003	3.3626869E-001	-1.6790499E-004
3	0	1.732695346012973E+003	3.3594850E-001	-7.2477276E-005
3	0	1.733195346000342E+003	3.3556008E-001	-9.1562819E-005
3	0	1.733695345987711E+003	3.3523986E-001	-9.1562819E-005
3	0	1.734195345975080E+003	3.3516183E-001	-1.1064836E-004
3	0	1.734695345962449E+003	3.3506218E-001	-1.4881945E-004
3	0	1.735195345949818E+003	3.3492279E-001	-5.3391734E-005
3	0	1.735695345937187E+003	3.3477777E-001	-9.1562819E-005
3	0	1.736195345924556E+003	3.3470041E-001	-1.2973390E-004
3	0	1.736695345911925E+003	3.3459899E-001	4.2035979E-005
3	0	1.737195345899294E+003	3.3446881E-001	-1.5220648E-005
3	0	1.737695345886663E+003	3.3441398E-001	-9.1562819E-005
3	0	1.738195345874032E+003	3.3463177E-001	4.2035979E-005
3	0	1.738695345861401E+003	3.3484390E-001	-3.4306191E-005
3	0	1.739195345848770E+003	3.3497766E-001	-1.5220648E-005
3	0	1.739695345836139E+003	3.3502999E-001	-3.4306191E-005
3	0	1.740195345823508E+003	3.3504486E-001	-1.4881945E-004
3	0	1.740695345810876E+003	3.3496246E-001	-1.5220648E-005
3	0	1.741195345798245E+003	3.3476743E-001	-3.4306191E-005
3	0	1.741695345785614E+003	3.3458197E-001	-3.4306191E-005
3	0	1.742195345772983E+003	3.3461112E-001	-1.2973390E-004
3	0	1.742695345760352E+003	3.3460250E-001	-9.1562819E-005
3	0	1.743195345747721E+003	3.3451647E-001	-7.2477276E-005
3	0	1.743695345735090E+003	3.3437183E-001	-5.3391734E-005
3	0	1.744195345722459E+003	3.3419746E-001	-7.2477276E-005
3	0	1.744695345709828E+003	3.3394894E-001	-7.2477276E-005
3	0	1.745195345697197E+003	3.3360451E-001	3.8648941E-006
3	0	1.745695345684566E+003	3.3330184E-001	4.2035979E-005
3	0	1.746195345671935E+003	3.3322245E-001	-1.5220648E-005
3	0	1.746695345659304E+003	3.3311775E-001	-3.4306191E-005
3	0	1.747195345646673E+003	3.3295566E-001	-3.4306191E-005
3	0	1.747695345634042E+003	3.3274674E-001	4.2035979E-005
3	0	1.748195345621411E+003	3.3250540E-001	-1.1064836E-004
3	0	1.748695345608779E+003	3.3221805E-001	-9.1562819E-005
3	0	1.749195345596148E+003	3.3182579E-001	6.1121522E-005
3	0	1.749695345583517E+003	3.3149177E-001	2.2950437E-005
3	0	1.750195345570886E+003	3.3138818E-001	-5.3391734E-005
3	0	1.750695345558255E+003	3.3127087E-001	-5.3391734E-005
3	0	1.751195345545624E+003	3.3110255E-001	4.2035979E-005
3	0	1.751695345532993E+003	3.3090973E-001	2.2950437E-005
3	0	1.752195345520362E+003	3.3068681E-001	8.0207064E-005
3	0	1.752695345507731E+003	3.3040321E-001	-5.3391734E-005
3	0	1.753195345495100E+003	3.3005574E-001	9.9292607E-005
3	0	1.753695345482469E+003	3.2973433E-001	-7.2477276E-005
3	0	1.754195345469838E+003	3.2964072E-001	-7.2477276E-005
3	0	1.754695345457207E+003	3.2954639E-001	-1.5220648E-005
3	0	1.755195345444576E+003	3.2943803E-001	-1.2973390E-004
3	0	1.755695345431945E+003	3.2930696E-001	-9.1562819E-005
3	0	1.756195345419314E+003	3.2920539E-001	2.2950437E-005
3	0	1.756695345406682E+003	3.2908529E-001	3.8648941E-006
3	0	1.757195345394051E+003	3.2891503E-001	-3.4306191E-005
3	0	1.757695345381420E+003	3.2883754E-001	-1.5220648E-005
3	0	1.758195345368789E+003	3.2901791E-001	-1.5220648E-005
3	0	1.758695345356158E+003	3.2921863E-001	-1.2973390E-004
3	0	1.759195345343527E+003	3.2936767E-001	2.2950437E-005
3	0	1.759695345330896E+003	3.2945439E-001	8.0207064E-005
3	0	1.760195345318265E+003	3.2948148E-001	2.2950437E-005
3	0	1.760695345305634E+003	3.2943216E-001	-1.5220648E-005
3	0	1.761195345293003E+003	3.2924947E-001	3.8648941E-006
3	0	1.761695345280372E+003	3.2907459E-001	-1.1064836E-004
3	0	1.762195345267741E+003	3.2908329E-001	2.2950437E-005
3	0	1.762695345255110E+003	3.2907775E-001	-1.8699054E-004
3	0	1.763195345242479E+003	3.2898986E-001	-1.1064836E-004
3	0	1.763695345229848E+003	3.2884288E-001	-9.1562819E-005
3	0	1.764195345217217E+003	3.2865742E-001	2.2950437E-005
3	0	1.764695345204585E+003	3.2840484E-001	-1.2973390E-004
3	0	1.765195345191954E+003	3.2806706E-001	-3.4306191E-005
3	0	1.765695345179323E+003	3.2774210E-001	-9.1562819E-005
3	0	1.766195345166692E+003	3.2763347E-001	-5.3391734E-005
3	0	1.766695345154061E+003	3.2753795E-001	4.2035979E-005
3	0	1.767195345141430E+003	3.2738543E-001	-1.2973390E-004
3	0	1.767695345128799E+003	3.2718807E-001	-5.3391734E-005
3	0	1.768195345116168E+003	3.2696581E-001	-3.4306191E-005
3	0	1.768695345103537E+003	3.2668528E-001	-9.1562819E-005
3	0	1.769195345090906E+003	3.2631034E-001	-9.1562819E-005
3	0	1.769695345078275E+003	3.2600263E-001	-1.1064836E-004
3	0	1.770195345065644E+003	3.2588744E-001	4.2035979E-005
3	0	1.770695345053013E+003	3.2575551E-001	-9.1562819E-005
3	0	1.771195345040382E+003	3.2557347E-001	-7.2477276E-005
3	0	1.771695345027751E+003	3.2537454E-001	-1.1064836E-004
3	0	1.772195345015120E+003	3.2517087E-001	-1.1064836E-004
3	0	1.772695345002488E+003	3.2492781E-001	-1.5220648E-005
3	0	1.773195344989857E+003	3.2461029E-001	-3.4306191E-005
3	0	1.773695344977226E+003	3.2430720E-001	-2.0607607E-004
3	0	1.774195344964595E+003	3.2420057E-001	3.8648941E-006
3	0	1.774695344951964E+003	3.2410213E-001	3.8648941E-006
3	0	1.775195344939333E+003	3.2395336E-001	4.2035979E-005
3	0	1.775695344926702E+003	3.2380953E-001	-5.3391734E-005
3	0	1.776195344914071E+003	3.2367739E-001	-1.1064836E-004
3	0	1.776695344901440E+003	3.2353354E-001	-9.1562819E-005
3	0	1.777195344888809E+003	3.2337609E-001	-1.8699054E-004
3	0	1.777695344876178E+003	3.2328850E-001	-5.3391734E-005
3	0	1.778195344863547E+003	3.2343370E-001	-5.3391734E-005
3	0	1.778695344850916E+003	3.2363197E-001	-1.4881945E-004
3	0	1.779195344838285E+003	3.2380071E-001	4.2035979E-005
3	0	1.779695344825654E+003	3.2391492E-001	4.2035979E-005
3	0	1.780195344813023E+003	3.2398725E-001	2.2950437E-005
3	0	1.780695344800391E+003	3.2395700E-001	-1.1064836E-004
3	0	1.781195344787760E+003	3.2380638E-001	-7.2477276E-005
3	0	1.781695344775129E+003	3.2363901E-001	-2.2516162E-004
3	0	1.782195344762498E+003	3.2362232E-001	-7.2477276E-005
3	0	1.782695344749867E+003	3.2358658E-001	4.2035979E-005
3	0	1.783195344737236E+003	3.2348251E-001	4.2035979E-005
3	0	1.783695344724605E+003	3.2333905E-001	-3.4306191E-005
3	0	1.784195344711974E+003	3.2317296E-001	3.8648941E-006
3	0	1.784695344699343E+003	3.2293403E-001	-1.1064836E-004
3	0	1.785195344686712E+003	3.2261750E-001	-1.5220648E-005
3	0	1.785695344674081E+003	3.2230246E-001	-9.1562819E-005
3	0	1.786195344661450E+003	3.2219404E-001	4.2035979E-005
3	0	1.786695344648819E+003	3.2209635E-001	8.0207064E-005
3	0	1.787195344636188E+003	3.2196552E-001	2.2950437E-005
3	0	1.787695344623557E+003	3.2177490E-001	8.0207064E-005
3	0	1.788195344610926E+003	3.2156014E-001	-7.2477276E-005
3	0	1.788695344598294E+003	3.2131502E-001	-1.8699054E-004
3	0	1.789195344585663E+003	3.2097906E-001	-1.4881945E-004
3	0	1.789695344573032E+003	3.2065976E-001	1.1837815E-004
3	0	1.790195344560401E+003	3.2053745E-001	-3.2058934E-004
3	0	1.790695344547770E+003	3.2042459E-001	-9.1562819E-005
3	0	1.791195344535139E+003	3.2027757E-001	1.1837815E-004
3	0	1.791695344522508E+003	3.2009548E-001	4.2035979E-005
3	0	1.792195344509877E+003	3.1991062E-001	6.1121522E-005
3	0	1.792695344497246E+003	3.1963840E-001	-1.5220648E-005
3	0	1.793195344484615E+003	3.1930399E-001	-1.4881945E-004
3	0	1.793695344471984E+003	3.1899008E-001	-1.6790499E-004
3	0	1.794195344459353E+003	3.1885591E-001	-1.1064836E-004
3	0	1.794695344446722E+003	3.1872541E-001	-5.3391734E-005
3	0	1.795195344434091E+003	3.1855902E-001	1.7563478E-004
3	0	1.795695344421460E+003	3.1839451E-001	-9.1562819E-005
3	0	1.796195344408829E+003	3.1824782E-001	-5.3391734E-005
3	0	1.796695344396197E+003	3.1810680E-001	-7.2477276E-005
3	0	1.797195344383566E+003	3.1794411E-001	-9.1562819E-005
3	0	1.797695344370935E+003	3.1783882E-001	-2.0607607E-004
3	0	1.798195344358304E+003	3.1796214E-001	-1.1064836E-004
3	0	1.798695344345673E+003	3.1814003E-001	-5.3391734E-005
3	0	1.799195344333042E+003	3.1831539E-001	-1.2973390E-004
3	0	1.799695344320411E+003	3.1844911E-001	-9.1562819E-005
3	0	1.800195344307780E+003	3.1855169E-001	-1.5220648E-005
3	0	1.800695344295149E+003	3.1854957E-001	3.8648941E-006
3	0	1.801195344282518E+003	3.1846622E-001	-7.2477276E-005
3	0	1.801695344269887E+003	3.1836978E-001	-5.3391734E-005
3	0	1.801729344269028E+003	3.1837806E-001	2.2950437E-005