EC-Lab ASCII FILE
Nb header lines : 48                          

Open Circuit Voltage

Run on channel : 1 (SN 81504)
User : 
CE vs. WE compliance from -10 V to 10 V
Electrode connection : standard
Potential control : Ewe
Ewe ctrl range : min = -2.50 V, max = 2.50 V
Safety Limits :
	Do not start on E overload
Acquisition started on : 05/10/2026 08:28:58.550
Loaded Setting File :  C:\PEM-WE_measurements\2026\372_IV_IV IrOx, 5 min Pt, 30 min C, etched cathode\new station\Loopeis new\1,46 V different time gaps closed cell\Loopeis 1,46V_180s_2_PEIS from 65kHz to 10kHz.mps
Saved on :
	File : L_27_Loopeis 1,46V_180s_2_PEIS from 65kHz to 10kHz_04_OCV_C01.mpr
	Directory : C:\PEM-WE_measurements\2026\372_IV_IV IrOx, 5 min Pt, 30 min C, etched cathode\new station\Loopeis new\1,46 V different time gaps closed cell\
	Host : 192.168.0.2
Device : SP-150e (SN .005491)
Address : 192.168.0.91
EC-LAB for windows v11.71 (software)
Internet server v28.00 (firmware)
Command interpretor v14.01 (firmware)
Electrode material : 
Initial state : 
Electrolyte : 
Comments : 
Current amplifier : SP-150eB-20A
Electrode surface area : 0.001 cm²
Characteristic mass : 0.001 g
Equivalent Weight : 0.000 g/eq.
Density : 0.000 g/cm3
Volume (V) : 0.001 cm³
Record Analogic IN 1
Text export
   Mode : Standard
   Time format : Elapsed
Cycle Definition : Charge/Discharge alternance
tR (h:m:s)          0:03:0.0000         
dER/dt (mV/h)       1.0                 
record              <Ewe>               
dER (mV)            10.00               
dtR (s)             0.5000              
E range min (V)     -2.500              
E range max (V)     2.500               

mode	error	time/s	<Ewe/V>	Analog IN 1/V	
3	0	2.708593964602915E+002	1.1067833E+000	4.2035979E-005
3	0	2.713593964476604E+002	1.2571582E+000	-1.2973390E-004
3	0	2.718593964350293E+002	1.2473283E+000	-1.1064836E-004
3	0	2.723593964223983E+002	1.2254015E+000	-7.2477276E-005
3	0	2.728593964097672E+002	1.1862118E+000	-1.2973390E-004
3	0	2.733593963971362E+002	1.1144601E+000	-1.8699054E-004
3	0	2.738593963845051E+002	8.7821412E-001	-5.3391734E-005
3	0	2.743593963718740E+002	4.8854592E-001	3.8648941E-006
3	0	2.748593963592430E+002	3.6495396E-001	3.8648941E-006
3	0	2.753593963466119E+002	3.4261981E-001	-1.4881945E-004
3	0	2.758593963339808E+002	3.4002617E-001	-3.4306191E-005
3	0	2.763593963213498E+002	3.4089348E-001	-1.5220648E-005
3	0	2.768593963087187E+002	3.4216809E-001	-7.2477276E-005
3	0	2.773593962960877E+002	3.4309366E-001	9.9292607E-005
3	0	2.778593962834566E+002	3.4360033E-001	-1.2973390E-004
3	0	2.783593962708255E+002	3.4392855E-001	4.2035979E-005
3	0	2.788593962581945E+002	3.4449130E-001	-1.5220648E-005
3	0	2.793593962455634E+002	3.4491175E-001	-1.5220648E-005
3	0	2.798593962329323E+002	3.4515777E-001	-7.2477276E-005
3	0	2.803593962203013E+002	3.4532392E-001	-5.3391734E-005
3	0	2.808593962076702E+002	3.4550822E-001	-9.1562819E-005
3	0	2.813593961950392E+002	3.4559646E-001	-1.1064836E-004
3	0	2.818593961824081E+002	3.4563434E-001	4.2035979E-005
3	0	2.823593961697770E+002	3.4574404E-001	-3.4306191E-005
3	0	2.828593961571460E+002	3.4619880E-001	-5.3391734E-005
3	0	2.833593961445149E+002	3.4659085E-001	4.2035979E-005
3	0	2.838593961318838E+002	3.4685352E-001	2.2950437E-005
3	0	2.843593961192528E+002	3.4703067E-001	-7.2477276E-005
3	0	2.848593961066217E+002	3.4723333E-001	-7.2477276E-005
3	0	2.853593960939907E+002	3.4737170E-001	8.0207064E-005
3	0	2.858593960813596E+002	3.4737608E-001	-1.8699054E-004
3	0	2.863593960687285E+002	3.4744018E-001	-3.4306191E-005
3	0	2.868593960560975E+002	3.4786040E-001	-3.4306191E-005
3	0	2.873593960434664E+002	3.4830838E-001	2.2950437E-005
3	0	2.878593960308353E+002	3.4868121E-001	-2.6333271E-004
3	0	2.883593960182043E+002	3.4903196E-001	2.2950437E-005
3	0	2.888593960055732E+002	3.4943902E-001	-5.3391734E-005
3	0	2.893593959929422E+002	3.4984818E-001	-5.3391734E-005
3	0	2.898593959803111E+002	3.5016558E-001	-1.5220648E-005
3	0	2.903593959676800E+002	3.5052860E-001	2.2950437E-005
3	0	2.908593959550490E+002	3.5119385E-001	-1.5220648E-005
3	0	2.913593959424179E+002	3.5180786E-001	1.1837815E-004
3	0	2.918593959297868E+002	3.5222557E-001	4.2035979E-005
3	0	2.923593959171558E+002	3.5252857E-001	-1.1064836E-004
3	0	2.928593959045247E+002	3.5279638E-001	-3.4306191E-005
3	0	2.933593958918937E+002	3.5299444E-001	-1.1064836E-004
3	0	2.938593958792626E+002	3.5302737E-001	-1.5220648E-005
3	0	2.943593958666315E+002	3.5308948E-001	-1.1064836E-004
3	0	2.948593958540005E+002	3.5348031E-001	-3.4306191E-005
3	0	2.953593958413694E+002	3.5380650E-001	4.2035979E-005
3	0	2.958593958287383E+002	3.5397798E-001	1.1837815E-004
3	0	2.963593958161073E+002	3.5407814E-001	2.2950437E-005
3	0	2.968593958034762E+002	3.5415140E-001	3.8648941E-006
3	0	2.973593957908452E+002	3.5417315E-001	2.2950437E-005
3	0	2.978593957782141E+002	3.5409242E-001	-5.3391734E-005
3	0	2.983593957655830E+002	3.5399446E-001	4.2035979E-005
3	0	2.988593957529520E+002	3.5422313E-001	-1.5220648E-005
3	0	2.993593957403209E+002	3.5442516E-001	-1.4881945E-004
3	0	2.998593957276898E+002	3.5448909E-001	2.2950437E-005
3	0	3.003593957150588E+002	3.5446876E-001	-5.3391734E-005
3	0	3.008593957024277E+002	3.5444912E-001	6.1121522E-005
3	0	3.013593956897967E+002	3.5437652E-001	-9.1562819E-005
3	0	3.018593956771656E+002	3.5420740E-001	-1.4881945E-004
3	0	3.023593956645345E+002	3.5405818E-001	3.8648941E-006
3	0	3.028593956519035E+002	3.5421908E-001	1.1837815E-004
3	0	3.033593956392724E+002	3.5437229E-001	-9.1562819E-005
3	0	3.038593956266413E+002	3.5438076E-001	-3.4306191E-005
3	0	3.043593956140103E+002	3.5431010E-001	-7.2477276E-005
3	0	3.048593956013792E+002	3.5422421E-001	-3.4306191E-005
3	0	3.053593955887482E+002	3.5408911E-001	3.8648941E-006
3	0	3.058593955761171E+002	3.5386547E-001	-1.2973390E-004
3	0	3.063593955634860E+002	3.5367799E-001	-9.1562819E-005
3	0	3.068593955508550E+002	3.5384983E-001	-1.2973390E-004
3	0	3.073593955382239E+002	3.5403666E-001	3.8648941E-006
3	0	3.078593955255928E+002	3.5415912E-001	8.0207064E-005
3	0	3.083593955129618E+002	3.5421866E-001	2.2950437E-005
3	0	3.088593955003307E+002	3.5428911E-001	-9.1562819E-005
3	0	3.093593954876997E+002	3.5432291E-001	-5.3391734E-005
3	0	3.098593954750686E+002	3.5420439E-001	-1.5220648E-005
3	0	3.103593954624375E+002	3.5406160E-001	3.8648941E-006
3	0	3.108593954498065E+002	3.5426369E-001	-1.8699054E-004
3	0	3.113593954371754E+002	3.5444030E-001	1.9472031E-004
3	0	3.118593954245443E+002	3.5446027E-001	9.9292607E-005
3	0	3.123593954119133E+002	3.5438937E-001	-1.2973390E-004
3	0	3.128593953992822E+002	3.5430700E-001	3.8648941E-006
3	0	3.133593953866512E+002	3.5416090E-001	-1.8699054E-004
3	0	3.138593953740201E+002	3.5391590E-001	-9.1562819E-005
3	0	3.143593953613890E+002	3.5368201E-001	6.1121522E-005
3	0	3.148593953487580E+002	3.5375863E-001	-1.4881945E-004
3	0	3.153593953361269E+002	3.5386151E-001	-1.5220648E-005
3	0	3.158593953234958E+002	3.5382575E-001	-1.2973390E-004
3	0	3.163593953108648E+002	3.5368952E-001	-1.5220648E-005
3	0	3.168593952982337E+002	3.5356525E-001	-1.4881945E-004
3	0	3.173593952856027E+002	3.5337979E-001	6.1121522E-005
3	0	3.178593952729716E+002	3.5309643E-001	-2.2516162E-004
3	0	3.183593952603405E+002	3.5280785E-001	-1.4881945E-004
3	0	3.188593952477095E+002	3.5285252E-001	2.2950437E-005
3	0	3.193593952350784E+002	3.5290438E-001	4.2035979E-005
3	0	3.198593952224473E+002	3.5283363E-001	-9.1562819E-005
3	0	3.203593952098163E+002	3.5269359E-001	-5.3391734E-005
3	0	3.208593951971852E+002	3.5255876E-001	-3.4306191E-005
3	0	3.213593951845542E+002	3.5237440E-001	-1.5220648E-005
3	0	3.218593951719231E+002	3.5206151E-001	-1.5220648E-005
3	0	3.223593951592920E+002	3.5176140E-001	-2.0607607E-004
3	0	3.228593951466610E+002	3.5178319E-001	-1.5220648E-005
3	0	3.233593951340299E+002	3.5183781E-001	-1.6790499E-004
3	0	3.238593951213988E+002	3.5175580E-001	-1.5220648E-005
3	0	3.243593951087678E+002	3.5158381E-001	4.2035979E-005
3	0	3.248593950961367E+002	3.5142431E-001	-7.2477276E-005
3	0	3.253593950835057E+002	3.5122246E-001	-3.4306191E-005
3	0	3.258593950708746E+002	3.5094187E-001	3.8648941E-006
3	0	3.263593950582435E+002	3.5066742E-001	-9.1562819E-005
3	0	3.268593950456125E+002	3.5069272E-001	-5.3391734E-005
3	0	3.273593950329814E+002	3.5080159E-001	-1.6790499E-004
3	0	3.278593950203503E+002	3.5084116E-001	4.2035979E-005
3	0	3.283593950077193E+002	3.5083666E-001	-9.1562819E-005
3	0	3.288593949950882E+002	3.5089079E-001	4.2035979E-005
3	0	3.293593949824572E+002	3.5092512E-001	4.2035979E-005
3	0	3.298593949698261E+002	3.5091099E-001	4.2035979E-005
3	0	3.303593949571950E+002	3.5095003E-001	-9.1562819E-005
3	0	3.308593949445640E+002	3.5130960E-001	-3.4306191E-005
3	0	3.313593949319329E+002	3.5167915E-001	1.1837815E-004
3	0	3.318593949193018E+002	3.5191506E-001	8.0207064E-005
3	0	3.323593949066708E+002	3.5203663E-001	3.8648941E-006
3	0	3.328593948940397E+002	3.5210744E-001	-3.4306191E-005
3	0	3.333593948814087E+002	3.5209769E-001	4.2035979E-005
3	0	3.338593948687776E+002	3.5193306E-001	-3.4306191E-005
3	0	3.343593948561465E+002	3.5174814E-001	-9.1562819E-005
3	0	3.348593948435155E+002	3.5183454E-001	-9.1562819E-005
3	0	3.353593948308844E+002	3.5191888E-001	2.2950437E-005
3	0	3.358593948182534E+002	3.5186133E-001	4.2035979E-005
3	0	3.363593948056223E+002	3.5174173E-001	-1.5220648E-005
3	0	3.368593947929912E+002	3.5158017E-001	-1.4881945E-004
3	0	3.373593947803602E+002	3.5138515E-001	6.1121522E-005
3	0	3.378593947677291E+002	3.5107735E-001	-9.1562819E-005
3	0	3.383593947550980E+002	3.5077289E-001	1.1837815E-004
3	0	3.388593947424670E+002	3.5074192E-001	-7.2477276E-005
3	0	3.393593947298359E+002	3.5074884E-001	-7.2477276E-005
3	0	3.398593947172049E+002	3.5065165E-001	-1.5220648E-005
3	0	3.403593947045738E+002	3.5044596E-001	-2.0607607E-004
3	0	3.408593946919427E+002	3.5023665E-001	-3.4306191E-005
3	0	3.413593946793117E+002	3.4997851E-001	6.1121522E-005
3	0	3.418593946666806E+002	3.4960786E-001	2.2950437E-005
3	0	3.423593946540495E+002	3.4925577E-001	-3.4306191E-005
3	0	3.428593946414185E+002	3.4917840E-001	-1.5220648E-005
3	0	3.433593946287874E+002	3.4914157E-001	-5.3391734E-005
3	0	3.438593946161564E+002	3.4901842E-001	3.8648941E-006
3	0	3.443593946035253E+002	3.4880400E-001	-5.3391734E-005
3	0	3.448593945908942E+002	3.4860182E-001	9.9292607E-005
3	0	3.453593945782632E+002	3.4833875E-001	3.8648941E-006
3	0	3.458593945656321E+002	3.4797329E-001	-3.4306191E-005
3	0	3.463593945530010E+002	3.4761801E-001	6.1121522E-005
3	0	3.468593945403700E+002	3.4754285E-001	3.8648941E-006
3	0	3.473593945277389E+002	3.4755221E-001	-1.4881945E-004
3	0	3.478593945151079E+002	3.4749386E-001	9.9292607E-005
3	0	3.483593945024768E+002	3.4743553E-001	2.2950437E-005
3	0	3.488593944898457E+002	3.4743866E-001	3.8648941E-006
3	0	3.493593944772147E+002	3.4746924E-001	-1.1064836E-004
3	0	3.498593944645836E+002	3.4742236E-001	-3.4306191E-005
3	0	3.503593944519525E+002	3.4740245E-001	2.2950437E-005
3	0	3.508593944393215E+002	3.4764883E-001	-7.2477276E-005
3	0	3.513593944266904E+002	3.4793106E-001	-1.5220648E-005
3	0	3.518593944140594E+002	3.4808844E-001	-1.5220648E-005
3	0	3.523593944014283E+002	3.4811977E-001	-5.3391734E-005
3	0	3.528593943887972E+002	3.4813082E-001	-9.1562819E-005
3	0	3.533593943761662E+002	3.4800753E-001	2.2950437E-005
3	0	3.538593943635351E+002	3.4776792E-001	-5.3391734E-005
3	0	3.543593943509040E+002	3.4752247E-001	-7.2477276E-005
3	0	3.548593943382730E+002	3.4752533E-001	-3.4306191E-005
3	0	3.553593943256419E+002	3.4754643E-001	-1.6790499E-004
3	0	3.558593943130109E+002	3.4744975E-001	-1.1064836E-004
3	0	3.563593943003798E+002	3.4726933E-001	-9.1562819E-005
3	0	3.568593942877487E+002	3.4710360E-001	4.2035979E-005
3	0	3.573593942751177E+002	3.4688112E-001	3.8648941E-006
3	0	3.578593942624866E+002	3.4656578E-001	-3.4306191E-005
3	0	3.583593942498555E+002	3.4621808E-001	3.8648941E-006
3	0	3.588593942372245E+002	3.4614158E-001	2.2950437E-005
3	0	3.593593942245934E+002	3.4611192E-001	-5.3391734E-005
3	0	3.598593942119624E+002	3.4596667E-001	-9.1562819E-005
3	0	3.603593941993313E+002	3.4574890E-001	-3.4306191E-005
3	0	3.608593941867002E+002	3.4551325E-001	-7.2477276E-005
3	0	3.613593941740692E+002	3.4524685E-001	6.1121522E-005
3	0	3.618593941614381E+002	3.4486973E-001	-5.3391734E-005
3	0	3.623593941488070E+002	3.4450752E-001	8.0207064E-005
3	0	3.628593941361760E+002	3.4438938E-001	-3.4306191E-005
3	0	3.633593941235449E+002	3.4430829E-001	-1.1064836E-004
3	0	3.638593941109139E+002	3.4413019E-001	-1.1064836E-004
3	0	3.643593940982828E+002	3.4388974E-001	-1.2973390E-004
3	0	3.648593940856517E+002	3.4365824E-001	4.2035979E-005
3	0	3.653593940730207E+002	3.4338304E-001	-3.4306191E-005
3	0	3.658593940603896E+002	3.4301683E-001	-9.1562819E-005
3	0	3.663593940477585E+002	3.4264803E-001	-1.1064836E-004
3	0	3.668593940351275E+002	3.4254810E-001	-1.1064836E-004
3	0	3.673593940224964E+002	3.4252009E-001	-7.2477276E-005
3	0	3.678593940098654E+002	3.4244648E-001	-5.3391734E-005
3	0	3.683593939972343E+002	3.4237972E-001	6.1121522E-005
3	0	3.688593939846032E+002	3.4237212E-001	-1.5220648E-005
3	0	3.693593939719722E+002	3.4233025E-001	-7.2477276E-005
3	0	3.698593939593411E+002	3.4223068E-001	-3.4306191E-005
3	0	3.703593939467100E+002	3.4214988E-001	-1.2973390E-004
3	0	3.708593939340790E+002	3.4236532E-001	-1.6790499E-004
3	0	3.713593939214479E+002	3.4263274E-001	-7.2477276E-005
3	0	3.718593939088169E+002	3.4277013E-001	-1.1064836E-004
3	0	3.723593938961858E+002	3.4280542E-001	2.2950437E-005
3	0	3.728593938835547E+002	3.4280789E-001	-5.3391734E-005
3	0	3.733593938709237E+002	3.4269831E-001	-5.3391734E-005
3	0	3.738593938582926E+002	3.4248573E-001	3.8648941E-006
3	0	3.743593938456615E+002	3.4225002E-001	2.2950437E-005
3	0	3.748593938330305E+002	3.4223923E-001	-3.4306191E-005
3	0	3.753593938203994E+002	3.4227216E-001	-1.1064836E-004
3	0	3.758593938077684E+002	3.4219807E-001	3.8648941E-006
3	0	3.763593937951373E+002	3.4203702E-001	3.8648941E-006
3	0	3.768593937825062E+002	3.4185800E-001	-1.5220648E-005
3	0	3.773593937698752E+002	3.4162301E-001	6.1121522E-005
3	0	3.778593937572441E+002	3.4126171E-001	-3.4306191E-005
3	0	3.783593937446130E+002	3.4090194E-001	-9.1562819E-005
3	0	3.788593937319820E+002	3.4078863E-001	-9.1562819E-005
3	0	3.793593937193509E+002	3.4072274E-001	-1.5220648E-005
3	0	3.798593937067199E+002	3.4057611E-001	-3.4306191E-005
3	0	3.803593936940888E+002	3.4032956E-001	-1.1064836E-004
3	0	3.808593936814577E+002	3.4009612E-001	-5.3391734E-005
3	0	3.813593936688267E+002	3.3982882E-001	-1.5220648E-005
3	0	3.818593936561956E+002	3.3946866E-001	3.8648941E-006
3	0	3.823593936435645E+002	3.3907294E-001	-1.1064836E-004
3	0	3.828593936309335E+002	3.3892113E-001	-3.4306191E-005
3	0	3.833593936183024E+002	3.3882838E-001	-1.1064836E-004
3	0	3.838593936056714E+002	3.3865908E-001	-1.6790499E-004
3	0	3.843593935930403E+002	3.3843347E-001	-1.4881945E-004
3	0	3.848593935804092E+002	3.3822387E-001	4.2035979E-005
3	0	3.853593935677782E+002	3.3794391E-001	-7.2477276E-005
3	0	3.858593935551471E+002	3.3760157E-001	8.0207064E-005
3	0	3.863593935425160E+002	3.3723456E-001	-1.5220648E-005
3	0	3.868593935298850E+002	3.3709925E-001	3.8648941E-006
3	0	3.873593935172539E+002	3.3705205E-001	-3.4306191E-005
3	0	3.878593935046229E+002	3.3694953E-001	-9.1562819E-005
3	0	3.883593934919918E+002	3.3683321E-001	4.2035979E-005
3	0	3.888593934793607E+002	3.3677381E-001	-1.4881945E-004
3	0	3.893593934667297E+002	3.3671862E-001	-5.3391734E-005
3	0	3.898593934540986E+002	3.3662659E-001	2.2950437E-005
3	0	3.903593934414675E+002	3.3651683E-001	-3.4306191E-005
3	0	3.908593934288365E+002	3.3667907E-001	-1.5220648E-005
3	0	3.913593934162054E+002	3.3694121E-001	1.1837815E-004
3	0	3.918593934035744E+002	3.3711413E-001	-1.1064836E-004
3	0	3.923593933909433E+002	3.3718896E-001	-5.3391734E-005
3	0	3.928593933783122E+002	3.3722678E-001	2.2950437E-005
3	0	3.933593933656812E+002	3.3719933E-001	-9.1562819E-005
3	0	3.938593933530501E+002	3.3703217E-001	4.2035979E-005
3	0	3.943593933404190E+002	3.3679879E-001	-9.1562819E-005
3	0	3.948593933277880E+002	3.3678544E-001	-1.1064836E-004
3	0	3.953593933151569E+002	3.3682087E-001	-1.6790499E-004
3	0	3.958593933025259E+002	3.3674765E-001	-9.1562819E-005
3	0	3.963593932898948E+002	3.3659655E-001	-1.1064836E-004
3	0	3.968593932772637E+002	3.3640292E-001	-9.1562819E-005
3	0	3.973593932646327E+002	3.3615467E-001	-1.4881945E-004
3	0	3.978593932520016E+002	3.3583105E-001	9.9292607E-005
3	0	3.983593932393705E+002	3.3547670E-001	3.8648941E-006
3	0	3.988593932267395E+002	3.3534262E-001	-1.2973390E-004
3	0	3.993593932141084E+002	3.3528119E-001	-3.4306191E-005
3	0	3.998593932014774E+002	3.3513901E-001	8.0207064E-005
3	0	4.003593931888463E+002	3.3493009E-001	2.2950437E-005
3	0	4.008593931762152E+002	3.3471021E-001	-7.2477276E-005
3	0	4.013593931635842E+002	3.3444446E-001	-1.4881945E-004
3	0	4.018593931509531E+002	3.3406940E-001	-1.5220648E-005
3	0	4.023593931383220E+002	3.3368999E-001	-3.4306191E-005
3	0	4.028593931256910E+002	3.3355519E-001	-1.2973390E-004
3	0	4.033593931130599E+002	3.3348522E-001	-9.1562819E-005
3	0	4.038593931004289E+002	3.3334932E-001	-7.2477276E-005
3	0	4.043593930877978E+002	3.3313292E-001	-1.5220648E-005
3	0	4.048593930751667E+002	3.3291650E-001	-9.1562819E-005
3	0	4.053593930625357E+002	3.3265880E-001	2.2950437E-005
3	0	4.058593930499046E+002	3.3230039E-001	-9.1562819E-005
3	0	4.063593930372735E+002	3.3193147E-001	3.8648941E-006
3	0	4.068593930246425E+002	3.3179855E-001	-3.4306191E-005
3	0	4.073593930120114E+002	3.3174405E-001	-1.1064836E-004
3	0	4.078593929993804E+002	3.3163476E-001	-1.8699054E-004
3	0	4.083593929867493E+002	3.3152145E-001	2.2950437E-005
3	0	4.088593929741182E+002	3.3146340E-001	-1.6790499E-004
3	0	4.093593929614872E+002	3.3138007E-001	-9.1562819E-005
3	0	4.098593929488561E+002	3.3126032E-001	-1.6790499E-004
3	0	4.103593929362250E+002	3.3116817E-001	-7.2477276E-005
3	0	4.108593929235940E+002	3.3131209E-001	-1.2973390E-004
3	0	4.113593929109629E+002	3.3153415E-001	-1.5220648E-005
3	0	4.118593928983319E+002	3.3167270E-001	-1.2973390E-004
3	0	4.123593928857008E+002	3.3169264E-001	6.1121522E-005
3	0	4.128593928730697E+002	3.3168024E-001	-3.4306191E-005
3	0	4.133593928604387E+002	3.3158478E-001	8.0207064E-005
3	0	4.138593928478076E+002	3.3136445E-001	-1.5220648E-005
3	0	4.143593928351766E+002	3.3109462E-001	-7.2477276E-005
3	0	4.148593928225455E+002	3.3102280E-001	-1.4881945E-004
3	0	4.153593928099144E+002	3.3100519E-001	-1.5220648E-005
3	0	4.158593927972834E+002	3.3091393E-001	-5.3391734E-005
3	0	4.163593927846523E+002	3.3074769E-001	-9.1562819E-005
3	0	4.168593927720212E+002	3.3056620E-001	-9.1562819E-005
3	0	4.173593927593902E+002	3.3035550E-001	-1.5220648E-005
3	0	4.178593927467591E+002	3.3002388E-001	1.1837815E-004
3	0	4.183593927341281E+002	3.2967412E-001	-9.1562819E-005
3	0	4.188593927214970E+002	3.2952189E-001	-1.1064836E-004
3	0	4.193593927088659E+002	3.2943830E-001	4.2035979E-005
3	0	4.198593926962349E+002	3.2929328E-001	6.1121522E-005
3	0	4.203593926836038E+002	3.2908618E-001	6.1121522E-005
3	0	4.208593926709727E+002	3.2886392E-001	-7.2477276E-005
3	0	4.213593926583417E+002	3.2859769E-001	-1.2973390E-004
3	0	4.218593926457106E+002	3.2824308E-001	3.8648941E-006
3	0	4.223593926330796E+002	3.2788455E-001	-3.4306191E-005
3	0	4.228593926204485E+002	3.2772824E-001	-9.1562819E-005
3	0	4.233593926078174E+002	3.2765308E-001	3.8648941E-006
3	0	4.238593925951864E+002	3.2753479E-001	-7.2477276E-005
3	0	4.243593925825553E+002	3.2734755E-001	2.2950437E-005
3	0	4.248593925699242E+002	3.2713002E-001	-9.1562819E-005
3	0	4.253593925572932E+002	3.2686919E-001	-1.4881945E-004
3	0	4.258593925446621E+002	3.2652873E-001	9.9292607E-005
3	0	4.263593925320311E+002	3.2617465E-001	-5.3391734E-005
3	0	4.268593925194000E+002	3.2601735E-001	-9.1562819E-005
3	0	4.273593925067689E+002	3.2593808E-001	3.8648941E-006
3	0	4.278593924941379E+002	3.2584688E-001	4.2035979E-005
3	0	4.283593924815068E+002	3.2572526E-001	-7.2477276E-005
3	0	4.288593924688757E+002	3.2565188E-001	-5.3391734E-005
3	0	4.293593924562447E+002	3.2560876E-001	-7.2477276E-005
3	0	4.298593924436136E+002	3.2551551E-001	-3.4306191E-005
3	0	4.303593924309826E+002	3.2542589E-001	-3.4306191E-005
3	0	4.308593924183515E+002	3.2555038E-001	-1.5220648E-005
3	0	4.313593924057204E+002	3.2576239E-001	-9.1562819E-005
3	0	4.318593923930894E+002	3.2590985E-001	-1.4881945E-004
3	0	4.323593923804583E+002	3.2598269E-001	-7.2477276E-005
3	0	4.328593923678272E+002	3.2600886E-001	-1.1064836E-004
3	0	4.333593923551962E+002	3.2596651E-001	-1.2973390E-004
3	0	4.338593923425651E+002	3.2580683E-001	-1.4881945E-004
3	0	4.343593923299341E+002	3.2558683E-001	9.9292607E-005
3	0	4.348593923173030E+002	3.2551324E-001	-3.4306191E-005
3	0	4.353593923046719E+002	3.2550249E-001	-9.1562819E-005
3	0	4.358593922920409E+002	3.2544315E-001	-5.3391734E-005
3	0	4.363593922794098E+002	3.2530335E-001	-1.5220648E-005
3	0	4.368593922667787E+002	3.2515889E-001	-1.6790499E-004
3	0	4.373593922541477E+002	3.2495299E-001	6.1121522E-005
3	0	4.378593922415166E+002	3.2463223E-001	-9.1562819E-005
3	0	4.383593922288856E+002	3.2430324E-001	-7.2477276E-005
3	0	4.388593922162545E+002	3.2414484E-001	2.2950437E-005
3	0	4.393593922036234E+002	3.2406747E-001	-2.8241824E-004
3	0	4.398593921909924E+002	3.2393953E-001	-7.2477276E-005
3	0	4.403593921783613E+002	3.2375851E-001	3.8648941E-006
3	0	4.408593921657302E+002	3.2354850E-001	6.1121522E-005
3	0	4.413593921530992E+002	3.2331485E-001	-3.4306191E-005
3	0	4.418593921404681E+002	3.2298976E-001	-5.3391734E-005
3	0	4.423593921278371E+002	3.2261407E-001	1.5654923E-004
3	0	4.428593921152060E+002	3.2243389E-001	-1.2973390E-004
3	0	4.433593921025749E+002	3.2233170E-001	-7.2477276E-005
3	0	4.438593920899439E+002	3.2218385E-001	-9.1562819E-005
3	0	4.443593920773128E+002	3.2197767E-001	9.9292607E-005
3	0	4.448593920646817E+002	3.2176137E-001	1.5654923E-004
3	0	4.453593920520507E+002	3.2150164E-001	2.2950437E-005
3	0	4.458593920394196E+002	3.2118708E-001	-3.4306191E-005
3	0	4.463593920267886E+002	3.2083586E-001	-7.2477276E-005
3	0	4.468593920141575E+002	3.2065123E-001	-1.5220648E-005
3	0	4.473593920015264E+002	3.2056159E-001	4.2035979E-005
3	0	4.478593919888954E+002	3.2045147E-001	-1.4881945E-004
3	0	4.483593919762643E+002	3.2032469E-001	-5.3391734E-005
3	0	4.488593919636332E+002	3.2023817E-001	2.2950437E-005
3	0	4.493593919510022E+002	3.2012975E-001	-7.2477276E-005
3	0	4.498593919383711E+002	3.1996998E-001	2.2950437E-005
3	0	4.503593919257401E+002	3.1986198E-001	-2.8241824E-004
3	0	4.503939919248660E+002	3.1987691E-001	-1.6790499E-004