EC-Lab ASCII FILE
Nb header lines : 48                          

Open Circuit Voltage

Run on channel : 1 (SN 81504)
User : 
CE vs. WE compliance from -10 V to 10 V
Electrode connection : standard
Potential control : Ewe
Ewe ctrl range : min = -2.50 V, max = 2.50 V
Safety Limits :
	Do not start on E overload
Acquisition started on : 05/10/2026 08:28:58.550
Loaded Setting File :  C:\PEM-WE_measurements\2026\372_IV_IV IrOx, 5 min Pt, 30 min C, etched cathode\new station\Loopeis new\1,46 V different time gaps closed cell\Loopeis 1,46V_180s_2_PEIS from 65kHz to 10kHz.mps
Saved on :
	File : L_27_Loopeis 1,46V_180s_2_PEIS from 65kHz to 10kHz_08_OCV_C01.mpr
	Directory : C:\PEM-WE_measurements\2026\372_IV_IV IrOx, 5 min Pt, 30 min C, etched cathode\new station\Loopeis new\1,46 V different time gaps closed cell\
	Host : 192.168.0.2
Device : SP-150e (SN .005491)
Address : 192.168.0.91
EC-LAB for windows v11.71 (software)
Internet server v28.00 (firmware)
Command interpretor v14.01 (firmware)
Electrode material : 
Initial state : 
Electrolyte : 
Comments : 
Current amplifier : SP-150eB-20A
Electrode surface area : 0.001 cm²
Characteristic mass : 0.001 g
Equivalent Weight : 0.000 g/eq.
Density : 0.000 g/cm3
Volume (V) : 0.001 cm³
Record Analogic IN 1
Text export
   Mode : Standard
   Time format : Elapsed
Cycle Definition : Charge/Discharge alternance
tR (h:m:s)          0:03:0.0000         
dER/dt (mV/h)       1.0                 
record              <Ewe>               
dER (mV)            10.00               
dtR (s)             0.5000              
E range min (V)     -2.500              
E range max (V)     2.500               

mode	error	time/s	<Ewe/V>	Analog IN 1/V	
3	0	7.212421883845673E+002	1.1055288E+000	-2.2516162E-004
3	0	7.217421883719362E+002	1.2559763E+000	-9.1562819E-005
3	0	7.222421883593051E+002	1.2460434E+000	-3.4306191E-005
3	0	7.227421883466741E+002	1.2239586E+000	-3.4306191E-005
3	0	7.232421883340430E+002	1.1839852E+000	-2.0607607E-004
3	0	7.237421883214120E+002	1.1094742E+000	-1.6790499E-004
3	0	7.242421883087809E+002	8.5724515E-001	4.2035979E-005
3	0	7.247421882961498E+002	4.7593048E-001	-9.1562819E-005
3	0	7.252421882835188E+002	3.5755429E-001	-9.1562819E-005
3	0	7.257421882708877E+002	3.3631122E-001	4.2035979E-005
3	0	7.262421882582566E+002	3.3420396E-001	-7.2477276E-005
3	0	7.267421882456256E+002	3.3566916E-001	-3.4306191E-005
3	0	7.272421882329945E+002	3.3729911E-001	-5.3391734E-005
3	0	7.277421882203635E+002	3.3848712E-001	-1.6790499E-004
3	0	7.282421882077324E+002	3.3924842E-001	4.2035979E-005
3	0	7.287421881951013E+002	3.3972123E-001	-1.2973390E-004
3	0	7.292421881824703E+002	3.4004009E-001	-1.1064836E-004
3	0	7.297421881698392E+002	3.4017313E-001	-1.5220648E-005
3	0	7.302421881572081E+002	3.4041768E-001	3.8648941E-006
3	0	7.307421881445771E+002	3.4100774E-001	-3.4306191E-005
3	0	7.312421881319460E+002	3.4149608E-001	-1.2973390E-004
3	0	7.317421881193150E+002	3.4193712E-001	-5.3391734E-005
3	0	7.322421881066839E+002	3.4226927E-001	-1.2973390E-004
3	0	7.327421880940528E+002	3.4258744E-001	3.8648941E-006
3	0	7.332421880814218E+002	3.4281889E-001	-2.0607607E-004
3	0	7.337421880687907E+002	3.4292668E-001	-1.1064836E-004
3	0	7.342421880561596E+002	3.4314296E-001	-3.4306191E-005
3	0	7.347421880435286E+002	3.4364152E-001	-5.3391734E-005
3	0	7.352421880308975E+002	3.4402895E-001	-1.5220648E-005
3	0	7.357421880182665E+002	3.4435219E-001	-7.2477276E-005
3	0	7.362421880056354E+002	3.4461212E-001	-3.4306191E-005
3	0	7.367421879930043E+002	3.4479073E-001	-7.2477276E-005
3	0	7.372421879803733E+002	3.4479108E-001	4.2035979E-005
3	0	7.377421879677422E+002	3.4501904E-001	-7.2477276E-005
3	0	7.382421879551111E+002	3.4524447E-001	-5.3391734E-005
3	0	7.387421879424801E+002	3.4568861E-001	-3.4306191E-005
3	0	7.392421879298490E+002	3.4595454E-001	-7.2477276E-005
3	0	7.397421879172180E+002	3.4619075E-001	-5.3391734E-005
3	0	7.402421879045869E+002	3.4640667E-001	2.2950437E-005
3	0	7.407421878919558E+002	3.4659618E-001	-7.2477276E-005
3	0	7.412421878793248E+002	3.4669504E-001	9.9292607E-005
3	0	7.417421878666937E+002	3.4665325E-001	-9.1562819E-005
3	0	7.422421878540626E+002	3.4672728E-001	2.2950437E-005
3	0	7.427421878414316E+002	3.4711185E-001	3.8648941E-006
3	0	7.432421878288005E+002	3.4731966E-001	-1.1064836E-004
3	0	7.437421878161695E+002	3.4752476E-001	-9.1562819E-005
3	0	7.442421878035384E+002	3.4766865E-001	4.2035979E-005
3	0	7.447421877909073E+002	3.4779865E-001	-1.5220648E-005
3	0	7.452421877782763E+002	3.4782183E-001	8.0207064E-005
3	0	7.457421877656452E+002	3.4777176E-001	4.2035979E-005
3	0	7.462421877530142E+002	3.4778813E-001	-1.1064836E-004
3	0	7.467421877403831E+002	3.4808585E-001	-9.1562819E-005
3	0	7.472421877277520E+002	3.4823331E-001	6.1121522E-005
3	0	7.477421877151210E+002	3.4835958E-001	4.2035979E-005
3	0	7.482421877024899E+002	3.4842482E-001	-3.4306191E-005
3	0	7.487421876898588E+002	3.4848100E-001	-1.5220648E-005
3	0	7.492421876772278E+002	3.4845775E-001	-1.1064836E-004
3	0	7.497421876645967E+002	3.4837389E-001	-3.4306191E-005
3	0	7.502421876519657E+002	3.4843734E-001	-9.1562819E-005
3	0	7.507421876393346E+002	3.4883639E-001	6.1121522E-005
3	0	7.512421876267035E+002	3.4914902E-001	4.2035979E-005
3	0	7.517421876140725E+002	3.4948322E-001	-1.5220648E-005
3	0	7.522421876014414E+002	3.4982589E-001	-3.4306191E-005
3	0	7.527421875888103E+002	3.5017470E-001	3.8648941E-006
3	0	7.532421875761793E+002	3.5045144E-001	9.9292607E-005
3	0	7.537421875635482E+002	3.5064462E-001	-3.4306191E-005
3	0	7.542421875509172E+002	3.5083920E-001	2.2950437E-005
3	0	7.547421875382861E+002	3.5130614E-001	-5.3391734E-005
3	0	7.552421875256550E+002	3.5160714E-001	-3.4306191E-005
3	0	7.557421875130240E+002	3.5186189E-001	-3.4306191E-005
3	0	7.562421875003929E+002	3.5204458E-001	1.1837815E-004
3	0	7.567421874877618E+002	3.5213867E-001	-3.4306191E-005
3	0	7.572421874751308E+002	3.5215431E-001	3.8648941E-006
3	0	7.577421874624997E+002	3.5203424E-001	-1.1064836E-004
3	0	7.582421874498687E+002	3.5197890E-001	3.8648941E-006
3	0	7.587421874372376E+002	3.5219404E-001	-5.3391734E-005
3	0	7.592421874246065E+002	3.5228285E-001	8.0207064E-005
3	0	7.597421874119755E+002	3.5235083E-001	8.0207064E-005
3	0	7.602421873993444E+002	3.5237092E-001	6.1121522E-005
3	0	7.607421873867133E+002	3.5233849E-001	3.8648941E-006
3	0	7.612421873740823E+002	3.5219803E-001	-1.2973390E-004
3	0	7.617421873614512E+002	3.5198152E-001	-1.5220648E-005
3	0	7.622421873488202E+002	3.5183197E-001	2.2950437E-005
3	0	7.627421873361891E+002	3.5194445E-001	-1.5220648E-005
3	0	7.632421873235580E+002	3.5192081E-001	-2.0607607E-004
3	0	7.637421873109270E+002	3.5188112E-001	-1.2973390E-004
3	0	7.642421872982959E+002	3.5180783E-001	-5.3391734E-005
3	0	7.647421872856648E+002	3.5169432E-001	-7.2477276E-005
3	0	7.652421872730338E+002	3.5152784E-001	-7.2477276E-005
3	0	7.657421872604027E+002	3.5125136E-001	1.1837815E-004
3	0	7.662421872477717E+002	3.5103783E-001	-9.1562819E-005
3	0	7.667421872351406E+002	3.5111958E-001	-1.6790499E-004
3	0	7.672421872225095E+002	3.5107186E-001	-7.2477276E-005
3	0	7.677421872098785E+002	3.5102412E-001	-1.5220648E-005
3	0	7.682421871972474E+002	3.5092583E-001	-1.8699054E-004
3	0	7.687421871846163E+002	3.5077626E-001	-1.5220648E-005
3	0	7.692421871719853E+002	3.5055336E-001	-5.3391734E-005
3	0	7.697421871593542E+002	3.5027879E-001	2.2950437E-005
3	0	7.702421871467232E+002	3.5013860E-001	8.0207064E-005
3	0	7.707421871340921E+002	3.5033950E-001	2.2950437E-005
3	0	7.712421871214610E+002	3.5049635E-001	-1.5220648E-005
3	0	7.717421871088300E+002	3.5069045E-001	-1.5220648E-005
3	0	7.722421870961989E+002	3.5085323E-001	2.2950437E-005
3	0	7.727421870835678E+002	3.5102054E-001	-7.2477276E-005
3	0	7.732421870709368E+002	3.5110968E-001	-2.0607607E-004
3	0	7.737421870583057E+002	3.5110921E-001	2.2950437E-005
3	0	7.742421870456747E+002	3.5114026E-001	-7.2477276E-005
3	0	7.747421870330436E+002	3.5138136E-001	-1.1064836E-004
3	0	7.752421870204125E+002	3.5146913E-001	-3.4306191E-005
3	0	7.757421870077815E+002	3.5152912E-001	-1.4881945E-004
3	0	7.762421869951504E+002	3.5154146E-001	-1.6790499E-004
3	0	7.767421869825193E+002	3.5150650E-001	-1.1064836E-004
3	0	7.772421869698883E+002	3.5136944E-001	-1.1064836E-004
3	0	7.777421869572572E+002	3.5113120E-001	-3.4306191E-005
3	0	7.782421869446262E+002	3.5091236E-001	-1.1064836E-004
3	0	7.787421869319951E+002	3.5097206E-001	2.2950437E-005
3	0	7.792421869193640E+002	3.5092917E-001	3.8648941E-006
3	0	7.797421869067330E+002	3.5086426E-001	6.1121522E-005
3	0	7.802421868941019E+002	3.5072893E-001	4.2035979E-005
3	0	7.807421868814708E+002	3.5058656E-001	-1.6790499E-004
3	0	7.812421868688398E+002	3.5037822E-001	-7.2477276E-005
3	0	7.817421868562087E+002	3.5008740E-001	-3.4306191E-005
3	0	7.822421868435777E+002	3.4983608E-001	-1.5220648E-005
3	0	7.827421868309466E+002	3.4986007E-001	2.2950437E-005
3	0	7.832421868183155E+002	3.4976712E-001	-7.2477276E-005
3	0	7.837421868056845E+002	3.4965163E-001	-1.5220648E-005
3	0	7.842421867930534E+002	3.4947851E-001	-7.2477276E-005
3	0	7.847421867804223E+002	3.4927166E-001	1.1837815E-004
3	0	7.852421867677913E+002	3.4900776E-001	-5.3391734E-005
3	0	7.857421867551602E+002	3.4864160E-001	-7.2477276E-005
3	0	7.862421867425292E+002	3.4836882E-001	2.2950437E-005
3	0	7.867421867298981E+002	3.4837785E-001	-9.1562819E-005
3	0	7.872421867172670E+002	3.4827474E-001	-9.1562819E-005
3	0	7.877421867046360E+002	3.4816644E-001	6.1121522E-005
3	0	7.882421866920049E+002	3.4799781E-001	-1.5220648E-005
3	0	7.887421866793738E+002	3.4779996E-001	-5.3391734E-005
3	0	7.892421866667428E+002	3.4752768E-001	-5.3391734E-005
3	0	7.897421866541117E+002	3.4720099E-001	4.2035979E-005
3	0	7.902421866414807E+002	3.4696722E-001	-3.4306191E-005
3	0	7.907421866288496E+002	3.4705821E-001	-1.1064836E-004
3	0	7.912421866162185E+002	3.4710661E-001	2.2950437E-005
3	0	7.917421866035875E+002	3.4719938E-001	-1.5220648E-005
3	0	7.922421865909564E+002	3.4728807E-001	-5.3391734E-005
3	0	7.927421865783253E+002	3.4740666E-001	-1.1064836E-004
3	0	7.932421865656943E+002	3.4747967E-001	6.1121522E-005
3	0	7.937421865530632E+002	3.4743774E-001	-1.4881945E-004
3	0	7.942421865404322E+002	3.4740445E-001	-1.6790499E-004
3	0	7.947421865278011E+002	3.4759676E-001	-9.1562819E-005
3	0	7.952421865151700E+002	3.4769329E-001	-1.6790499E-004
3	0	7.957421865025390E+002	3.4773973E-001	-1.4881945E-004
3	0	7.962421864899079E+002	3.4769905E-001	-1.1064836E-004
3	0	7.967421864772768E+002	3.4746715E-001	8.0207064E-005
3	0	7.972421864646458E+002	3.4732884E-001	-1.5220648E-005
3	0	7.977421864520147E+002	3.4727287E-001	-5.3391734E-005
3	0	7.982421864393837E+002	3.4710956E-001	9.9292607E-005
3	0	7.987421864267526E+002	3.4716260E-001	-1.5220648E-005
3	0	7.992421864141215E+002	3.4710079E-001	-1.5220648E-005
3	0	7.997421864014905E+002	3.4695107E-001	-7.2477276E-005
3	0	8.002421863888594E+002	3.4678900E-001	-3.4306191E-005
3	0	8.007421863762283E+002	3.4664407E-001	-3.4306191E-005
3	0	8.012421863635973E+002	3.4636864E-001	-3.4306191E-005
3	0	8.017421863509662E+002	3.4596646E-001	-7.2477276E-005
3	0	8.022421863383352E+002	3.4562367E-001	-7.2477276E-005
3	0	8.027421863257041E+002	3.4559166E-001	9.9292607E-005
3	0	8.032421863130730E+002	3.4553131E-001	-1.2973390E-004
3	0	8.037421863004420E+002	3.4535825E-001	3.8648941E-006
3	0	8.042421862878109E+002	3.4511492E-001	-9.1562819E-005
3	0	8.047421862751798E+002	3.4484673E-001	4.2035979E-005
3	0	8.052421862625488E+002	3.4452733E-001	-9.1562819E-005
3	0	8.057421862499177E+002	3.4411800E-001	3.8648941E-006
3	0	8.062421862372867E+002	3.4377438E-001	-5.3391734E-005
3	0	8.067421862246556E+002	3.4371251E-001	-3.4306191E-005
3	0	8.072421862120245E+002	3.4366900E-001	-1.1064836E-004
3	0	8.077421861993935E+002	3.4350014E-001	2.2950437E-005
3	0	8.082421861867624E+002	3.4329066E-001	-1.6790499E-004
3	0	8.087421861741313E+002	3.4305653E-001	2.2950437E-005
3	0	8.092421861615003E+002	3.4276465E-001	-1.1064836E-004
3	0	8.097421861488692E+002	3.4236795E-001	-7.2477276E-005
3	0	8.102421861362382E+002	3.4206170E-001	4.2035979E-005
3	0	8.107421861236071E+002	3.4210420E-001	-5.3391734E-005
3	0	8.112421861109760E+002	3.4219941E-001	-3.4306191E-005
3	0	8.117421860983450E+002	3.4223989E-001	3.8648941E-006
3	0	8.122421860857139E+002	3.4227419E-001	3.8648941E-006
3	0	8.127421860730828E+002	3.4236678E-001	1.1837815E-004
3	0	8.132421860604518E+002	3.4240472E-001	-5.3391734E-005
3	0	8.137421860478207E+002	3.4232524E-001	-7.2477276E-005
3	0	8.142421860351897E+002	3.4225276E-001	-5.3391734E-005
3	0	8.147421860225586E+002	3.4243789E-001	-5.3391734E-005
3	0	8.152421860099275E+002	3.4260473E-001	-1.4881945E-004
3	0	8.157421859972965E+002	3.4263402E-001	8.0207064E-005
3	0	8.162421859846654E+002	3.4259790E-001	-3.4306191E-005
3	0	8.167421859720343E+002	3.4248969E-001	2.2950437E-005
3	0	8.172421859594033E+002	3.4228304E-001	-1.1064836E-004
3	0	8.177421859467722E+002	3.4196576E-001	-3.4306191E-005
3	0	8.182421859341412E+002	3.4168443E-001	-9.1562819E-005
3	0	8.187421859215101E+002	3.4167179E-001	-7.2477276E-005
3	0	8.192421859088790E+002	3.4167230E-001	-9.1562819E-005
3	0	8.197421858962480E+002	3.4155166E-001	2.2950437E-005
3	0	8.202421858836169E+002	3.4137845E-001	-3.4306191E-005
3	0	8.207421858709859E+002	3.4116530E-001	-3.4306191E-005
3	0	8.212421858583548E+002	3.4088847E-001	-7.2477276E-005
3	0	8.217421858457237E+002	3.4048781E-001	-1.1064836E-004
3	0	8.222421858330927E+002	3.4014252E-001	-2.0607607E-004
3	0	8.227421858204616E+002	3.4007961E-001	-1.4881945E-004
3	0	8.232421858078305E+002	3.4002286E-001	-1.8699054E-004
3	0	8.237421857951995E+002	3.3984935E-001	-3.4306191E-005
3	0	8.242421857825684E+002	3.3961555E-001	2.2950437E-005
3	0	8.247421857699374E+002	3.3937386E-001	1.1837815E-004
3	0	8.252421857573063E+002	3.3905664E-001	-3.4306191E-005
3	0	8.257421857446752E+002	3.3865756E-001	-1.6790499E-004
3	0	8.262421857320442E+002	3.3829618E-001	-9.1562819E-005
3	0	8.267421857194131E+002	3.3820343E-001	-7.2477276E-005
3	0	8.272421857067820E+002	3.3813578E-001	6.1121522E-005
3	0	8.277421856941510E+002	3.3796623E-001	-3.4306191E-005
3	0	8.282421856815199E+002	3.3777520E-001	3.8648941E-006
3	0	8.287421856688889E+002	3.3756009E-001	-5.3391734E-005
3	0	8.292421856562578E+002	3.3728454E-001	-1.8699054E-004
3	0	8.297421856436267E+002	3.3693311E-001	3.8648941E-006
3	0	8.302421856309957E+002	3.3662280E-001	8.0207064E-005
3	0	8.307421856183646E+002	3.3660236E-001	6.1121522E-005
3	0	8.312421856057335E+002	3.3666518E-001	6.1121522E-005
3	0	8.317421855931025E+002	3.3668372E-001	-1.5220648E-005
3	0	8.322421855804714E+002	3.3670023E-001	2.2950437E-005
3	0	8.327421855678404E+002	3.3677059E-001	-7.2477276E-005
3	0	8.332421855552093E+002	3.3675587E-001	4.2035979E-005
3	0	8.337421855425782E+002	3.3665127E-001	2.2950437E-005
3	0	8.342421855299472E+002	3.3657420E-001	4.2035979E-005
3	0	8.347421855173161E+002	3.3673012E-001	-9.1562819E-005
3	0	8.352421855046850E+002	3.3690563E-001	2.2950437E-005
3	0	8.357421854920540E+002	3.3698034E-001	-1.5220648E-005
3	0	8.362421854794229E+002	3.3696479E-001	-3.4306191E-005
3	0	8.367421854667919E+002	3.3690348E-001	8.0207064E-005
3	0	8.372421854541608E+002	3.3672738E-001	4.2035979E-005
3	0	8.377421854415297E+002	3.3643734E-001	-1.6790499E-004
3	0	8.382421854288987E+002	3.3616456E-001	-2.2516162E-004
3	0	8.387421854162676E+002	3.3613929E-001	-1.5220648E-005
3	0	8.392421854036365E+002	3.3609921E-001	-3.4306191E-005
3	0	8.397421853910055E+002	3.3595878E-001	3.8648941E-006
3	0	8.402421853783744E+002	3.3577776E-001	-1.2973390E-004
3	0	8.407421853657434E+002	3.3558553E-001	-1.4881945E-004
3	0	8.412421853531123E+002	3.3531126E-001	3.8648941E-006
3	0	8.417421853404812E+002	3.3491448E-001	-9.1562819E-005
3	0	8.422421853278502E+002	3.3456427E-001	-7.2477276E-005
3	0	8.427421853152191E+002	3.3448669E-001	-1.4881945E-004
3	0	8.432421853025880E+002	3.3443198E-001	-5.3391734E-005
3	0	8.437421852899570E+002	3.3428532E-001	-1.6790499E-004
3	0	8.442421852773259E+002	3.3409491E-001	-5.3391734E-005
3	0	8.447421852646949E+002	3.3387360E-001	6.1121522E-005
3	0	8.452421852520638E+002	3.3359489E-001	-5.3391734E-005
3	0	8.457421852394327E+002	3.3320653E-001	-2.0607607E-004
3	0	8.462421852268017E+002	3.3284405E-001	-5.3391734E-005
3	0	8.467421852141706E+002	3.3275574E-001	2.2950437E-005
3	0	8.472421852015395E+002	3.3268884E-001	4.2035979E-005
3	0	8.477421851889085E+002	3.3251217E-001	3.8648941E-006
3	0	8.482421851762774E+002	3.3228672E-001	-7.2477276E-005
3	0	8.487421851636464E+002	3.3209288E-001	-7.2477276E-005
3	0	8.492421851510153E+002	3.3178070E-001	-1.1064836E-004
3	0	8.497421851383842E+002	3.3137682E-001	-9.1562819E-005
3	0	8.502421851257532E+002	3.3106130E-001	-7.2477276E-005
3	0	8.507421851131221E+002	3.3104223E-001	3.8648941E-006
3	0	8.512421851004910E+002	3.3108303E-001	-1.5220648E-005
3	0	8.517421850878600E+002	3.3109245E-001	2.2950437E-005
3	0	8.522421850752289E+002	3.3111250E-001	-1.5220648E-005
3	0	8.527421850625979E+002	3.3116612E-001	-3.4306191E-005
3	0	8.532421850499668E+002	3.3120686E-001	-9.1562819E-005
3	0	8.537421850373357E+002	3.3115408E-001	-7.2477276E-005
3	0	8.542421850247047E+002	3.3112675E-001	8.0207064E-005
3	0	8.547421850120736E+002	3.3132374E-001	-9.1562819E-005
3	0	8.552421849994425E+002	3.3151823E-001	-5.3391734E-005
3	0	8.557421849868115E+002	3.3159527E-001	-3.4306191E-005
3	0	8.562421849741804E+002	3.3157307E-001	-7.2477276E-005
3	0	8.567421849615494E+002	3.3153012E-001	-3.4306191E-005
3	0	8.572421849489183E+002	3.3137372E-001	-1.5220648E-005
3	0	8.577421849362872E+002	3.3109289E-001	4.2035979E-005
3	0	8.582421849236562E+002	3.3081374E-001	-1.1064836E-004
3	0	8.587421849110251E+002	3.3077055E-001	1.1837815E-004
3	0	8.592421848983940E+002	3.3072585E-001	4.2035979E-005
3	0	8.597421848857630E+002	3.3060828E-001	4.2035979E-005
3	0	8.602421848731319E+002	3.3041945E-001	-1.1064836E-004
3	0	8.607421848605009E+002	3.3024043E-001	-5.3391734E-005
3	0	8.612421848478698E+002	3.3001390E-001	-7.2477276E-005
3	0	8.617421848352387E+002	3.2966438E-001	-1.1064836E-004
3	0	8.622421848226077E+002	3.2932144E-001	3.8648941E-006
3	0	8.627421848099766E+002	3.2920599E-001	-7.2477276E-005
3	0	8.632421847973455E+002	3.2910001E-001	-7.2477276E-005
3	0	8.637421847847145E+002	3.2891378E-001	-7.2477276E-005
3	0	8.642421847720834E+002	3.2868290E-001	-1.5220648E-005
3	0	8.647421847594524E+002	3.2844564E-001	-5.3391734E-005
3	0	8.652421847468213E+002	3.2816455E-001	-1.2973390E-004
3	0	8.657421847341902E+002	3.2780597E-001	-1.1064836E-004
3	0	8.662421847215592E+002	3.2745796E-001	8.0207064E-005
3	0	8.667421847089281E+002	3.2734814E-001	4.2035979E-005
3	0	8.672421846962970E+002	3.2727170E-001	-3.4306191E-005
3	0	8.677421846836660E+002	3.2712215E-001	8.0207064E-005
3	0	8.682421846710349E+002	3.2692891E-001	-7.2477276E-005
3	0	8.687421846584039E+002	3.2672146E-001	-5.3391734E-005
3	0	8.692421846457728E+002	3.2647860E-001	-1.5220648E-005
3	0	8.697421846331417E+002	3.2612863E-001	-1.5220648E-005
3	0	8.702421846205107E+002	3.2581261E-001	-3.4306191E-005
3	0	8.707421846078796E+002	3.2575628E-001	3.8648941E-006
3	0	8.712421845952485E+002	3.2577285E-001	-5.3391734E-005
3	0	8.717421845826175E+002	3.2577822E-001	-7.2477276E-005
3	0	8.722421845699864E+002	3.2578209E-001	-1.1064836E-004
3	0	8.727421845573554E+002	3.2583082E-001	4.2035979E-005
3	0	8.732421845447243E+002	3.2586440E-001	3.8648941E-006
3	0	8.737421845320932E+002	3.2582641E-001	-9.1562819E-005
3	0	8.742421845194622E+002	3.2576752E-001	6.1121522E-005
3	0	8.747421845068311E+002	3.2591668E-001	4.2035979E-005
3	0	8.752421844942000E+002	3.2609105E-001	2.2950437E-005
3	0	8.757421844815690E+002	3.2617423E-001	-7.2477276E-005
3	0	8.762421844689379E+002	3.2615715E-001	-1.1064836E-004
3	0	8.767421844563069E+002	3.2610106E-001	-1.1064836E-004
3	0	8.772421844436758E+002	3.2595402E-001	-9.1562819E-005
3	0	8.777421844310447E+002	3.2572219E-001	-1.2973390E-004
3	0	8.782421844184137E+002	3.2546222E-001	-7.2477276E-005
3	0	8.787421844057826E+002	3.2541132E-001	-1.5220648E-005
3	0	8.792421843931515E+002	3.2538068E-001	-1.5220648E-005
3	0	8.797421843805205E+002	3.2527620E-001	-9.1562819E-005
3	0	8.802421843678894E+002	3.2512057E-001	-3.4306191E-005
3	0	8.807421843552584E+002	3.2493934E-001	-3.4306191E-005
3	0	8.812421843426273E+002	3.2466078E-001	-1.5220648E-005
3	0	8.817421843299962E+002	3.2429042E-001	-1.5220648E-005
3	0	8.822421843173652E+002	3.2393539E-001	3.8648941E-006
3	0	8.827421843047341E+002	3.2380873E-001	-7.2477276E-005
3	0	8.832421842921030E+002	3.2371718E-001	-3.4306191E-005
3	0	8.837421842794720E+002	3.2355407E-001	-1.5220648E-005
3	0	8.842421842668409E+002	3.2334152E-001	-1.5220648E-005
3	0	8.847421842542099E+002	3.2311925E-001	3.8648941E-006
3	0	8.852421842415788E+002	3.2283187E-001	-5.3391734E-005
3	0	8.857421842289477E+002	3.2245624E-001	-3.4306191E-005
3	0	8.862421842163167E+002	3.2208085E-001	-9.1562819E-005
3	0	8.867421842036856E+002	3.2193893E-001	-9.1562819E-005
3	0	8.872421841910545E+002	3.2183528E-001	-5.3391734E-005
3	0	8.877421841784235E+002	3.2166952E-001	-1.6790499E-004
3	0	8.882421841657924E+002	3.2145455E-001	-9.1562819E-005
3	0	8.887421841531614E+002	3.2125741E-001	-1.2973390E-004
3	0	8.892421841405303E+002	3.2099178E-001	2.2950437E-005
3	0	8.897421841278992E+002	3.2063836E-001	4.2035979E-005
3	0	8.902421841152682E+002	3.2030097E-001	-1.1064836E-004
3	0	8.907421841026371E+002	3.2020840E-001	2.2950437E-005
3	0	8.912421840900060E+002	3.2019955E-001	-7.2477276E-005
3	0	8.917421840773750E+002	3.2018098E-001	-7.2477276E-005
3	0	8.922421840647439E+002	3.2018566E-001	-5.3391734E-005
3	0	8.927421840521129E+002	3.2020989E-001	-1.2973390E-004
3	0	8.932421840394818E+002	3.2022655E-001	-5.3391734E-005
3	0	8.937421840268507E+002	3.2016811E-001	-1.5220648E-005
3	0	8.942421840142197E+002	3.2010555E-001	4.2035979E-005
3	0	8.947421840015886E+002	3.2023001E-001	-3.4306191E-005
3	0	8.952421839889575E+002	3.2040909E-001	-1.1064836E-004
3	0	8.957421839763265E+002	3.2053131E-001	-1.5220648E-005
3	0	8.962421839636954E+002	3.2056427E-001	-1.1064836E-004
3	0	8.967421839510644E+002	3.2056579E-001	-1.2973390E-004
3	0	8.972421839384333E+002	3.2048205E-001	-9.1562819E-005
3	0	8.977421839258022E+002	3.2026231E-001	-3.4306191E-005
3	0	8.982421839131712E+002	3.2001877E-001	6.1121522E-005
3	0	8.987421839005401E+002	3.1997404E-001	-1.6790499E-004
3	0	8.992421838879091E+002	3.1995004E-001	-3.4306191E-005
3	0	8.997421838752780E+002	3.1985328E-001	-1.1064836E-004
3	0	9.002421838626469E+002	3.1968722E-001	-7.2477276E-005
3	0	9.007421838500159E+002	3.1950617E-001	3.8648941E-006
3	0	9.007767838491418E+002	3.1938204E-001	-1.1064836E-004