EC-Lab ASCII FILE
Nb header lines : 48                          

Open Circuit Voltage

Run on channel : 1 (SN 81504)
User : 
CE vs. WE compliance from -10 V to 10 V
Electrode connection : standard
Potential control : Ewe
Ewe ctrl range : min = -2.50 V, max = 2.50 V
Safety Limits :
	Do not start on E overload
Acquisition started on : 05/10/2026 08:28:58.550
Loaded Setting File :  C:\PEM-WE_measurements\2026\372_IV_IV IrOx, 5 min Pt, 30 min C, etched cathode\new station\Loopeis new\1,46 V different time gaps closed cell\Loopeis 1,46V_180s_2_PEIS from 65kHz to 10kHz.mps
Saved on :
	File : L_27_Loopeis 1,46V_180s_2_PEIS from 65kHz to 10kHz_18_OCV_C01.mpr
	Directory : C:\PEM-WE_measurements\2026\372_IV_IV IrOx, 5 min Pt, 30 min C, etched cathode\new station\Loopeis new\1,46 V different time gaps closed cell\
	Host : 192.168.0.2
Device : SP-150e (SN .005491)
Address : 192.168.0.91
EC-LAB for windows v11.71 (software)
Internet server v28.00 (firmware)
Command interpretor v14.01 (firmware)
Electrode material : 
Initial state : 
Electrolyte : 
Comments : 
Current amplifier : SP-150eB-20A
Electrode surface area : 0.001 cm²
Characteristic mass : 0.001 g
Equivalent Weight : 0.000 g/eq.
Density : 0.000 g/cm3
Volume (V) : 0.001 cm³
Record Analogic IN 1
Text export
   Mode : Standard
   Time format : Elapsed
Cycle Definition : Charge/Discharge alternance
tR (h:m:s)          0:03:0.0000         
dER/dt (mV/h)       1.0                 
record              <Ewe>               
dER (mV)            10.00               
dtR (s)             0.5000              
E range min (V)     -2.500              
E range max (V)     2.500               

mode	error	time/s	<Ewe/V>	Analog IN 1/V	
3	0	1.847229943119586E+003	1.2912211E+000	-7.2477276E-005
3	0	1.847729943106955E+003	1.2966520E+000	-1.5220648E-005
3	0	1.848229943094324E+003	1.2837076E+000	-5.3391734E-005
3	0	1.848729943081693E+003	1.2586160E+000	-1.1064836E-004
3	0	1.849229943069062E+003	1.2156627E+000	6.1121522E-005
3	0	1.849729943056431E+003	1.1376760E+000	-3.4306191E-005
3	0	1.850229943043800E+003	8.7358034E-001	-5.3391734E-005
3	0	1.850729943031169E+003	4.9070096E-001	-1.8699054E-004
3	0	1.851229943018538E+003	3.7839550E-001	8.0207064E-005
3	0	1.851729943005907E+003	3.5749480E-001	-5.3391734E-005
3	0	1.852229942993275E+003	3.5484883E-001	1.1837815E-004
3	0	1.852729942980644E+003	3.5537079E-001	2.2950437E-005
3	0	1.853229942968013E+003	3.5620469E-001	-3.4306191E-005
3	0	1.853729942955382E+003	3.5700101E-001	-9.1562819E-005
3	0	1.854229942942751E+003	3.5767433E-001	-5.3391734E-005
3	0	1.854729942930120E+003	3.5804203E-001	-1.5220648E-005
3	0	1.855229942917489E+003	3.5829061E-001	4.2035979E-005
3	0	1.855729942904858E+003	3.5843349E-001	-1.5220648E-005
3	0	1.856229942892227E+003	3.5865298E-001	-7.2477276E-005
3	0	1.856729942879596E+003	3.5881311E-001	-9.1562819E-005
3	0	1.857229942866965E+003	3.5897672E-001	3.8648941E-006
3	0	1.857729942854334E+003	3.5934263E-001	6.1121522E-005
3	0	1.858229942841703E+003	3.5997617E-001	-1.2973390E-004
3	0	1.858729942829072E+003	3.6053824E-001	-5.3391734E-005
3	0	1.859229942816441E+003	3.6106336E-001	-3.4306191E-005
3	0	1.859729942803810E+003	3.6150625E-001	2.2950437E-005
3	0	1.860229942791178E+003	3.6193535E-001	-1.5220648E-005
3	0	1.860729942778547E+003	3.6223555E-001	3.8648941E-006
3	0	1.861229942765916E+003	3.6242765E-001	-1.1064836E-004
3	0	1.861729942753285E+003	3.6273551E-001	-7.2477276E-005
3	0	1.862229942740654E+003	3.6324111E-001	-3.4306191E-005
3	0	1.862729942728023E+003	3.6361304E-001	-1.5220648E-005
3	0	1.863229942715392E+003	3.6394113E-001	-9.1562819E-005
3	0	1.863729942702761E+003	3.6418524E-001	-3.4306191E-005
3	0	1.864229942690130E+003	3.6441109E-001	-9.1562819E-005
3	0	1.864729942677499E+003	3.6450076E-001	-1.4881945E-004
3	0	1.865229942664868E+003	3.6448821E-001	-1.1064836E-004
3	0	1.865729942652237E+003	3.6465535E-001	3.8648941E-006
3	0	1.866229942639606E+003	3.6500341E-001	-7.2477276E-005
3	0	1.866729942626975E+003	3.6525333E-001	-5.3391734E-005
3	0	1.867229942614344E+003	3.6544892E-001	-1.2973390E-004
3	0	1.867729942601713E+003	3.6557212E-001	-1.5220648E-005
3	0	1.868229942589081E+003	3.6569095E-001	-1.5220648E-005
3	0	1.868729942576450E+003	3.6569723E-001	3.8648941E-006
3	0	1.869229942563819E+003	3.6562577E-001	3.8648941E-006
3	0	1.869729942551188E+003	3.6567220E-001	-1.1064836E-004
3	0	1.870229942538557E+003	3.6597466E-001	-1.4881945E-004
3	0	1.870729942525926E+003	3.6616158E-001	8.0207064E-005
3	0	1.871229942513295E+003	3.6628446E-001	-1.2973390E-004
3	0	1.871729942500664E+003	3.6631697E-001	-5.3391734E-005
3	0	1.872229942488033E+003	3.6634254E-001	-1.2973390E-004
3	0	1.872729942475402E+003	3.6630112E-001	-1.5220648E-005
3	0	1.873229942462771E+003	3.6615694E-001	2.2950437E-005
3	0	1.873729942450140E+003	3.6612120E-001	-5.3391734E-005
3	0	1.874229942437509E+003	3.6633191E-001	6.1121522E-005
3	0	1.874729942424878E+003	3.6645073E-001	9.9292607E-005
3	0	1.875229942412247E+003	3.6651087E-001	-5.3391734E-005
3	0	1.875729942399616E+003	3.6653662E-001	-3.4306191E-005
3	0	1.876229942386984E+003	3.6648229E-001	-7.2477276E-005
3	0	1.876729942374353E+003	3.6640757E-001	-3.4306191E-005
3	0	1.877229942361722E+003	3.6654550E-001	8.0207064E-005
3	0	1.877729942349091E+003	3.6676890E-001	-5.3391734E-005
3	0	1.878229942336460E+003	3.6721116E-001	-1.1064836E-004
3	0	1.878729942323829E+003	3.6752710E-001	-7.2477276E-005
3	0	1.879229942311198E+003	3.6784905E-001	-7.2477276E-005
3	0	1.879729942298567E+003	3.6811978E-001	-1.6790499E-004
3	0	1.880229942285936E+003	3.6836660E-001	-5.3391734E-005
3	0	1.880729942273305E+003	3.6845341E-001	-5.3391734E-005
3	0	1.881229942260674E+003	3.6844906E-001	-3.4306191E-005
3	0	1.881729942248043E+003	3.6856732E-001	3.8648941E-006
3	0	1.882229942235412E+003	3.6886010E-001	-5.3391734E-005
3	0	1.882729942222781E+003	3.6898330E-001	-1.5220648E-005
3	0	1.883229942210150E+003	3.6908570E-001	2.2950437E-005
3	0	1.883729942197519E+003	3.6912110E-001	8.0207064E-005
3	0	1.884229942184887E+003	3.6912638E-001	-1.1064836E-004
3	0	1.884729942172256E+003	3.6902419E-001	3.8648941E-006
3	0	1.885229942159625E+003	3.6883542E-001	2.2950437E-005
3	0	1.885729942146994E+003	3.6878681E-001	-9.1562819E-005
3	0	1.886229942134363E+003	3.6893141E-001	-9.1562819E-005
3	0	1.886729942121732E+003	3.6889684E-001	-7.2477276E-005
3	0	1.887229942109101E+003	3.6887127E-001	-1.5220648E-005
3	0	1.887729942096470E+003	3.6878583E-001	-3.4306191E-005
3	0	1.888229942083839E+003	3.6868167E-001	-3.4306191E-005
3	0	1.888729942071208E+003	3.6847430E-001	3.8648941E-006
3	0	1.889229942058577E+003	3.6818290E-001	-1.6790499E-004
3	0	1.889729942045946E+003	3.6804798E-001	3.8648941E-006
3	0	1.890229942033315E+003	3.6812484E-001	1.1837815E-004
3	0	1.890729942020684E+003	3.6806533E-001	-1.5220648E-005
3	0	1.891229942008053E+003	3.6802101E-001	-5.3391734E-005
3	0	1.891729941995422E+003	3.6789075E-001	-5.3391734E-005
3	0	1.892229941982790E+003	3.6776158E-001	-1.1064836E-004
3	0	1.892729941970159E+003	3.6752486E-001	-2.0607607E-004
3	0	1.893229941957528E+003	3.6720282E-001	-5.3391734E-005
3	0	1.893729941944897E+003	3.6702707E-001	-9.1562819E-005
3	0	1.894229941932266E+003	3.6706227E-001	-1.4881945E-004
3	0	1.894729941919635E+003	3.6695647E-001	3.8648941E-006
3	0	1.895229941907004E+003	3.6686152E-001	-5.3391734E-005
3	0	1.895729941894373E+003	3.6670682E-001	4.2035979E-005
3	0	1.896229941881742E+003	3.6655453E-001	-1.5220648E-005
3	0	1.896729941869111E+003	3.6636540E-001	-7.2477276E-005
3	0	1.897229941856480E+003	3.6617470E-001	2.2950437E-005
3	0	1.897729941843849E+003	3.6618525E-001	-1.5220648E-005
3	0	1.898229941831218E+003	3.6647797E-001	-7.2477276E-005
3	0	1.898729941818587E+003	3.6667845E-001	-2.6333271E-004
3	0	1.899229941805956E+003	3.6693060E-001	-9.1562819E-005
3	0	1.899729941793325E+003	3.6713240E-001	-3.4306191E-005
3	0	1.900229941780693E+003	3.6731827E-001	-3.4306191E-005
3	0	1.900729941768062E+003	3.6736962E-001	2.2950437E-005
3	0	1.901229941755431E+003	3.6729789E-001	-1.5220648E-005
3	0	1.901729941742800E+003	3.6733273E-001	8.0207064E-005
3	0	1.902229941730169E+003	3.6754590E-001	-1.5220648E-005
3	0	1.902729941717538E+003	3.6759028E-001	-1.2973390E-004
3	0	1.903229941704907E+003	3.6760771E-001	9.9292607E-005
3	0	1.903729941692276E+003	3.6757052E-001	6.1121522E-005
3	0	1.904229941679645E+003	3.6748612E-001	-3.4306191E-005
3	0	1.904729941667014E+003	3.6730114E-001	-1.5220648E-005
3	0	1.905229941654383E+003	3.6698860E-001	-1.5220648E-005
3	0	1.905729941641752E+003	3.6682415E-001	-1.4881945E-004
3	0	1.906229941629121E+003	3.6686990E-001	6.1121522E-005
3	0	1.906729941616490E+003	3.6677656E-001	3.8648941E-006
3	0	1.907229941603859E+003	3.6666316E-001	3.8648941E-006
3	0	1.907729941591228E+003	3.6651307E-001	-9.1562819E-005
3	0	1.908229941578596E+003	3.6631715E-001	-9.1562819E-005
3	0	1.908729941565965E+003	3.6600921E-001	-1.2973390E-004
3	0	1.909229941553334E+003	3.6564907E-001	-1.1064836E-004
3	0	1.909729941540703E+003	3.6541292E-001	3.8648941E-006
3	0	1.910229941528072E+003	3.6541253E-001	-3.4306191E-005
3	0	1.910729941515441E+003	3.6527359E-001	8.0207064E-005
3	0	1.911229941502810E+003	3.6514169E-001	9.9292607E-005
3	0	1.911729941490179E+003	3.6493498E-001	-1.5220648E-005
3	0	1.912229941477548E+003	3.6471665E-001	-1.2973390E-004
3	0	1.912729941464917E+003	3.6440071E-001	-1.4881945E-004
3	0	1.913229941452286E+003	3.6401522E-001	-3.4306191E-005
3	0	1.913729941439655E+003	3.6376745E-001	2.2950437E-005
3	0	1.914229941427024E+003	3.6373049E-001	-3.4306191E-005
3	0	1.914729941414393E+003	3.6358652E-001	-1.1064836E-004
3	0	1.915229941401762E+003	3.6344069E-001	8.0207064E-005
3	0	1.915729941389131E+003	3.6326030E-001	2.2950437E-005
3	0	1.916229941376499E+003	3.6308032E-001	3.8648941E-006
3	0	1.916729941363868E+003	3.6283746E-001	-3.4306191E-005
3	0	1.917229941351237E+003	3.6257648E-001	4.2035979E-005
3	0	1.917729941338606E+003	3.6248025E-001	8.0207064E-005
3	0	1.918229941325975E+003	3.6262941E-001	-7.2477276E-005
3	0	1.918729941313344E+003	3.6265406E-001	-3.4306191E-005
3	0	1.919229941300713E+003	3.6263651E-001	-1.5220648E-005
3	0	1.919729941288082E+003	3.6255762E-001	-1.5220648E-005
3	0	1.920229941275451E+003	3.6243770E-001	-1.6790499E-004
3	0	1.920729941262820E+003	3.6221546E-001	-1.5220648E-005
3	0	1.921229941250189E+003	3.6189896E-001	4.2035979E-005
3	0	1.921729941237558E+003	3.6168593E-001	-9.1562819E-005
3	0	1.922229941224927E+003	3.6168498E-001	6.1121522E-005
3	0	1.922729941212296E+003	3.6159018E-001	4.2035979E-005
3	0	1.923229941199665E+003	3.6147407E-001	-1.5220648E-005
3	0	1.923729941187034E+003	3.6132300E-001	-5.3391734E-005
3	0	1.924229941174402E+003	3.6115158E-001	4.2035979E-005
3	0	1.924729941161771E+003	3.6086065E-001	9.9292607E-005
3	0	1.925229941149140E+003	3.6052510E-001	-7.2477276E-005
3	0	1.925729941136509E+003	3.6027783E-001	-7.2477276E-005
3	0	1.926229941123878E+003	3.6022693E-001	-5.3391734E-005
3	0	1.926729941111247E+003	3.6008751E-001	-3.4306191E-005
3	0	1.927229941098616E+003	3.5995445E-001	-1.1064836E-004
3	0	1.927729941085985E+003	3.5978362E-001	-2.0607607E-004
3	0	1.928229941073354E+003	3.5959899E-001	-9.1562819E-005
3	0	1.928729941060723E+003	3.5932726E-001	-1.6790499E-004
3	0	1.929229941048092E+003	3.5897624E-001	-7.2477276E-005
3	0	1.929729941035461E+003	3.5872379E-001	-1.8699054E-004
3	0	1.930229941022830E+003	3.5869497E-001	6.1121522E-005
3	0	1.930729941010199E+003	3.5855842E-001	8.0207064E-005
3	0	1.931229940997568E+003	3.5841134E-001	2.2950437E-005
3	0	1.931729940984937E+003	3.5821769E-001	-1.5220648E-005
3	0	1.932229940972305E+003	3.5801286E-001	4.2035979E-005
3	0	1.932729940959674E+003	3.5775331E-001	-9.1562819E-005
3	0	1.933229940947043E+003	3.5739112E-001	3.8648941E-006
3	0	1.933729940934412E+003	3.5712540E-001	-1.2973390E-004
3	0	1.934229940921781E+003	3.5708427E-001	8.0207064E-005
3	0	1.934729940909150E+003	3.5694653E-001	-7.2477276E-005
3	0	1.935229940896519E+003	3.5680780E-001	-3.4306191E-005
3	0	1.935729940883888E+003	3.5664320E-001	8.0207064E-005
3	0	1.936229940871257E+003	3.5646588E-001	-7.2477276E-005
3	0	1.936729940858626E+003	3.5626367E-001	-5.3391734E-005
3	0	1.937229940845995E+003	3.5600972E-001	-1.2973390E-004
3	0	1.937729940833364E+003	3.5590559E-001	-3.4306191E-005
3	0	1.938229940820733E+003	3.5606730E-001	2.2950437E-005
3	0	1.938729940808102E+003	3.5620272E-001	-5.3391734E-005
3	0	1.939229940795471E+003	3.5636181E-001	-9.1562819E-005
3	0	1.939729940782840E+003	3.5653546E-001	-9.1562819E-005
3	0	1.940229940770208E+003	3.5668796E-001	-5.3391734E-005
3	0	1.940729940757577E+003	3.5673141E-001	-1.8699054E-004
3	0	1.941229940744946E+003	3.5665894E-001	-5.3391734E-005
3	0	1.941729940732315E+003	3.5663790E-001	2.2950437E-005
3	0	1.942229940719684E+003	3.5679603E-001	4.2035979E-005
3	0	1.942729940707053E+003	3.5682219E-001	-5.3391734E-005
3	0	1.943229940694422E+003	3.5681546E-001	-1.1064836E-004
3	0	1.943729940681791E+003	3.5674068E-001	-2.4424717E-004
3	0	1.944229940669160E+003	3.5661742E-001	-1.1064836E-004
3	0	1.944729940656529E+003	3.5630125E-001	-1.1064836E-004
3	0	1.945229940643898E+003	3.5611692E-001	-5.3391734E-005
3	0	1.945729940631267E+003	3.5603753E-001	6.1121522E-005
3	0	1.946229940618636E+003	3.5607472E-001	4.2035979E-005
3	0	1.946729940606005E+003	3.5600913E-001	-1.5220648E-005
3	0	1.947229940593374E+003	3.5582596E-001	-1.8699054E-004
3	0	1.947729940580743E+003	3.5562137E-001	-1.8699054E-004
3	0	1.948229940568111E+003	3.5540086E-001	2.2950437E-005
3	0	1.948729940555480E+003	3.5511902E-001	-3.4306191E-005
3	0	1.949229940542849E+003	3.5472608E-001	-1.6790499E-004
3	0	1.949729940530218E+003	3.5444382E-001	-3.4306191E-005
3	0	1.950229940517587E+003	3.5439640E-001	4.2035979E-005
3	0	1.950729940504956E+003	3.5429814E-001	-5.3391734E-005
3	0	1.951229940492325E+003	3.5411575E-001	-1.5220648E-005
3	0	1.951729940479694E+003	3.5388380E-001	-3.4306191E-005
3	0	1.952229940467063E+003	3.5364172E-001	-1.6790499E-004
3	0	1.952729940454432E+003	3.5334969E-001	-3.4306191E-005
3	0	1.953229940441801E+003	3.5299745E-001	-5.3391734E-005
3	0	1.953729940429170E+003	3.5271612E-001	-1.1064836E-004
3	0	1.954229940416539E+003	3.5267389E-001	3.8648941E-006
3	0	1.954729940403908E+003	3.5260138E-001	-1.1064836E-004
3	0	1.955229940391277E+003	3.5241309E-001	-9.1562819E-005
3	0	1.955729940378646E+003	3.5220030E-001	-5.3391734E-005
3	0	1.956229940366014E+003	3.5198367E-001	3.8648941E-006
3	0	1.956729940353383E+003	3.5171080E-001	-3.4306191E-005
3	0	1.957229940340752E+003	3.5141242E-001	8.0207064E-005
3	0	1.957729940328121E+003	3.5125950E-001	-1.5220648E-005
3	0	1.958229940315490E+003	3.5139567E-001	-1.1064836E-004
3	0	1.958729940302859E+003	3.5156742E-001	2.2950437E-005
3	0	1.959229940290228E+003	3.5169107E-001	2.2950437E-005
3	0	1.959729940277597E+003	3.5181212E-001	-1.6790499E-004
3	0	1.960229940264966E+003	3.5191604E-001	-7.2477276E-005
3	0	1.960729940252335E+003	3.5194159E-001	6.1121522E-005
3	0	1.961229940239704E+003	3.5186046E-001	-7.2477276E-005
3	0	1.961729940227073E+003	3.5182717E-001	-1.6790499E-004
3	0	1.962229940214442E+003	3.5196215E-001	3.8648941E-006
3	0	1.962729940201811E+003	3.5205522E-001	-7.2477276E-005
3	0	1.963229940189180E+003	3.5202575E-001	-1.5220648E-005
3	0	1.963729940176549E+003	3.5193881E-001	2.2950437E-005
3	0	1.964229940163917E+003	3.5182202E-001	3.8648941E-006
3	0	1.964729940151286E+003	3.5159123E-001	2.2950437E-005
3	0	1.965229940138655E+003	3.5126290E-001	2.2950437E-005
3	0	1.965729940126024E+003	3.5099179E-001	-5.3391734E-005
3	0	1.966229940113393E+003	3.5094807E-001	3.8648941E-006
3	0	1.966729940100762E+003	3.5089293E-001	-3.4306191E-005
3	0	1.967229940088131E+003	3.5073981E-001	-5.3391734E-005
3	0	1.967729940075500E+003	3.5053369E-001	-1.2973390E-004
3	0	1.968229940062869E+003	3.5030657E-001	-7.2477276E-005
3	0	1.968729940050238E+003	3.5000870E-001	-5.3391734E-005
3	0	1.969229940037607E+003	3.4960929E-001	9.9292607E-005
3	0	1.969729940024976E+003	3.4930587E-001	-1.6790499E-004
3	0	1.970229940012345E+003	3.4922090E-001	2.2950437E-005
3	0	1.970729939999714E+003	3.4914750E-001	-5.3391734E-005
3	0	1.971229939987083E+003	3.4898040E-001	-9.1562819E-005
3	0	1.971729939974452E+003	3.4877956E-001	2.2950437E-005
3	0	1.972229939961820E+003	3.4855968E-001	-1.6790499E-004
3	0	1.972729939949189E+003	3.4825769E-001	-3.4306191E-005
3	0	1.973229939936558E+003	3.4787944E-001	-3.4306191E-005
3	0	1.973729939923927E+003	3.4756681E-001	6.1121522E-005
3	0	1.974229939911296E+003	3.4747922E-001	-5.3391734E-005
3	0	1.974729939898665E+003	3.4738261E-001	6.1121522E-005
3	0	1.975229939886034E+003	3.4718844E-001	-3.4306191E-005
3	0	1.975729939873403E+003	3.4696075E-001	-2.2516162E-004
3	0	1.976229939860772E+003	3.4671655E-001	-1.1064836E-004
3	0	1.976729939848141E+003	3.4644681E-001	-1.5220648E-005
3	0	1.977229939835510E+003	3.4612978E-001	-5.3391734E-005
3	0	1.977729939822879E+003	3.4593436E-001	-7.2477276E-005
3	0	1.978229939810248E+003	3.4601903E-001	-1.1064836E-004
3	0	1.978729939797617E+003	3.4615430E-001	-1.2973390E-004
3	0	1.979229939784986E+003	3.4625050E-001	-9.1562819E-005
3	0	1.979729939772355E+003	3.4632868E-001	-2.2516162E-004
3	0	1.980229939759723E+003	3.4642798E-001	-3.4306191E-005
3	0	1.980729939747092E+003	3.4645447E-001	3.8648941E-006
3	0	1.981229939734461E+003	3.4637997E-001	-9.1562819E-005
3	0	1.981729939721830E+003	3.4631774E-001	-5.3391734E-005
3	0	1.982229939709199E+003	3.4644231E-001	-1.2973390E-004
3	0	1.982729939696568E+003	3.4653816E-001	-5.3391734E-005
3	0	1.983229939683937E+003	3.4653381E-001	-2.0607607E-004
3	0	1.983729939671306E+003	3.4645683E-001	-9.1562819E-005
3	0	1.984229939658675E+003	3.4632525E-001	8.0207064E-005
3	0	1.984729939646044E+003	3.4610724E-001	2.2950437E-005
3	0	1.985229939633413E+003	3.4578881E-001	-1.2973390E-004
3	0	1.985729939620782E+003	3.4552133E-001	-1.5220648E-005
3	0	1.986229939608151E+003	3.4546983E-001	-1.2973390E-004
3	0	1.986729939595520E+003	3.4540570E-001	-2.0607607E-004
3	0	1.987229939582889E+003	3.4526005E-001	-5.3391734E-005
3	0	1.987729939570258E+003	3.4506825E-001	3.8648941E-006
3	0	1.988229939557626E+003	3.4485328E-001	-1.2973390E-004
3	0	1.988729939544995E+003	3.4457833E-001	-7.2477276E-005
3	0	1.989229939532364E+003	3.4418628E-001	-9.1562819E-005
3	0	1.989729939519733E+003	3.4387270E-001	4.2035979E-005
3	0	1.990229939507102E+003	3.4377003E-001	-9.1562819E-005
3	0	1.990729939494471E+003	3.4368593E-001	8.0207064E-005
3	0	1.991229939481840E+003	3.4349418E-001	-7.2477276E-005
3	0	1.991729939469209E+003	3.4326985E-001	-7.2477276E-005
3	0	1.992229939456578E+003	3.4300941E-001	4.2035979E-005
3	0	1.992729939443947E+003	3.4272495E-001	-7.2477276E-005
3	0	1.993229939431316E+003	3.4241265E-001	-1.1064836E-004
3	0	1.993729939418685E+003	3.4215397E-001	-9.1562819E-005
3	0	1.994229939406054E+003	3.4207234E-001	-1.1064836E-004
3	0	1.994729939393423E+003	3.4197912E-001	-9.1562819E-005
3	0	1.995229939380792E+003	3.4181359E-001	-9.1562819E-005
3	0	1.995729939368161E+003	3.4160903E-001	-7.2477276E-005
3	0	1.996229939355530E+003	3.4139350E-001	-1.4881945E-004
3	0	1.996729939342898E+003	3.4111425E-001	-1.4881945E-004
3	0	1.997229939330267E+003	3.4080324E-001	-7.2477276E-005
3	0	1.997729939317636E+003	3.4060153E-001	-5.3391734E-005
3	0	1.998229939305005E+003	3.4063470E-001	-3.4306191E-005
3	0	1.998729939292374E+003	3.4069538E-001	-1.2973390E-004
3	0	1.999229939279743E+003	3.4076867E-001	4.2035979E-005
3	0	1.999729939267112E+003	3.4083429E-001	-5.3391734E-005
3	0	2.000229939254481E+003	3.4094262E-001	3.8648941E-006
3	0	2.000729939241850E+003	3.4098259E-001	-5.3391734E-005
3	0	2.001229939229219E+003	3.4092289E-001	-1.2973390E-004
3	0	2.001729939216588E+003	3.4088951E-001	3.8648941E-006
3	0	2.002229939203957E+003	3.4100223E-001	-5.3391734E-005
3	0	2.002729939191326E+003	3.4106714E-001	2.2950437E-005
3	0	2.003229939178695E+003	3.4106472E-001	-9.1562819E-005
3	0	2.003729939166064E+003	3.4100834E-001	4.2035979E-005
3	0	2.004229939153433E+003	3.4091347E-001	3.8648941E-006
3	0	2.004729939140801E+003	3.4072423E-001	-7.2477276E-005
3	0	2.005229939128170E+003	3.4045494E-001	-1.1064836E-004
3	0	2.005729939115539E+003	3.4022290E-001	-9.1562819E-005
3	0	2.006229939102908E+003	3.4016362E-001	2.2950437E-005
3	0	2.006729939090277E+003	3.4007695E-001	-1.5220648E-005
3	0	2.007229939077646E+003	3.3992040E-001	3.8648941E-006
3	0	2.007729939065015E+003	3.3972928E-001	-7.2477276E-005
3	0	2.008229939052384E+003	3.3950153E-001	-1.2973390E-004
3	0	2.008729939039753E+003	3.3923542E-001	-5.3391734E-005
3	0	2.009229939027122E+003	3.3890051E-001	4.2035979E-005
3	0	2.009729939014491E+003	3.3860528E-001	8.0207064E-005
3	0	2.010229939001860E+003	3.3848956E-001	-1.5220648E-005
3	0	2.010729938989229E+003	3.3836728E-001	-5.3391734E-005
3	0	2.011229938976598E+003	3.3818454E-001	-1.5220648E-005
3	0	2.011729938963967E+003	3.3797953E-001	-9.1562819E-005
3	0	2.012229938951336E+003	3.3776408E-001	2.2950437E-005
3	0	2.012729938938704E+003	3.3750015E-001	-5.3391734E-005
3	0	2.013229938926073E+003	3.3716270E-001	4.2035979E-005
3	0	2.013729938913442E+003	3.3686218E-001	-1.2973390E-004
3	0	2.014229938900811E+003	3.3674723E-001	-3.4306191E-005
3	0	2.014729938888180E+003	3.3661774E-001	-1.5220648E-005
3	0	2.015229938875549E+003	3.3642936E-001	3.8648941E-006
3	0	2.015729938862918E+003	3.3620873E-001	4.2035979E-005
3	0	2.016229938850287E+003	3.3599743E-001	3.8648941E-006
3	0	2.016729938837656E+003	3.3573708E-001	3.8648941E-006
3	0	2.017229938825025E+003	3.3542961E-001	-1.5220648E-005
3	0	2.017729938812394E+003	3.3519772E-001	-3.4306191E-005
3	0	2.018229938799763E+003	3.3519933E-001	-7.2477276E-005
3	0	2.018729938787132E+003	3.3526158E-001	3.8648941E-006
3	0	2.019229938774501E+003	3.3531141E-001	-1.4881945E-004
3	0	2.019729938761870E+003	3.3535838E-001	-7.2477276E-005
3	0	2.020229938749239E+003	3.3544910E-001	-3.4306191E-005
3	0	2.020729938736607E+003	3.3549654E-001	-3.4306191E-005
3	0	2.021229938723976E+003	3.3547792E-001	-9.1562819E-005
3	0	2.021729938711345E+003	3.3547956E-001	-3.4306191E-005
3	0	2.022229938698714E+003	3.3561429E-001	-1.5220648E-005
3	0	2.022729938686083E+003	3.3571029E-001	8.0207064E-005
3	0	2.023229938673452E+003	3.3572027E-001	-1.1064836E-004
3	0	2.023729938660821E+003	3.3567074E-001	-1.8699054E-004
3	0	2.024229938648190E+003	3.3557877E-001	-7.2477276E-005
3	0	2.024729938635559E+003	3.3540681E-001	-1.5220648E-005
3	0	2.025229938622928E+003	3.3513814E-001	-1.1064836E-004
3	0	2.025729938610297E+003	3.3488944E-001	-5.3391734E-005
3	0	2.026229938597666E+003	3.3479911E-001	8.0207064E-005
3	0	2.026729938585035E+003	3.3470517E-001	4.2035979E-005
3	0	2.026730338585025E+003	3.3462414E-001	-9.1562819E-005