EC-Lab ASCII FILE
Nb header lines : 48                          

Open Circuit Voltage

Run on channel : 1 (SN 81504)
User : 
CE vs. WE compliance from -10 V to 10 V
Electrode connection : standard
Potential control : Ewe
Ewe ctrl range : min = -2.50 V, max = 2.50 V
Safety Limits :
	Do not start on E overload
Acquisition started on : 05/10/2026 08:28:58.550
Loaded Setting File :  C:\PEM-WE_measurements\2026\372_IV_IV IrOx, 5 min Pt, 30 min C, etched cathode\new station\Loopeis new\1,46 V different time gaps closed cell\Loopeis 1,46V_180s_2_PEIS from 65kHz to 10kHz.mps
Saved on :
	File : L_27_Loopeis 1,46V_180s_2_PEIS from 65kHz to 10kHz_20_OCV_C01.mpr
	Directory : C:\PEM-WE_measurements\2026\372_IV_IV IrOx, 5 min Pt, 30 min C, etched cathode\new station\Loopeis new\1,46 V different time gaps closed cell\
	Host : 192.168.0.2
Device : SP-150e (SN .005491)
Address : 192.168.0.91
EC-LAB for windows v11.71 (software)
Internet server v28.00 (firmware)
Command interpretor v14.01 (firmware)
Electrode material : 
Initial state : 
Electrolyte : 
Comments : 
Current amplifier : SP-150eB-20A
Electrode surface area : 0.001 cm²
Characteristic mass : 0.001 g
Equivalent Weight : 0.000 g/eq.
Density : 0.000 g/cm3
Volume (V) : 0.001 cm³
Record Analogic IN 1
Text export
   Mode : Standard
   Time format : Elapsed
Cycle Definition : Charge/Discharge alternance
tR (h:m:s)          0:03:0.0000         
dER/dt (mV/h)       1.0                 
record              <Ewe>               
dER (mV)            10.00               
dtR (s)             0.5000              
E range min (V)     -2.500              
E range max (V)     2.500               

mode	error	time/s	<Ewe/V>	Analog IN 1/V	
3	0	2.073934140793193E+003	1.1027775E+000	-3.4306191E-005
3	0	2.074434140780562E+003	1.2544510E+000	-5.3391734E-005
3	0	2.074934140767931E+003	1.2421275E+000	-1.2973390E-004
3	0	2.075434140755300E+003	1.2156112E+000	3.8648941E-006
3	0	2.075934140742669E+003	1.1680759E+000	-1.1064836E-004
3	0	2.076434140730038E+003	1.0769036E+000	-1.2973390E-004
3	0	2.076934140717407E+003	7.6355886E-001	-1.5220648E-005
3	0	2.077434140704776E+003	4.3447465E-001	-3.4306191E-005
3	0	2.077934140692145E+003	3.3949611E-001	-3.4306191E-005
3	0	2.078434140679514E+003	3.2350707E-001	-9.1562819E-005
3	0	2.078934140666883E+003	3.2298630E-001	6.1121522E-005
3	0	2.079434140654252E+003	3.2519004E-001	-7.2477276E-005
3	0	2.079934140641621E+003	3.2756570E-001	-9.1562819E-005
3	0	2.080434140628990E+003	3.2938790E-001	-9.1562819E-005
3	0	2.080934140616358E+003	3.3063021E-001	-9.1562819E-005
3	0	2.081434140603727E+003	3.3163220E-001	6.1121522E-005
3	0	2.081934140591096E+003	3.3261076E-001	4.2035979E-005
3	0	2.082434140578465E+003	3.3331919E-001	6.1121522E-005
3	0	2.082934140565834E+003	3.3382368E-001	-3.4306191E-005
3	0	2.083434140553203E+003	3.3425182E-001	-1.1064836E-004
3	0	2.083934140540572E+003	3.3466044E-001	-9.1562819E-005
3	0	2.084434140527941E+003	3.3495781E-001	-5.3391734E-005
3	0	2.084934140515310E+003	3.3516654E-001	-1.5220648E-005
3	0	2.085434140502679E+003	3.3549652E-001	-9.1562819E-005
3	0	2.085934140490048E+003	3.3607695E-001	1.7563478E-004
3	0	2.086434140477417E+003	3.3652833E-001	-1.1064836E-004
3	0	2.086934140464786E+003	3.3684388E-001	-9.1562819E-005
3	0	2.087434140452155E+003	3.3715487E-001	-1.1064836E-004
3	0	2.087934140439524E+003	3.3743379E-001	-1.2973390E-004
3	0	2.088434140426893E+003	3.3764055E-001	-5.3391734E-005
3	0	2.088934140414261E+003	3.3773667E-001	-1.4881945E-004
3	0	2.089434140401630E+003	3.3793679E-001	-7.2477276E-005
3	0	2.089934140388999E+003	3.3839425E-001	2.2950437E-005
3	0	2.090434140376368E+003	3.3868551E-001	9.9292607E-005
3	0	2.090934140363737E+003	3.3892676E-001	2.2950437E-005
3	0	2.091434140351106E+003	3.3915269E-001	-1.1064836E-004
3	0	2.091934140338475E+003	3.3934712E-001	-1.8699054E-004
3	0	2.092434140325844E+003	3.3946550E-001	-1.5220648E-005
3	0	2.092934140313213E+003	3.3949712E-001	-1.5220648E-005
3	0	2.093434140300582E+003	3.3967748E-001	-1.2973390E-004
3	0	2.093934140287951E+003	3.4006703E-001	-5.3391734E-005
3	0	2.094434140275320E+003	3.4024647E-001	2.2950437E-005
3	0	2.094934140262689E+003	3.4039596E-001	4.2035979E-005
3	0	2.095434140250058E+003	3.4052953E-001	-7.2477276E-005
3	0	2.095934140237427E+003	3.4067145E-001	-1.6790499E-004
3	0	2.096434140224796E+003	3.4072265E-001	-5.3391734E-005
3	0	2.096934140212164E+003	3.4069410E-001	-3.4306191E-005
3	0	2.097434140199533E+003	3.4084761E-001	8.0207064E-005
3	0	2.097934140186902E+003	3.4128243E-001	-9.1562819E-005
3	0	2.098434140174271E+003	3.4156302E-001	-1.2973390E-004
3	0	2.098934140161640E+003	3.4188312E-001	6.1121522E-005
3	0	2.099434140149009E+003	3.4223568E-001	-1.6790499E-004
3	0	2.099934140136378E+003	3.4261286E-001	-9.1562819E-005
3	0	2.100434140123747E+003	3.4292015E-001	-9.1562819E-005
3	0	2.100934140111116E+003	3.4319115E-001	-9.1562819E-005
3	0	2.101434140098485E+003	3.4352484E-001	4.2035979E-005
3	0	2.101934140085854E+003	3.4407774E-001	-5.3391734E-005
3	0	2.102434140073223E+003	3.4441096E-001	-7.2477276E-005
3	0	2.102934140060592E+003	3.4467572E-001	-7.2477276E-005
3	0	2.103434140047961E+003	3.4489378E-001	8.0207064E-005
3	0	2.103934140035330E+003	3.4507194E-001	4.2035979E-005
3	0	2.104434140022699E+003	3.4512535E-001	3.8648941E-006
3	0	2.104934140010067E+003	3.4507185E-001	-7.2477276E-005
3	0	2.105434139997436E+003	3.4514797E-001	3.8648941E-006
3	0	2.105934139984805E+003	3.4543449E-001	8.0207064E-005
3	0	2.106434139972174E+003	3.4551591E-001	-7.2477276E-005
3	0	2.106934139959543E+003	3.4555021E-001	-3.4306191E-005
3	0	2.107434139946912E+003	3.4556511E-001	-1.5220648E-005
3	0	2.107934139934281E+003	3.4557065E-001	-1.1064836E-004
3	0	2.108434139921650E+003	3.4549457E-001	-1.4881945E-004
3	0	2.108934139909019E+003	3.4530866E-001	6.1121522E-005
3	0	2.109434139896388E+003	3.4525934E-001	-9.1562819E-005
3	0	2.109934139883757E+003	3.4545988E-001	-5.3391734E-005
3	0	2.110434139871126E+003	3.4544268E-001	-9.1562819E-005
3	0	2.110934139858495E+003	3.4539425E-001	-3.4306191E-005
3	0	2.111434139845864E+003	3.4533936E-001	-1.1064836E-004
3	0	2.111934139833233E+003	3.4525943E-001	8.0207064E-005
3	0	2.112434139820602E+003	3.4509432E-001	-1.5220648E-005
3	0	2.112934139807971E+003	3.4483826E-001	-5.3391734E-005
3	0	2.113434139795339E+003	3.4471807E-001	-1.1064836E-004
3	0	2.113934139782708E+003	3.4484768E-001	-7.2477276E-005
3	0	2.114434139770077E+003	3.4478548E-001	4.2035979E-005
3	0	2.114934139757446E+003	3.4469086E-001	-1.2973390E-004
3	0	2.115434139744815E+003	3.4457904E-001	-1.6790499E-004
3	0	2.115934139732184E+003	3.4448871E-001	2.2950437E-005
3	0	2.116434139719553E+003	3.4425995E-001	-5.3391734E-005
3	0	2.116934139706922E+003	3.4398991E-001	9.9292607E-005
3	0	2.117434139694291E+003	3.4387138E-001	-7.2477276E-005
3	0	2.117934139681660E+003	3.4404364E-001	-5.3391734E-005
3	0	2.118434139669029E+003	3.4409651E-001	3.8648941E-006
3	0	2.118934139656398E+003	3.4418932E-001	-9.1562819E-005
3	0	2.119434139643767E+003	3.4431300E-001	-1.6790499E-004
3	0	2.119934139631136E+003	3.4450540E-001	2.2950437E-005
3	0	2.120434139618505E+003	3.4464130E-001	4.2035979E-005
3	0	2.120934139605874E+003	3.4469214E-001	-1.2973390E-004
3	0	2.121434139593242E+003	3.4485757E-001	6.1121522E-005
3	0	2.121934139580611E+003	3.4522679E-001	3.8648941E-006
3	0	2.122434139567980E+003	3.4539524E-001	-5.3391734E-005
3	0	2.122934139555349E+003	3.4547463E-001	-7.2477276E-005
3	0	2.123434139542718E+003	3.4551230E-001	-7.2477276E-005
3	0	2.123934139530087E+003	3.4551853E-001	2.2950437E-005
3	0	2.124434139517456E+003	3.4542301E-001	-1.1064836E-004
3	0	2.124934139504825E+003	3.4523380E-001	-3.4306191E-005
3	0	2.125434139492194E+003	3.4514174E-001	-1.8699054E-004
3	0	2.125934139479563E+003	3.4528771E-001	4.2035979E-005
3	0	2.126434139466932E+003	3.4522983E-001	-3.4306191E-005
3	0	2.126934139454301E+003	3.4513292E-001	-1.2973390E-004
3	0	2.127434139441670E+003	3.4499612E-001	-1.6790499E-004
3	0	2.127934139429039E+003	3.4486246E-001	2.2950437E-005
3	0	2.128434139416408E+003	3.4460816E-001	4.2035979E-005
3	0	2.128934139403777E+003	3.4427574E-001	-1.1064836E-004
3	0	2.129434139391145E+003	3.4409741E-001	-5.3391734E-005
3	0	2.129934139378514E+003	3.4413525E-001	-1.1064836E-004
3	0	2.130434139365883E+003	3.4400672E-001	-3.4306191E-005
3	0	2.130934139353252E+003	3.4384742E-001	-7.2477276E-005
3	0	2.131434139340621E+003	3.4368080E-001	3.8648941E-006
3	0	2.131934139327990E+003	3.4350502E-001	-1.6790499E-004
3	0	2.132434139315359E+003	3.4325150E-001	-3.4306191E-005
3	0	2.132934139302728E+003	3.4293973E-001	-1.5220648E-005
3	0	2.133434139290097E+003	3.4273875E-001	-1.1064836E-004
3	0	2.133934139277466E+003	3.4277359E-001	-9.1562819E-005
3	0	2.134434139264835E+003	3.4263813E-001	-5.3391734E-005
3	0	2.134934139252204E+003	3.4248427E-001	4.2035979E-005
3	0	2.135434139239573E+003	3.4228644E-001	2.2950437E-005
3	0	2.135934139226942E+003	3.4211117E-001	6.1121522E-005
3	0	2.136434139214311E+003	3.4183830E-001	-1.2973390E-004
3	0	2.136934139201680E+003	3.4153387E-001	-3.4306191E-005
3	0	2.137434139189048E+003	3.4133431E-001	4.2035979E-005
3	0	2.137934139176417E+003	3.4140617E-001	-5.3391734E-005
3	0	2.138434139163786E+003	3.4138149E-001	-5.3391734E-005
3	0	2.138934139151155E+003	3.4139192E-001	-3.4306191E-005
3	0	2.139434139138524E+003	3.4143972E-001	-1.5220648E-005
3	0	2.139934139125893E+003	3.4154290E-001	-3.4306191E-005
3	0	2.140434139113262E+003	3.4160343E-001	-2.2516162E-004
3	0	2.140934139100631E+003	3.4159905E-001	-1.2973390E-004
3	0	2.141434139088000E+003	3.4170234E-001	6.1121522E-005
3	0	2.141934139075369E+003	3.4198764E-001	3.8648941E-006
3	0	2.142434139062738E+003	3.4208202E-001	-7.2477276E-005
3	0	2.142934139050107E+003	3.4209827E-001	-5.3391734E-005
3	0	2.143434139037476E+003	3.4210050E-001	-5.3391734E-005
3	0	2.143934139024845E+003	3.4204561E-001	-1.6790499E-004
3	0	2.144434139012214E+003	3.4188244E-001	-7.2477276E-005
3	0	2.144934138999583E+003	3.4160250E-001	8.0207064E-005
3	0	2.145434138986951E+003	3.4142452E-001	-7.2477276E-005
3	0	2.145934138974320E+003	3.4148794E-001	6.1121522E-005
3	0	2.146434138961689E+003	3.4138536E-001	-1.1064836E-004
3	0	2.146934138949058E+003	3.4124908E-001	-3.4306191E-005
3	0	2.147434138936427E+003	3.4108561E-001	-1.4881945E-004
3	0	2.147934138923796E+003	3.4092298E-001	-1.5220648E-005
3	0	2.148434138911165E+003	3.4066883E-001	3.8648941E-006
3	0	2.148934138898534E+003	3.4033722E-001	-1.5220648E-005
3	0	2.149434138885903E+003	3.4007335E-001	3.8648941E-006
3	0	2.149934138873272E+003	3.4003735E-001	4.2035979E-005
3	0	2.150434138860641E+003	3.3987531E-001	-9.1562819E-005
3	0	2.150934138848010E+003	3.3968550E-001	-9.1562819E-005
3	0	2.151434138835379E+003	3.3948115E-001	-5.3391734E-005
3	0	2.151934138822748E+003	3.3925042E-001	2.2950437E-005
3	0	2.152434138810117E+003	3.3897176E-001	-9.1562819E-005
3	0	2.152934138797486E+003	3.3859366E-001	-2.2516162E-004
3	0	2.153434138784854E+003	3.3833271E-001	-1.5220648E-005
3	0	2.153934138772223E+003	3.3830738E-001	2.2950437E-005
3	0	2.154434138759592E+003	3.3814028E-001	6.1121522E-005
3	0	2.154934138746961E+003	3.3795145E-001	-9.1562819E-005
3	0	2.155434138734330E+003	3.3774823E-001	-9.1562819E-005
3	0	2.155934138721699E+003	3.3753711E-001	-1.4881945E-004
3	0	2.156434138709068E+003	3.3727300E-001	-9.1562819E-005
3	0	2.156934138696437E+003	3.3690405E-001	-5.3391734E-005
3	0	2.157434138683806E+003	3.3664578E-001	-5.3391734E-005
3	0	2.157934138671175E+003	3.3666289E-001	4.2035979E-005
3	0	2.158434138658544E+003	3.3659056E-001	-1.6790499E-004
3	0	2.158934138645913E+003	3.3653942E-001	-5.3391734E-005
3	0	2.159434138633282E+003	3.3654630E-001	3.8648941E-006
3	0	2.159934138620651E+003	3.3659464E-001	2.2950437E-005
3	0	2.160434138608020E+003	3.3662504E-001	2.2950437E-005
3	0	2.160934138595389E+003	3.3660004E-001	3.8648941E-006
3	0	2.161434138582757E+003	3.3664629E-001	-7.2477276E-005
3	0	2.161934138570126E+003	3.3689761E-001	4.2035979E-005
3	0	2.162434138557495E+003	3.3699772E-001	-7.2477276E-005
3	0	2.162934138544864E+003	3.3702624E-001	-3.4306191E-005
3	0	2.163434138532233E+003	3.3701175E-001	4.2035979E-005
3	0	2.163934138519602E+003	3.3695176E-001	-1.2973390E-004
3	0	2.164434138506971E+003	3.3678031E-001	-3.4306191E-005
3	0	2.164934138494340E+003	3.3652234E-001	6.1121522E-005
3	0	2.165434138481709E+003	3.3634216E-001	9.9292607E-005
3	0	2.165934138469078E+003	3.3637086E-001	-3.4306191E-005
3	0	2.166434138456447E+003	3.3626780E-001	-1.1064836E-004
3	0	2.166934138443816E+003	3.3611938E-001	3.8648941E-006
3	0	2.167434138431185E+003	3.3594397E-001	-1.2973390E-004
3	0	2.167934138418554E+003	3.3576059E-001	-5.3391734E-005
3	0	2.168434138405923E+003	3.3549282E-001	-9.1562819E-005
3	0	2.168934138393292E+003	3.3513939E-001	-5.3391734E-005
3	0	2.169434138380660E+003	3.3486745E-001	-3.4306191E-005
3	0	2.169934138368029E+003	3.3482096E-001	-7.2477276E-005
3	0	2.170434138355398E+003	3.3465803E-001	-5.3391734E-005
3	0	2.170934138342767E+003	3.3447799E-001	-1.5220648E-005
3	0	2.171434138330136E+003	3.3427438E-001	4.2035979E-005
3	0	2.171934138317505E+003	3.3404180E-001	-1.5220648E-005
3	0	2.172434138304874E+003	3.3375436E-001	2.2950437E-005
3	0	2.172934138292243E+003	3.3338746E-001	-3.4306191E-005
3	0	2.173434138279612E+003	3.3309510E-001	3.8648941E-006
3	0	2.173934138266981E+003	3.3303705E-001	-7.2477276E-005
3	0	2.174434138254350E+003	3.3287367E-001	-3.4306191E-005
3	0	2.174934138241719E+003	3.3267936E-001	-5.3391734E-005
3	0	2.175434138229088E+003	3.3247039E-001	-3.4306191E-005
3	0	2.175934138216457E+003	3.3224609E-001	1.1837815E-004
3	0	2.176434138203826E+003	3.3195636E-001	2.2950437E-005
3	0	2.176934138191195E+003	3.3160600E-001	-5.3391734E-005
3	0	2.177434138178563E+003	3.3131990E-001	3.8648941E-006
3	0	2.177934138165932E+003	3.3129403E-001	-5.3391734E-005
3	0	2.178434138153301E+003	3.3121073E-001	4.2035979E-005
3	0	2.178934138140670E+003	3.3115691E-001	-7.2477276E-005
3	0	2.179434138128039E+003	3.3116069E-001	-5.3391734E-005
3	0	2.179934138115408E+003	3.3120555E-001	8.0207064E-005
3	0	2.180434138102777E+003	3.3124393E-001	2.2950437E-005
3	0	2.180934138090146E+003	3.3122393E-001	-1.5220648E-005
3	0	2.181434138077515E+003	3.3126751E-001	-1.1064836E-004
3	0	2.181934138064884E+003	3.3150455E-001	-1.8699054E-004
3	0	2.182434138052253E+003	3.3159620E-001	-2.2516162E-004
3	0	2.182934138039622E+003	3.3162114E-001	-1.6790499E-004
3	0	2.183434138026991E+003	3.3158997E-001	3.8648941E-006
3	0	2.183934138014360E+003	3.3154324E-001	-1.1064836E-004
3	0	2.184434138001729E+003	3.3138612E-001	-1.2973390E-004
3	0	2.184934137989098E+003	3.3112931E-001	-1.1064836E-004
3	0	2.185434137976466E+003	3.3092299E-001	-5.3391734E-005
3	0	2.185934137963835E+003	3.3093703E-001	-1.4881945E-004
3	0	2.186434137951204E+003	3.3083600E-001	3.8648941E-006
3	0	2.186934137938573E+003	3.3069286E-001	-5.3391734E-005
3	0	2.187434137925942E+003	3.3051822E-001	-5.3391734E-005
3	0	2.187934137913311E+003	3.3033830E-001	1.1837815E-004
3	0	2.188434137900680E+003	3.3007604E-001	-1.5220648E-005
3	0	2.188934137888049E+003	3.2973948E-001	-7.2477276E-005
3	0	2.189434137875418E+003	3.2948053E-001	-1.5220648E-005
3	0	2.189934137862787E+003	3.2943287E-001	8.0207064E-005
3	0	2.190434137850156E+003	3.2927665E-001	8.0207064E-005
3	0	2.190934137837525E+003	3.2907596E-001	8.0207064E-005
3	0	2.191434137824894E+003	3.2887119E-001	8.0207064E-005
3	0	2.191934137812263E+003	3.2866684E-001	3.8648941E-006
3	0	2.192434137799632E+003	3.2840478E-001	-7.2477276E-005
3	0	2.192934137787001E+003	3.2805330E-001	-1.2973390E-004
3	0	2.193434137774369E+003	3.2776630E-001	-5.3391734E-005
3	0	2.193934137761738E+003	3.2768422E-001	8.0207064E-005
3	0	2.194434137749107E+003	3.2752392E-001	9.9292607E-005
3	0	2.194934137736476E+003	3.2733649E-001	2.2950437E-005
3	0	2.195434137723845E+003	3.2711974E-001	2.2950437E-005
3	0	2.195934137711214E+003	3.2691026E-001	-5.3391734E-005
3	0	2.196434137698583E+003	3.2664415E-001	-7.2477276E-005
3	0	2.196934137685952E+003	3.2630017E-001	-7.2477276E-005
3	0	2.197434137673321E+003	3.2601193E-001	4.2035979E-005
3	0	2.197934137660690E+003	3.2595226E-001	3.8648941E-006
3	0	2.198434137648059E+003	3.2584894E-001	2.2950437E-005
3	0	2.198934137635428E+003	3.2577673E-001	-3.4306191E-005
3	0	2.199434137622797E+003	3.2575080E-001	-1.5220648E-005
3	0	2.199934137610166E+003	3.2576939E-001	4.2035979E-005
3	0	2.200434137597535E+003	3.2578808E-001	-1.4881945E-004
3	0	2.200934137584904E+003	3.2574713E-001	-1.6790499E-004
3	0	2.201434137572272E+003	3.2579952E-001	3.8648941E-006
3	0	2.201934137559641E+003	3.2607016E-001	-1.2973390E-004
3	0	2.202434137547010E+003	3.2623401E-001	3.8648941E-006
3	0	2.202934137534379E+003	3.2632253E-001	8.0207064E-005
3	0	2.203434137521748E+003	3.2635042E-001	3.8648941E-006
3	0	2.203934137509117E+003	3.2635722E-001	-9.1562819E-005
3	0	2.204434137496486E+003	3.2627010E-001	-7.2477276E-005
3	0	2.204934137483855E+003	3.2605842E-001	-3.4306191E-005
3	0	2.205434137471224E+003	3.2588348E-001	9.9292607E-005
3	0	2.205934137458593E+003	3.2588598E-001	-9.1562819E-005
3	0	2.206434137445962E+003	3.2579291E-001	6.1121522E-005
3	0	2.206934137433331E+003	3.2566369E-001	4.2035979E-005
3	0	2.207434137420700E+003	3.2551563E-001	6.1121522E-005
3	0	2.207934137408069E+003	3.2533458E-001	-1.1064836E-004
3	0	2.208434137395438E+003	3.2508177E-001	-3.4306191E-005
3	0	2.208934137382807E+003	3.2475030E-001	-5.3391734E-005
3	0	2.209434137370175E+003	3.2445994E-001	-5.3391734E-005
3	0	2.209934137357544E+003	3.2437849E-001	-1.8699054E-004
3	0	2.210434137344913E+003	3.2422352E-001	8.0207064E-005
3	0	2.210934137332282E+003	3.2403874E-001	-7.2477276E-005
3	0	2.211434137319651E+003	3.2381639E-001	-3.4306191E-005
3	0	2.211934137307020E+003	3.2360709E-001	-1.4881945E-004
3	0	2.212434137294389E+003	3.2332489E-001	-2.2516162E-004
3	0	2.212934137281758E+003	3.2297230E-001	-1.5220648E-005
3	0	2.213434137269127E+003	3.2268485E-001	-1.1064836E-004
3	0	2.213934137256496E+003	3.2260489E-001	-1.1064836E-004
3	0	2.214434137243865E+003	3.2244709E-001	-7.2477276E-005
3	0	2.214934137231234E+003	3.2225597E-001	-9.1562819E-005
3	0	2.215434137218603E+003	3.2206646E-001	-7.2477276E-005
3	0	2.215934137205972E+003	3.2186124E-001	6.1121522E-005
3	0	2.216434137193341E+003	3.2159111E-001	-1.8699054E-004
3	0	2.216934137180710E+003	3.2124907E-001	-9.1562819E-005
3	0	2.217434137168078E+003	3.2095113E-001	-9.1562819E-005
3	0	2.217934137155447E+003	3.2086846E-001	-9.1562819E-005
3	0	2.218434137142816E+003	3.2074144E-001	-1.2973390E-004
3	0	2.218934137130185E+003	3.2063678E-001	-9.1562819E-005
3	0	2.219434137117554E+003	3.2057086E-001	-5.3391734E-005
3	0	2.219934137104923E+003	3.2053667E-001	8.0207064E-005
3	0	2.220434137092292E+003	3.2043359E-001	8.0207064E-005
3	0	2.220934137079661E+003	3.2023633E-001	4.2035979E-005
3	0	2.221434137067030E+003	3.2007220E-001	-5.3391734E-005
3	0	2.221934137054399E+003	3.2008392E-001	-1.5220648E-005
3	0	2.222434137041768E+003	3.2001346E-001	3.8648941E-006
3	0	2.222934137029137E+003	3.1989303E-001	-7.2477276E-005
3	0	2.223434137016506E+003	3.1974822E-001	1.1837815E-004
3	0	2.223934137003875E+003	3.1958452E-001	-7.2477276E-005
3	0	2.224434136991244E+003	3.1936383E-001	-1.2973390E-004
3	0	2.224934136978613E+003	3.1908676E-001	-5.3391734E-005
3	0	2.225434136965981E+003	3.1886369E-001	-1.1064836E-004
3	0	2.225934136953350E+003	3.1881288E-001	-5.3391734E-005
3	0	2.226434136940719E+003	3.1868401E-001	-1.5220648E-005
3	0	2.226934136928088E+003	3.1852156E-001	-1.4881945E-004
3	0	2.227434136915457E+003	3.1835029E-001	-3.4306191E-005
3	0	2.227934136902826E+003	3.1817135E-001	2.2950437E-005
3	0	2.228434136890195E+003	3.1795353E-001	-1.4881945E-004
3	0	2.228934136877564E+003	3.1766143E-001	4.2035979E-005
3	0	2.229434136864933E+003	3.1739941E-001	4.2035979E-005
3	0	2.229934136852302E+003	3.1732765E-001	-7.2477276E-005
3	0	2.230434136839671E+003	3.1718558E-001	-7.2477276E-005
3	0	2.230934136827040E+003	3.1701985E-001	-7.2477276E-005
3	0	2.231434136814409E+003	3.1683928E-001	2.2950437E-005
3	0	2.231934136801778E+003	3.1665784E-001	-1.8699054E-004
3	0	2.232434136789147E+003	3.1642592E-001	-3.4306191E-005
3	0	2.232934136776516E+003	3.1612924E-001	-9.1562819E-005
3	0	2.233434136763884E+003	3.1587484E-001	9.9292607E-005
3	0	2.233934136751253E+003	3.1579271E-001	-1.2973390E-004
3	0	2.234434136738622E+003	3.1567037E-001	-5.3391734E-005
3	0	2.234934136725991E+003	3.1552619E-001	2.2950437E-005
3	0	2.235434136713360E+003	3.1537339E-001	-7.2477276E-005
3	0	2.235934136700729E+003	3.1519735E-001	2.2950437E-005
3	0	2.236434136688098E+003	3.1498700E-001	-1.1064836E-004
3	0	2.236934136675467E+003	3.1470969E-001	-7.2477276E-005
3	0	2.237434136662836E+003	3.1446737E-001	-5.3391734E-005
3	0	2.237934136650205E+003	3.1440878E-001	-5.3391734E-005
3	0	2.238434136637574E+003	3.1430435E-001	6.1121522E-005
3	0	2.238934136624943E+003	3.1423259E-001	-5.3391734E-005
3	0	2.239434136612312E+003	3.1419051E-001	6.1121522E-005
3	0	2.239934136599681E+003	3.1420043E-001	6.1121522E-005
3	0	2.240434136587050E+003	3.1421220E-001	-5.3391734E-005
3	0	2.240934136574419E+003	3.1419754E-001	3.8648941E-006
3	0	2.241434136561787E+003	3.1424588E-001	3.8648941E-006
3	0	2.241934136549156E+003	3.1449252E-001	-3.4306191E-005
3	0	2.242434136536525E+003	3.1469667E-001	2.2950437E-005
3	0	2.242934136523894E+003	3.1483358E-001	-7.2477276E-005
3	0	2.243434136511263E+003	3.1493068E-001	6.1121522E-005
3	0	2.243934136498632E+003	3.1498691E-001	2.2950437E-005
3	0	2.244434136486001E+003	3.1495920E-001	-1.6790499E-004
3	0	2.244934136473370E+003	3.1482124E-001	8.0207064E-005
3	0	2.245434136460739E+003	3.1468263E-001	-1.1064836E-004
3	0	2.245934136448108E+003	3.1469727E-001	-2.0607607E-004
3	0	2.246434136435477E+003	3.1464523E-001	2.2950437E-005
3	0	2.246934136422846E+003	3.1454024E-001	-1.1064836E-004
3	0	2.247434136410215E+003	3.1442896E-001	3.8648941E-006
3	0	2.247934136397584E+003	3.1429070E-001	-3.4306191E-005
3	0	2.248434136384953E+003	3.1409091E-001	2.2950437E-005
3	0	2.248934136372322E+003	3.1378946E-001	2.2950437E-005
3	0	2.249434136359690E+003	3.1353039E-001	-1.6790499E-004
3	0	2.249934136347059E+003	3.1343493E-001	3.8648941E-006
3	0	2.250434136334428E+003	3.1327829E-001	4.2035979E-005
3	0	2.250934136321797E+003	3.1308687E-001	3.8648941E-006
3	0	2.251434136309166E+003	3.1289908E-001	9.9292607E-005
3	0	2.251934136296535E+003	3.1270099E-001	-1.1064836E-004
3	0	2.252434136283904E+003	3.1244996E-001	-3.4306191E-005
3	0	2.252934136271273E+003	3.1214303E-001	-7.2477276E-005
3	0	2.253434136258642E+003	3.1185800E-001	-3.4306191E-005
3	0	2.253469136257758E+003	3.1179085E-001	-1.5220648E-005