EC-Lab ASCII FILE
Nb header lines : 55                          

Open Circuit Voltage

Run on channel : 1 (SN 81504)
User : 
CE vs. WE compliance from -10 V to 10 V
Electrode connection : standard
Potential control : Ewe
Ewe ctrl range : min = -2.50 V, max = 2.50 V
Safety Limits :
	Do not start on E overload
Acquisition started on : 05/10/2026 09:06:36.404
Loaded Setting File :  C:\PEM-WE_measurements\2026\372_IV_IV IrOx, 5 min Pt, 30 min C, etched cathode\new station\Loopeis new\1,46 V different time gaps closed cell\Loopeis 1,46V_180s_3_PEIS from 6500Hz to 1000Hz.mps
Saved on :
	File : L_28_Loopeis 1,46V_180s_3_PEIS from 6500Hz to 1000Hz_04_OCV_C01.mpr
	Directory : C:\PEM-WE_measurements\2026\372_IV_IV IrOx, 5 min Pt, 30 min C, etched cathode\new station\Loopeis new\1,46 V different time gaps closed cell\
	Host : 192.168.0.2
Device : SP-150e (SN .005491)
Address : 192.168.0.91
EC-LAB for windows v11.71 (software)
Internet server v28.00 (firmware)
Command interpretor v14.01 (firmware)
Electrode material : 
Initial state : 
Electrolyte : 
Comments : 
Current amplifier : SP-150eB-20A
Electrode surface area : 0.001 cm²
Characteristic mass : 0.001 g
Equivalent Weight : 0.000 g/eq.
Density : 0.000 g/cm3
Volume (V) : 0.001 cm³
Record Analogic IN 1
Text export
   Mode : Standard
   Time format : Elapsed
Cycle Definition : Charge/Discharge alternance
External device configuration :
   device type : Temperature Probe
   device name : Other
   Analog IN 1 : 
      unit : T/Â°C
      max : 100.000 at 2.000 V
      min : 0.000 at 1.460 V
tR (h:m:s)          0:03:0.0000         
dER/dt (mV/h)       1.0                 
record              <Ewe>               
dER (mV)            10.00               
dtR (s)             0.5000              
E range min (V)     -2.500              
E range max (V)     2.500               

mode	error	time/s	<Ewe/V>	Analog IN 1/V	
3	0	2.704445964399929E+002	1.1056719E+000	-2.7039447E+002
3	0	2.709445964273618E+002	1.2541232E+000	-2.7039093E+002
3	0	2.714445964147308E+002	1.2414373E+000	-2.7039447E+002
3	0	2.719445964020997E+002	1.2145917E+000	-2.7036972E+002
3	0	2.724445963894686E+002	1.1670583E+000	-2.7037326E+002
3	0	2.729445963768376E+002	1.0762980E+000	-2.7038385E+002
3	0	2.734445963642065E+002	7.5891995E-001	-2.7038385E+002
3	0	2.739445963515755E+002	4.3066067E-001	-2.7036972E+002
3	0	2.744445963389444E+002	3.3879498E-001	-2.7036618E+002
3	0	2.749445963263133E+002	3.2384896E-001	-2.7034851E+002
3	0	2.754445963136823E+002	3.2328939E-001	-2.7039447E+002
3	0	2.759445963010512E+002	3.2516283E-001	-2.7038385E+002
3	0	2.764445962884201E+002	3.2723492E-001	-2.7037326E+002
3	0	2.769445962757891E+002	3.2906497E-001	-2.7037326E+002
3	0	2.774445962631580E+002	3.3022174E-001	-2.7038385E+002
3	0	2.779445962505270E+002	3.3093402E-001	-2.7036267E+002
3	0	2.784445962378959E+002	3.3146274E-001	-2.7039801E+002
3	0	2.789445962252648E+002	3.3184281E-001	-2.7039447E+002
3	0	2.794445962126338E+002	3.3208209E-001	-2.7036618E+002
3	0	2.799445962000027E+002	3.3220848E-001	-2.7036618E+002
3	0	2.804445961873716E+002	3.3251914E-001	-2.7036972E+002
3	0	2.809445961747406E+002	3.3305117E-001	-2.7036267E+002
3	0	2.814445961621095E+002	3.3342436E-001	-2.7038385E+002
3	0	2.819445961494785E+002	3.3370316E-001	-2.7035559E+002
3	0	2.824445961368474E+002	3.3397651E-001	-2.7039093E+002
3	0	2.829445961242163E+002	3.3427253E-001	-2.7038385E+002
3	0	2.834445961115853E+002	3.3453187E-001	-2.7036972E+002
3	0	2.839445960989542E+002	3.3471310E-001	-2.7038385E+002
3	0	2.844445960863231E+002	3.3508721E-001	-2.7037677E+002
3	0	2.849445960736921E+002	3.3579543E-001	-2.7038385E+002
3	0	2.854445960610610E+002	3.3641371E-001	-2.7039447E+002
3	0	2.859445960484300E+002	3.3697125E-001	-2.7037677E+002
3	0	2.864445960357989E+002	3.3752036E-001	-2.7037326E+002
3	0	2.869445960231678E+002	3.3804280E-001	-2.7038742E+002
3	0	2.874445960105368E+002	3.3844852E-001	-2.7038385E+002
3	0	2.879445959979057E+002	3.3878261E-001	-2.7037326E+002
3	0	2.884445959852746E+002	3.3916789E-001	-2.7037326E+002
3	0	2.889445959726436E+002	3.3977297E-001	-2.7038031E+002
3	0	2.894445959600125E+002	3.4025294E-001	-2.7038385E+002
3	0	2.899445959473815E+002	3.4059894E-001	-2.7036972E+002
3	0	2.904445959347504E+002	3.4086829E-001	-2.7037326E+002
3	0	2.909445959221193E+002	3.4112182E-001	-2.7036972E+002
3	0	2.914445959094883E+002	3.4126881E-001	-2.7037326E+002
3	0	2.919445958968572E+002	3.4130225E-001	-2.7039801E+002
3	0	2.924445958842261E+002	3.4146139E-001	-2.7037677E+002
3	0	2.929445958715951E+002	3.4185585E-001	-2.7036267E+002
3	0	2.934445958589640E+002	3.4214750E-001	-2.7035913E+002
3	0	2.939445958463330E+002	3.4231418E-001	-2.7039093E+002
3	0	2.944445958337019E+002	3.4244403E-001	-2.7040155E+002
3	0	2.949445958210708E+002	3.4258801E-001	-2.7037677E+002
3	0	2.954445958084398E+002	3.4260032E-001	-2.7038385E+002
3	0	2.959445957958087E+002	3.4255257E-001	-2.7039447E+002
3	0	2.964445957831776E+002	3.4258822E-001	-2.7039447E+002
3	0	2.969445957705466E+002	3.4288415E-001	-2.7040155E+002
3	0	2.974445957579155E+002	3.4306273E-001	-2.7038742E+002
3	0	2.979445957452845E+002	3.4313971E-001	-2.7038385E+002
3	0	2.984445957326534E+002	3.4315479E-001	-2.7036267E+002
3	0	2.989445957200223E+002	3.4319872E-001	-2.7038031E+002
3	0	2.994445957073913E+002	3.4311834E-001	-2.7035913E+002
3	0	2.999445956947602E+002	3.4298533E-001	-2.7040506E+002
3	0	3.004445956821291E+002	3.4294021E-001	-2.7036972E+002
3	0	3.009445956694981E+002	3.4318316E-001	-2.7038385E+002
3	0	3.014445956568670E+002	3.4333375E-001	-2.7037677E+002
3	0	3.019445956442360E+002	3.4337941E-001	-2.7034851E+002
3	0	3.024445956316049E+002	3.4337384E-001	-2.7037326E+002
3	0	3.029445956189738E+002	3.4339052E-001	-2.7038031E+002
3	0	3.034445956063428E+002	3.4330380E-001	-2.7036972E+002
3	0	3.039445955937117E+002	3.4321868E-001	-2.7037677E+002
3	0	3.044445955810806E+002	3.4330350E-001	-2.7035913E+002
3	0	3.049445955684496E+002	3.4369904E-001	-2.7039801E+002
3	0	3.054445955558185E+002	3.4403989E-001	-2.7037326E+002
3	0	3.059445955431875E+002	3.4434325E-001	-2.7036972E+002
3	0	3.064445955305564E+002	3.4464180E-001	-2.7037677E+002
3	0	3.069445955179253E+002	3.4494364E-001	-2.7038385E+002
3	0	3.074445955052943E+002	3.4510615E-001	-2.7039447E+002
3	0	3.079445954926632E+002	3.4515622E-001	-2.7038031E+002
3	0	3.084445954800321E+002	3.4526464E-001	-2.7038742E+002
3	0	3.089445954674011E+002	3.4559759E-001	-2.7037677E+002
3	0	3.094445954547700E+002	3.4580511E-001	-2.7036267E+002
3	0	3.099445954421390E+002	3.4587675E-001	-2.7038742E+002
3	0	3.104445954295079E+002	3.4588373E-001	-2.7037677E+002
3	0	3.109445954168768E+002	3.4589401E-001	-2.7038031E+002
3	0	3.114445954042458E+002	3.4580603E-001	-2.7036618E+002
3	0	3.119445953916147E+002	3.4563163E-001	-2.7038385E+002
3	0	3.124445953789836E+002	3.4551895E-001	-2.7039801E+002
3	0	3.129445953663526E+002	3.4566286E-001	-2.7038742E+002
3	0	3.134445953537215E+002	3.4572470E-001	-2.7036972E+002
3	0	3.139445953410905E+002	3.4565821E-001	-2.7037326E+002
3	0	3.144445953284594E+002	3.4558487E-001	-2.7040860E+002
3	0	3.149445953158283E+002	3.4546864E-001	-2.7036618E+002
3	0	3.154445953031973E+002	3.4529233E-001	-2.7037677E+002
3	0	3.159445952905662E+002	3.4501845E-001	-2.7039801E+002
3	0	3.164445952779352E+002	3.4485409E-001	-2.7036618E+002
3	0	3.169445952653041E+002	3.4492341E-001	-2.7037326E+002
3	0	3.174445952526730E+002	3.4491414E-001	-2.7040155E+002
3	0	3.179445952400420E+002	3.4481266E-001	-2.7037326E+002
3	0	3.184445952274109E+002	3.4467465E-001	-2.7038742E+002
3	0	3.189445952147798E+002	3.4454054E-001	-2.7037677E+002
3	0	3.194445952021488E+002	3.4432814E-001	-2.7035205E+002
3	0	3.199445951895177E+002	3.4400570E-001	-2.7036972E+002
3	0	3.204445951768867E+002	3.4378552E-001	-2.7039093E+002
3	0	3.209445951642556E+002	3.4382597E-001	-2.7038385E+002
3	0	3.214445951516245E+002	3.4377909E-001	-2.7035559E+002
3	0	3.219445951389935E+002	3.4364516E-001	-2.7038031E+002
3	0	3.224445951263624E+002	3.4349230E-001	-2.7039447E+002
3	0	3.229445951137313E+002	3.4334072E-001	-2.7039093E+002
3	0	3.234445951011003E+002	3.4313852E-001	-2.7038385E+002
3	0	3.239445950884692E+002	3.4290826E-001	-2.7037326E+002
3	0	3.244445950758382E+002	3.4280902E-001	-2.7038031E+002
3	0	3.249445950632071E+002	3.4303263E-001	-2.7036972E+002
3	0	3.254445950505760E+002	3.4325820E-001	-2.7038385E+002
3	0	3.259445950379450E+002	3.4341702E-001	-2.7040860E+002
3	0	3.264445950253139E+002	3.4360680E-001	-2.7038385E+002
3	0	3.269445950126828E+002	3.4373772E-001	-2.7036618E+002
3	0	3.274445950000518E+002	3.4381825E-001	-2.7037326E+002
3	0	3.279445949874207E+002	3.4375682E-001	-2.7038031E+002
3	0	3.284445949747897E+002	3.4376815E-001	-2.7037677E+002
3	0	3.289445949621586E+002	3.4398288E-001	-2.7036267E+002
3	0	3.294445949495275E+002	3.4409443E-001	-2.7036972E+002
3	0	3.299445949368965E+002	3.4409401E-001	-2.7038385E+002
3	0	3.304445949242654E+002	3.4404138E-001	-2.7037677E+002
3	0	3.309445949116343E+002	3.4394985E-001	-2.7037677E+002
3	0	3.314445948990033E+002	3.4377098E-001	-2.7040155E+002
3	0	3.319445948863722E+002	3.4346241E-001	-2.7040155E+002
3	0	3.324445948737412E+002	3.4325990E-001	-2.7038031E+002
3	0	3.329445948611101E+002	3.4330258E-001	-2.7037326E+002
3	0	3.334445948484790E+002	3.4328163E-001	-2.7036618E+002
3	0	3.339445948358480E+002	3.4314576E-001	-2.7038031E+002
3	0	3.344445948232169E+002	3.4298840E-001	-2.7039447E+002
3	0	3.349445948105858E+002	3.4282058E-001	-2.7037326E+002
3	0	3.354445947979548E+002	3.4256017E-001	-2.7038385E+002
3	0	3.359445947853237E+002	3.4222803E-001	-2.7036972E+002
3	0	3.364445947726927E+002	3.4195313E-001	-2.7039093E+002
3	0	3.369445947600616E+002	3.4193131E-001	-2.7040506E+002
3	0	3.374445947474305E+002	3.4185117E-001	-2.7038385E+002
3	0	3.379445947347995E+002	3.4168556E-001	-2.7037326E+002
3	0	3.384445947221684E+002	3.4148771E-001	-2.7038742E+002
3	0	3.389445947095373E+002	3.4127733E-001	-2.7039801E+002
3	0	3.394445946969063E+002	3.4097072E-001	-2.7037326E+002
3	0	3.399445946842752E+002	3.4058368E-001	-2.7036618E+002
3	0	3.404445946716442E+002	3.4029505E-001	-2.7035559E+002
3	0	3.409445946590131E+002	3.4026730E-001	-2.7037677E+002
3	0	3.414445946463820E+002	3.4018546E-001	-2.7036618E+002
3	0	3.419445946337510E+002	3.4001940E-001	-2.7036267E+002
3	0	3.424445946211199E+002	3.3981767E-001	-2.7039447E+002
3	0	3.429445946084888E+002	3.3964100E-001	-2.7036972E+002
3	0	3.434445945958578E+002	3.3940995E-001	-2.7037677E+002
3	0	3.439445945832267E+002	3.3911356E-001	-2.7037677E+002
3	0	3.444445945705957E+002	3.3895254E-001	-2.7036972E+002
3	0	3.449445945579646E+002	3.3911079E-001	-2.7038742E+002
3	0	3.454445945453335E+002	3.3926809E-001	-2.7038031E+002
3	0	3.459445945327025E+002	3.3938262E-001	-2.7039447E+002
3	0	3.464445945200714E+002	3.3951497E-001	-2.7036267E+002
3	0	3.469445945074403E+002	3.3964828E-001	-2.7038742E+002
3	0	3.474445944948093E+002	3.3971184E-001	-2.7035913E+002
3	0	3.479445944821782E+002	3.3963996E-001	-2.7037677E+002
3	0	3.484445944695472E+002	3.3961013E-001	-2.7038742E+002
3	0	3.489445944569161E+002	3.3978778E-001	-2.7036972E+002
3	0	3.494445944442850E+002	3.3989811E-001	-2.7038031E+002
3	0	3.499445944316540E+002	3.3989209E-001	-2.7038031E+002
3	0	3.504445944190229E+002	3.3982822E-001	-2.7039801E+002
3	0	3.509445944063918E+002	3.3971530E-001	-2.7038742E+002
3	0	3.514445943937608E+002	3.3952183E-001	-2.7038742E+002
3	0	3.519445943811297E+002	3.3920753E-001	-2.7039447E+002
3	0	3.524445943684987E+002	3.3897442E-001	-2.7036972E+002
3	0	3.529445943558676E+002	3.3895522E-001	-2.7037326E+002
3	0	3.534445943432365E+002	3.3887234E-001	-2.7038385E+002
3	0	3.539445943306055E+002	3.3871266E-001	-2.7036618E+002
3	0	3.544445943179744E+002	3.3852997E-001	-2.7038031E+002
3	0	3.549445943053433E+002	3.3833581E-001	-2.7038742E+002
3	0	3.554445942927123E+002	3.3806905E-001	-2.7039447E+002
3	0	3.559445942800812E+002	3.3769950E-001	-2.7038742E+002
3	0	3.564445942674502E+002	3.3740291E-001	-2.7039447E+002
3	0	3.569445942548191E+002	3.3734798E-001	-2.7037326E+002
3	0	3.574445942421880E+002	3.3725795E-001	-2.7041214E+002
3	0	3.579445942295570E+002	3.3708084E-001	-2.7036267E+002
3	0	3.584445942169259E+002	3.3686727E-001	-2.7037326E+002
3	0	3.589445942042948E+002	3.3664319E-001	-2.7036972E+002
3	0	3.594445941916638E+002	3.3634704E-001	-2.7038385E+002
3	0	3.599445941790327E+002	3.3596724E-001	-2.7038742E+002
3	0	3.604445941664017E+002	3.3565950E-001	-2.7035559E+002
3	0	3.609445941537706E+002	3.3559543E-001	-2.7039093E+002
3	0	3.614445941411395E+002	3.3551857E-001	-2.7042273E+002
3	0	3.619445941285085E+002	3.3536065E-001	-2.7037326E+002
3	0	3.624445941158774E+002	3.3515978E-001	-2.7040155E+002
3	0	3.629445941032463E+002	3.3493179E-001	-2.7038385E+002
3	0	3.634445940906153E+002	3.3466056E-001	-2.7040506E+002
3	0	3.639445940779842E+002	3.3433500E-001	-2.7038385E+002
3	0	3.644445940653532E+002	3.3410823E-001	-2.7038385E+002
3	0	3.649445940527221E+002	3.3419210E-001	-2.7035559E+002
3	0	3.654445940400910E+002	3.3429980E-001	-2.7038742E+002
3	0	3.659445940274600E+002	3.3437681E-001	-2.7037677E+002
3	0	3.664445940148289E+002	3.3444080E-001	-2.7036972E+002
3	0	3.669445940021978E+002	3.3456191E-001	-2.7036267E+002
3	0	3.674445939895668E+002	3.3461526E-001	-2.7039447E+002
3	0	3.679445939769357E+002	3.3456284E-001	-2.7038031E+002
3	0	3.684445939643047E+002	3.3451951E-001	-2.7037677E+002
3	0	3.689445939516736E+002	3.3467939E-001	-2.7039447E+002
3	0	3.694445939390425E+002	3.3477834E-001	-2.7038742E+002
3	0	3.699445939264115E+002	3.3474794E-001	-2.7036972E+002
3	0	3.704445939137804E+002	3.3466130E-001	-2.7037677E+002
3	0	3.709445939011493E+002	3.3455926E-001	-2.7036267E+002
3	0	3.714445938885183E+002	3.3433926E-001	-2.7037677E+002
3	0	3.719445938758872E+002	3.3404610E-001	-2.7039447E+002
3	0	3.724445938632562E+002	3.3382022E-001	-2.7039093E+002
3	0	3.729445938506251E+002	3.3379513E-001	-2.7039801E+002
3	0	3.734445938379940E+002	3.3371642E-001	-2.7036972E+002
3	0	3.739445938253630E+002	3.3355132E-001	-2.7036267E+002
3	0	3.744445938127319E+002	3.3337599E-001	-2.7036618E+002
3	0	3.749445938001008E+002	3.3314779E-001	-2.7038385E+002
3	0	3.754445937874698E+002	3.3288366E-001	-2.7038031E+002
3	0	3.759445937748387E+002	3.3253723E-001	-2.7040506E+002
3	0	3.764445937622077E+002	3.3226576E-001	-2.7036972E+002
3	0	3.769445937495766E+002	3.3219701E-001	-2.7036267E+002
3	0	3.774445937369455E+002	3.3207887E-001	-2.7037326E+002
3	0	3.779445937243145E+002	3.3188319E-001	-2.7039447E+002
3	0	3.784445937116834E+002	3.3168203E-001	-2.7038031E+002
3	0	3.789445936990523E+002	3.3147267E-001	-2.7037677E+002
3	0	3.794445936864213E+002	3.3121240E-001	-2.7036618E+002
3	0	3.799445936737902E+002	3.3085915E-001	-2.7034497E+002
3	0	3.804445936611592E+002	3.3057109E-001	-2.7038031E+002
3	0	3.809445936485281E+002	3.3049446E-001	-2.7038385E+002
3	0	3.814445936358970E+002	3.3037564E-001	-2.7037677E+002
3	0	3.819445936232660E+002	3.3018315E-001	-2.7039093E+002
3	0	3.824445936106349E+002	3.2996467E-001	-2.7038385E+002
3	0	3.829445935980038E+002	3.2974094E-001	-2.7038031E+002
3	0	3.834445935853728E+002	3.2945007E-001	-2.7036972E+002
3	0	3.839445935727417E+002	3.2911035E-001	-2.7038385E+002
3	0	3.844445935601107E+002	3.2888633E-001	-2.7037677E+002
3	0	3.849445935474796E+002	3.2893795E-001	-2.7038385E+002
3	0	3.854445935348485E+002	3.2902977E-001	-2.7039093E+002
3	0	3.859445935222175E+002	3.2911026E-001	-2.7036972E+002
3	0	3.864445935095864E+002	3.2921478E-001	-2.7038031E+002
3	0	3.869445934969553E+002	3.2933408E-001	-2.7035559E+002
3	0	3.874445934843243E+002	3.2939804E-001	-2.7039093E+002
3	0	3.879445934716932E+002	3.2937649E-001	-2.7036972E+002
3	0	3.884445934590622E+002	3.2934725E-001	-2.7038031E+002
3	0	3.889445934464311E+002	3.2950655E-001	-2.7038385E+002
3	0	3.894445934338000E+002	3.2959804E-001	-2.7038385E+002
3	0	3.899445934211690E+002	3.2958531E-001	-2.7037677E+002
3	0	3.904445934085379E+002	3.2951781E-001	-2.7037677E+002
3	0	3.909445933959069E+002	3.2940727E-001	-2.7038385E+002
3	0	3.914445933832758E+002	3.2920173E-001	-2.7038742E+002
3	0	3.919445933706447E+002	3.2891357E-001	-2.7035913E+002
3	0	3.924445933580137E+002	3.2867557E-001	-2.7039093E+002
3	0	3.929445933453826E+002	3.2864451E-001	-2.7038742E+002
3	0	3.934445933327515E+002	3.2855818E-001	-2.7036972E+002
3	0	3.939445933201205E+002	3.2839024E-001	-2.7039093E+002
3	0	3.944445933074894E+002	3.2818300E-001	-2.7038385E+002
3	0	3.949445932948584E+002	3.2795119E-001	-2.7036618E+002
3	0	3.954445932822273E+002	3.2764813E-001	-2.7038742E+002
3	0	3.959445932695962E+002	3.2731479E-001	-2.7036618E+002
3	0	3.964445932569652E+002	3.2700986E-001	-2.7037326E+002
3	0	3.969445932443341E+002	3.2691491E-001	-2.7037677E+002
3	0	3.974445932317030E+002	3.2678241E-001	-2.7038031E+002
3	0	3.979445932190720E+002	3.2658243E-001	-2.7038031E+002
3	0	3.984445932064409E+002	3.2636076E-001	-2.7037326E+002
3	0	3.989445931938099E+002	3.2613146E-001	-2.7037326E+002
3	0	3.994445931811788E+002	3.2580885E-001	-2.7037326E+002
3	0	3.999445931685477E+002	3.2546231E-001	-2.7037326E+002
3	0	4.004445931559167E+002	3.2515457E-001	-2.7037677E+002
3	0	4.009445931432856E+002	3.2506588E-001	-2.7038742E+002
3	0	4.014445931306545E+002	3.2494116E-001	-2.7035205E+002
3	0	4.019445931180235E+002	3.2475370E-001	-2.7039801E+002
3	0	4.024445931053924E+002	3.2453561E-001	-2.7040506E+002
3	0	4.029445930927614E+002	3.2430094E-001	-2.7036972E+002
3	0	4.034445930801303E+002	3.2402346E-001	-2.7038031E+002
3	0	4.039445930674992E+002	3.2370266E-001	-2.7038742E+002
3	0	4.044445930548682E+002	3.2346764E-001	-2.7039801E+002
3	0	4.049445930422371E+002	3.2348409E-001	-2.7039093E+002
3	0	4.054445930296060E+002	3.2354096E-001	-2.7038385E+002
3	0	4.059445930169750E+002	3.2358786E-001	-2.7038742E+002
3	0	4.064445930043439E+002	3.2364100E-001	-2.7036972E+002
3	0	4.069445929917129E+002	3.2372406E-001	-2.7038742E+002
3	0	4.074445929790818E+002	3.2378760E-001	-2.7038742E+002
3	0	4.079445929664507E+002	3.2377946E-001	-2.7038742E+002
3	0	4.084445929538197E+002	3.2378319E-001	-2.7038385E+002
3	0	4.089445929411886E+002	3.2394037E-001	-2.7038385E+002
3	0	4.094445929285575E+002	3.2403946E-001	-2.7038742E+002
3	0	4.099445929159265E+002	3.2402653E-001	-2.7038031E+002
3	0	4.104445929032954E+002	3.2397401E-001	-2.7039447E+002
3	0	4.109445928906644E+002	3.2387963E-001	-2.7036972E+002
3	0	4.114445928780333E+002	3.2370156E-001	-2.7037677E+002
3	0	4.119445928654022E+002	3.2342204E-001	-2.7036267E+002
3	0	4.124445928527712E+002	3.2317907E-001	-2.7035559E+002
3	0	4.129445928401401E+002	3.2312909E-001	-2.7039093E+002
3	0	4.134445928275090E+002	3.2304826E-001	-2.7035559E+002
3	0	4.139445928148780E+002	3.2288459E-001	-2.7037326E+002
3	0	4.144445928022469E+002	3.2269970E-001	-2.7038742E+002
3	0	4.149445927896159E+002	3.2251656E-001	-2.7038031E+002
3	0	4.154445927769848E+002	3.2225868E-001	-2.7039093E+002
3	0	4.159445927643537E+002	3.2192111E-001	-2.7039093E+002
3	0	4.164445927517227E+002	3.2161632E-001	-2.7036618E+002
3	0	4.169445927390916E+002	3.2151854E-001	-2.7040860E+002
3	0	4.174445927264605E+002	3.2140025E-001	-2.7036267E+002
3	0	4.179445927138295E+002	3.2120359E-001	-2.7036972E+002
3	0	4.184445927011984E+002	3.2096866E-001	-2.7033438E+002
3	0	4.189445926885674E+002	3.2075116E-001	-2.7038385E+002
3	0	4.194445926759363E+002	3.2048187E-001	-2.7036618E+002
3	0	4.199445926633052E+002	3.2015350E-001	-2.7037326E+002
3	0	4.204445926506742E+002	3.1983349E-001	-2.7037326E+002
3	0	4.209445926380431E+002	3.1971404E-001	-2.7037677E+002
3	0	4.214445926254120E+002	3.1960571E-001	-2.7036972E+002
3	0	4.219445926127810E+002	3.1943008E-001	-2.7038742E+002
3	0	4.224445926001499E+002	3.1922522E-001	-2.7035559E+002
3	0	4.229445925875189E+002	3.1903219E-001	-2.7039801E+002
3	0	4.234445925748878E+002	3.1876740E-001	-2.7035205E+002
3	0	4.239445925622567E+002	3.1843355E-001	-2.7038385E+002
3	0	4.244445925496257E+002	3.1818408E-001	-2.7038385E+002
3	0	4.249445925369946E+002	3.1817904E-001	-2.7036972E+002
3	0	4.254445925243635E+002	3.1822580E-001	-2.7037326E+002
3	0	4.259445925117325E+002	3.1826091E-001	-2.7035205E+002
3	0	4.264445924991014E+002	3.1834081E-001	-2.7037326E+002
3	0	4.269445924864704E+002	3.1844223E-001	-2.7036618E+002
3	0	4.274445924738393E+002	3.1851226E-001	-2.7037326E+002
3	0	4.279445924612082E+002	3.1849059E-001	-2.7037326E+002
3	0	4.284445924485772E+002	3.1848934E-001	-2.7036267E+002
3	0	4.289445924359461E+002	3.1865293E-001	-2.7039447E+002
3	0	4.294445924233150E+002	3.1876636E-001	-2.7036618E+002
3	0	4.299445924106840E+002	3.1877524E-001	-2.7038385E+002
3	0	4.304445923980529E+002	3.1874198E-001	-2.7036618E+002
3	0	4.309445923854219E+002	3.1865928E-001	-2.7036972E+002
3	0	4.314445923727908E+002	3.1850204E-001	-2.7038031E+002
3	0	4.319445923601597E+002	3.1825483E-001	-2.7038031E+002
3	0	4.324445923475287E+002	3.1801826E-001	-2.7040860E+002
3	0	4.329445923348976E+002	3.1795549E-001	-2.7038742E+002
3	0	4.334445923222665E+002	3.1789285E-001	-2.7038742E+002
3	0	4.339445923096355E+002	3.1774348E-001	-2.7039093E+002
3	0	4.344445922970044E+002	3.1755525E-001	-2.7036618E+002
3	0	4.349445922843734E+002	3.1736410E-001	-2.7035913E+002
3	0	4.354445922717423E+002	3.1709507E-001	-2.7038031E+002
3	0	4.359445922591112E+002	3.1673858E-001	-2.7036972E+002
3	0	4.364445922464802E+002	3.1642169E-001	-2.7036972E+002
3	0	4.369445922338491E+002	3.1628346E-001	-2.7039447E+002
3	0	4.374445922212180E+002	3.1615567E-001	-2.7038385E+002
3	0	4.379445922085870E+002	3.1598198E-001	-2.7037326E+002
3	0	4.384445921959559E+002	3.1577292E-001	-2.7036972E+002
3	0	4.389445921833249E+002	3.1554928E-001	-2.7036972E+002
3	0	4.394445921706938E+002	3.1527898E-001	-2.7036972E+002
3	0	4.399445921580627E+002	3.1491739E-001	-2.7037326E+002
3	0	4.404445921454317E+002	3.1459197E-001	-2.7038742E+002
3	0	4.409445921328006E+002	3.1445494E-001	-2.7041568E+002
3	0	4.414445921201695E+002	3.1433669E-001	-2.7038385E+002
3	0	4.419445921075385E+002	3.1416005E-001	-2.7039093E+002
3	0	4.424445920949074E+002	3.1396011E-001	-2.7037677E+002
3	0	4.429445920822764E+002	3.1375632E-001	-2.7039093E+002
3	0	4.434445920696453E+002	3.1350455E-001	-2.7036972E+002
3	0	4.439445920570142E+002	3.1319407E-001	-2.7039801E+002
3	0	4.444445920443832E+002	3.1293395E-001	-2.7039801E+002
3	0	4.449445920317521E+002	3.1289721E-001	-2.7037326E+002
3	0	4.454445920191210E+002	3.1292847E-001	-2.7038742E+002
3	0	4.459445920064900E+002	3.1296957E-001	-2.7037677E+002
3	0	4.464445919938589E+002	3.1302607E-001	-2.7038031E+002
3	0	4.469445919812279E+002	3.1310916E-001	-2.7036618E+002
3	0	4.474445919685968E+002	3.1318176E-001	-2.7038031E+002
3	0	4.479445919559657E+002	3.1317464E-001	-2.7038031E+002
3	0	4.484445919433347E+002	3.1319821E-001	-2.7037677E+002
3	0	4.489445919307036E+002	3.1335947E-001	-2.7036267E+002
3	0	4.494445919180725E+002	3.1348413E-001	-2.7037677E+002
3	0	4.499445919054415E+002	3.1351835E-001	-2.7038031E+002
3	0	4.499709919047746E+002	3.1350365E-001	-2.7039093E+002