EC-Lab ASCII FILE
Nb header lines : 55                          

Open Circuit Voltage

Run on channel : 1 (SN 81504)
User : 
CE vs. WE compliance from -10 V to 10 V
Electrode connection : standard
Potential control : Ewe
Ewe ctrl range : min = -2.50 V, max = 2.50 V
Safety Limits :
	Do not start on E overload
Acquisition started on : 05/10/2026 09:06:36.404
Loaded Setting File :  C:\PEM-WE_measurements\2026\372_IV_IV IrOx, 5 min Pt, 30 min C, etched cathode\new station\Loopeis new\1,46 V different time gaps closed cell\Loopeis 1,46V_180s_3_PEIS from 6500Hz to 1000Hz.mps
Saved on :
	File : L_28_Loopeis 1,46V_180s_3_PEIS from 6500Hz to 1000Hz_12_OCV_C01.mpr
	Directory : C:\PEM-WE_measurements\2026\372_IV_IV IrOx, 5 min Pt, 30 min C, etched cathode\new station\Loopeis new\1,46 V different time gaps closed cell\
	Host : 192.168.0.2
Device : SP-150e (SN .005491)
Address : 192.168.0.91
EC-LAB for windows v11.71 (software)
Internet server v28.00 (firmware)
Command interpretor v14.01 (firmware)
Electrode material : 
Initial state : 
Electrolyte : 
Comments : 
Current amplifier : SP-150eB-20A
Electrode surface area : 0.001 cm²
Characteristic mass : 0.001 g
Equivalent Weight : 0.000 g/eq.
Density : 0.000 g/cm3
Volume (V) : 0.001 cm³
Record Analogic IN 1
Text export
   Mode : Standard
   Time format : Elapsed
Cycle Definition : Charge/Discharge alternance
External device configuration :
   device type : Temperature Probe
   device name : Other
   Analog IN 1 : 
      unit : T/Â°C
      max : 100.000 at 2.000 V
      min : 0.000 at 1.460 V
tR (h:m:s)          0:03:0.0000         
dER/dt (mV/h)       1.0                 
record              <Ewe>               
dER (mV)            10.00               
dtR (s)             0.5000              
E range min (V)     -2.500              
E range max (V)     2.500               

mode	error	time/s	<Ewe/V>	Analog IN 1/V	
3	0	1.172626980355708E+003	1.1070741E+000	-2.7037326E+002
3	0	1.173126980343077E+003	1.2558914E+000	-2.7036972E+002
3	0	1.173626980330446E+003	1.2464180E+000	-2.7038385E+002
3	0	1.174126980317815E+003	1.2252367E+000	-2.7038031E+002
3	0	1.174626980305184E+003	1.1873289E+000	-2.7039093E+002
3	0	1.175126980292553E+003	1.1184037E+000	-2.7038742E+002
3	0	1.175626980279922E+003	8.9758766E-001	-2.7040506E+002
3	0	1.176126980267290E+003	4.9651268E-001	-2.7036972E+002
3	0	1.176626980254659E+003	3.6592641E-001	-2.7037326E+002
3	0	1.177126980242028E+003	3.4177098E-001	-2.7036972E+002
3	0	1.177626980229397E+003	3.3878231E-001	-2.7039093E+002
3	0	1.178126980216766E+003	3.3962017E-001	-2.7038385E+002
3	0	1.178626980204135E+003	3.4089988E-001	-2.7037677E+002
3	0	1.179126980191504E+003	3.4181058E-001	-2.7037677E+002
3	0	1.179626980178873E+003	3.4238568E-001	-2.7039801E+002
3	0	1.180126980166242E+003	3.4299162E-001	-2.7037677E+002
3	0	1.180626980153611E+003	3.4348682E-001	-2.7038031E+002
3	0	1.181126980140980E+003	3.4374222E-001	-2.7038385E+002
3	0	1.181626980128349E+003	3.4399158E-001	-2.7038385E+002
3	0	1.182126980115718E+003	3.4420702E-001	-2.7038385E+002
3	0	1.182626980103087E+003	3.4441340E-001	-2.7038385E+002
3	0	1.183126980090456E+003	3.4448695E-001	-2.7036267E+002
3	0	1.183626980077825E+003	3.4451458E-001	-2.7041919E+002
3	0	1.184126980065193E+003	3.4482953E-001	-2.7039093E+002
3	0	1.184626980052562E+003	3.4520802E-001	-2.7037677E+002
3	0	1.185126980039931E+003	3.4542453E-001	-2.7039447E+002
3	0	1.185626980027300E+003	3.4564316E-001	-2.7038385E+002
3	0	1.186126980014669E+003	3.4583884E-001	-2.7036618E+002
3	0	1.186626980002038E+003	3.4600148E-001	-2.7034851E+002
3	0	1.187126979989407E+003	3.4609595E-001	-2.7036972E+002
3	0	1.187626979976776E+003	3.4615424E-001	-2.7039801E+002
3	0	1.188126979964145E+003	3.4643254E-001	-2.7035559E+002
3	0	1.188626979951514E+003	3.4683734E-001	-2.7037677E+002
3	0	1.189126979938883E+003	3.4710899E-001	-2.7037326E+002
3	0	1.189626979926252E+003	3.4746298E-001	-2.7038742E+002
3	0	1.190126979913621E+003	3.4783638E-001	-2.7038031E+002
3	0	1.190626979900990E+003	3.4825614E-001	-2.7039447E+002
3	0	1.191126979888359E+003	3.4856889E-001	-2.7037677E+002
3	0	1.191626979875728E+003	3.4886879E-001	-2.7038031E+002
3	0	1.192126979863096E+003	3.4940335E-001	-2.7036267E+002
3	0	1.192626979850465E+003	3.4996629E-001	-2.7038742E+002
3	0	1.193126979837834E+003	3.5034749E-001	-2.7039093E+002
3	0	1.193626979825203E+003	3.5072023E-001	-2.7036618E+002
3	0	1.194126979812572E+003	3.5102528E-001	-2.7040506E+002
3	0	1.194626979799941E+003	3.5129112E-001	-2.7037326E+002
3	0	1.195126979787310E+003	3.5140997E-001	-2.7034143E+002
3	0	1.195626979774679E+003	3.5143206E-001	-2.7037677E+002
3	0	1.196126979762048E+003	3.5167965E-001	-2.7038031E+002
3	0	1.196626979749417E+003	3.5199699E-001	-2.7040506E+002
3	0	1.197126979736786E+003	3.5214254E-001	-2.7036972E+002
3	0	1.197626979724155E+003	3.5228959E-001	-2.7038385E+002
3	0	1.198126979711524E+003	3.5238737E-001	-2.7039801E+002
3	0	1.198626979698893E+003	3.5245621E-001	-2.7036972E+002
3	0	1.199126979686262E+003	3.5242987E-001	-2.7036972E+002
3	0	1.199626979673631E+003	3.5235509E-001	-2.7037326E+002
3	0	1.200126979661000E+003	3.5247222E-001	-2.7038031E+002
3	0	1.200626979648368E+003	3.5267192E-001	-2.7038031E+002
3	0	1.201126979635737E+003	3.5271829E-001	-2.7038385E+002
3	0	1.201626979623106E+003	3.5277557E-001	-2.7035205E+002
3	0	1.202126979610475E+003	3.5281235E-001	-2.7038742E+002
3	0	1.202626979597844E+003	3.5281488E-001	-2.7037326E+002
3	0	1.203126979585213E+003	3.5272467E-001	-2.7038031E+002
3	0	1.203626979572582E+003	3.5255113E-001	-2.7038385E+002
3	0	1.204126979559951E+003	3.5260177E-001	-2.7039093E+002
3	0	1.204626979547320E+003	3.5274526E-001	-2.7038031E+002
3	0	1.205126979534689E+003	3.5274100E-001	-2.7036267E+002
3	0	1.205626979522058E+003	3.5274452E-001	-2.7038742E+002
3	0	1.206126979509427E+003	3.5267785E-001	-2.7040506E+002
3	0	1.206626979496796E+003	3.5260206E-001	-2.7037677E+002
3	0	1.207126979484165E+003	3.5243791E-001	-2.7038385E+002
3	0	1.207626979471534E+003	3.5223523E-001	-2.7036972E+002
3	0	1.208126979458903E+003	3.5222843E-001	-2.7038385E+002
3	0	1.208626979446271E+003	3.5235980E-001	-2.7037677E+002
3	0	1.209126979433640E+003	3.5239771E-001	-2.7038385E+002
3	0	1.209626979421009E+003	3.5249877E-001	-2.7038385E+002
3	0	1.210126979408378E+003	3.5262412E-001	-2.7037677E+002
3	0	1.210626979395747E+003	3.5279402E-001	-2.7036267E+002
3	0	1.211126979383116E+003	3.5293025E-001	-2.7038742E+002
3	0	1.211626979370485E+003	3.5307014E-001	-2.7040506E+002
3	0	1.212126979357854E+003	3.5337949E-001	-2.7039801E+002
3	0	1.212626979345223E+003	3.5377619E-001	-2.7036972E+002
3	0	1.213126979332592E+003	3.5397643E-001	-2.7037677E+002
3	0	1.213626979319961E+003	3.5414508E-001	-2.7038742E+002
3	0	1.214126979307330E+003	3.5423657E-001	-2.7038385E+002
3	0	1.214626979294699E+003	3.5429969E-001	-2.7039447E+002
3	0	1.215126979282068E+003	3.5419774E-001	-2.7037677E+002
3	0	1.215626979269437E+003	3.5404786E-001	-2.7036972E+002
3	0	1.216126979256806E+003	3.5408443E-001	-2.7037326E+002
3	0	1.216626979244174E+003	3.5420761E-001	-2.7038031E+002
3	0	1.217126979231543E+003	3.5416505E-001	-2.7035559E+002
3	0	1.217626979218912E+003	3.5413867E-001	-2.7039093E+002
3	0	1.218126979206281E+003	3.5404086E-001	-2.7038742E+002
3	0	1.218626979193650E+003	3.5394901E-001	-2.7036618E+002
3	0	1.219126979181019E+003	3.5377523E-001	-2.7039093E+002
3	0	1.219626979168388E+003	3.5350558E-001	-2.7035913E+002
3	0	1.220126979155757E+003	3.5342172E-001	-2.7039447E+002
3	0	1.220626979143126E+003	3.5344493E-001	-2.7039093E+002
3	0	1.221126979130495E+003	3.5332727E-001	-2.7036618E+002
3	0	1.221626979117864E+003	3.5320738E-001	-2.7039447E+002
3	0	1.222126979105233E+003	3.5305959E-001	-2.7036618E+002
3	0	1.222626979092602E+003	3.5291505E-001	-2.7039447E+002
3	0	1.223126979079971E+003	3.5266796E-001	-2.7038031E+002
3	0	1.223626979067340E+003	3.5234416E-001	-2.7036972E+002
3	0	1.224126979054709E+003	3.5224015E-001	-2.7037326E+002
3	0	1.224626979042077E+003	3.5223442E-001	-2.7037326E+002
3	0	1.225126979029446E+003	3.5208732E-001	-2.7034851E+002
3	0	1.225626979016815E+003	3.5195911E-001	-2.7038742E+002
3	0	1.226126979004184E+003	3.5181406E-001	-2.7039093E+002
3	0	1.226626978991553E+003	3.5162380E-001	-2.7034851E+002
3	0	1.227126978978922E+003	3.5134068E-001	-2.7039093E+002
3	0	1.227626978966291E+003	3.5101220E-001	-2.7038385E+002
3	0	1.228126978953660E+003	3.5089040E-001	-2.7041214E+002
3	0	1.228626978941029E+003	3.5090360E-001	-2.7038742E+002
3	0	1.229126978928398E+003	3.5083067E-001	-2.7037326E+002
3	0	1.229626978915767E+003	3.5081926E-001	-2.7035913E+002
3	0	1.230126978903136E+003	3.5083362E-001	-2.7039801E+002
3	0	1.230626978890505E+003	3.5089180E-001	-2.7035205E+002
3	0	1.231126978877874E+003	3.5089454E-001	-2.7037326E+002
3	0	1.231626978865243E+003	3.5089228E-001	-2.7035205E+002
3	0	1.232126978852612E+003	3.5107464E-001	-2.7036972E+002
3	0	1.232626978839980E+003	3.5136989E-001	-2.7037326E+002
3	0	1.233126978827349E+003	3.5149696E-001	-2.7040506E+002
3	0	1.233626978814718E+003	3.5159230E-001	-2.7039801E+002
3	0	1.234126978802087E+003	3.5162929E-001	-2.7038385E+002
3	0	1.234626978789456E+003	3.5160923E-001	-2.7037326E+002
3	0	1.235126978776825E+003	3.5147333E-001	-2.7036972E+002
3	0	1.235626978764194E+003	3.5126448E-001	-2.7038385E+002
3	0	1.236126978751563E+003	3.5118860E-001	-2.7035559E+002
3	0	1.236626978738932E+003	3.5125187E-001	-2.7037677E+002
3	0	1.237126978726301E+003	3.5115141E-001	-2.7040155E+002
3	0	1.237626978713670E+003	3.5105741E-001	-2.7035559E+002
3	0	1.238126978701039E+003	3.5089052E-001	-2.7039801E+002
3	0	1.238626978688408E+003	3.5069332E-001	-2.7037677E+002
3	0	1.239126978675777E+003	3.5040209E-001	-2.7036267E+002
3	0	1.239626978663146E+003	3.5006356E-001	-2.7039801E+002
3	0	1.240126978650515E+003	3.4989572E-001	-2.7038742E+002
3	0	1.240626978637883E+003	3.4984732E-001	-2.7038385E+002
3	0	1.241126978625252E+003	3.4967494E-001	-2.7037326E+002
3	0	1.241626978612621E+003	3.4952834E-001	-2.7039447E+002
3	0	1.242126978599990E+003	3.4935984E-001	-2.7036618E+002
3	0	1.242626978587359E+003	3.4915343E-001	-2.7038031E+002
3	0	1.243126978574728E+003	3.4885308E-001	-2.7034143E+002
3	0	1.243626978562097E+003	3.4849229E-001	-2.7038031E+002
3	0	1.244126978549466E+003	3.4830219E-001	-2.7034851E+002
3	0	1.244626978536835E+003	3.4825155E-001	-2.7038742E+002
3	0	1.245126978524204E+003	3.4806129E-001	-2.7036618E+002
3	0	1.245626978511573E+003	3.4788465E-001	-2.7038742E+002
3	0	1.246126978498942E+003	3.4768954E-001	-2.7039093E+002
3	0	1.246626978486311E+003	3.4748301E-001	-2.7038742E+002
3	0	1.247126978473680E+003	3.4718338E-001	-2.7038031E+002
3	0	1.247626978461049E+003	3.4684744E-001	-2.7036267E+002
3	0	1.248126978448418E+003	3.4666282E-001	-2.7037677E+002
3	0	1.248626978435786E+003	3.4662646E-001	-2.7039801E+002
3	0	1.249126978423155E+003	3.4651875E-001	-2.7039447E+002
3	0	1.249626978410524E+003	3.4646529E-001	-2.7038031E+002
3	0	1.250126978397893E+003	3.4643295E-001	-2.7036267E+002
3	0	1.250626978385262E+003	3.4642845E-001	-2.7040506E+002
3	0	1.251126978372631E+003	3.4639180E-001	-2.7039093E+002
3	0	1.251626978360000E+003	3.4635019E-001	-2.7038385E+002
3	0	1.252126978347369E+003	3.4652743E-001	-2.7038742E+002
3	0	1.252626978334738E+003	3.4683755E-001	-2.7041214E+002
3	0	1.253126978322107E+003	3.4701610E-001	-2.7040155E+002
3	0	1.253626978309476E+003	3.4716749E-001	-2.7036267E+002
3	0	1.254126978296845E+003	3.4723797E-001	-2.7040506E+002
3	0	1.254626978284214E+003	3.4724244E-001	-2.7039093E+002
3	0	1.255126978271583E+003	3.4714365E-001	-2.7038031E+002
3	0	1.255626978258952E+003	3.4691203E-001	-2.7039093E+002
3	0	1.256126978246321E+003	3.4682938E-001	-2.7035913E+002
3	0	1.256626978233689E+003	3.4686288E-001	-2.7036267E+002
3	0	1.257126978221058E+003	3.4676233E-001	-2.7038031E+002
3	0	1.257626978208427E+003	3.4664986E-001	-2.7038031E+002
3	0	1.258126978195796E+003	3.4649459E-001	-2.7036618E+002
3	0	1.258626978183165E+003	3.4629044E-001	-2.7039093E+002
3	0	1.259126978170534E+003	3.4598878E-001	-2.7039801E+002
3	0	1.259626978157903E+003	3.4565029E-001	-2.7038031E+002
3	0	1.260126978145272E+003	3.4545556E-001	-2.7038742E+002
3	0	1.260626978132641E+003	3.4539664E-001	-2.7036618E+002
3	0	1.261126978120010E+003	3.4523305E-001	-2.7038742E+002
3	0	1.261626978107379E+003	3.4509033E-001	-2.7038742E+002
3	0	1.262126978094748E+003	3.4490502E-001	-2.7036267E+002
3	0	1.262626978082117E+003	3.4468204E-001	-2.7037677E+002
3	0	1.263126978069486E+003	3.4435481E-001	-2.7036618E+002
3	0	1.263626978056855E+003	3.4396911E-001	-2.7035913E+002
3	0	1.264126978044224E+003	3.4376112E-001	-2.7036267E+002
3	0	1.264626978031592E+003	3.4368938E-001	-2.7040860E+002
3	0	1.265126978018961E+003	3.4350187E-001	-2.7037326E+002
3	0	1.265626978006330E+003	3.4333661E-001	-2.7038031E+002
3	0	1.266126977993699E+003	3.4310248E-001	-2.7036267E+002
3	0	1.266626977981068E+003	3.4289289E-001	-2.7037326E+002
3	0	1.267126977968437E+003	3.4259117E-001	-2.7035205E+002
3	0	1.267626977955806E+003	3.4220496E-001	-2.7037326E+002
3	0	1.268126977943175E+003	3.4198931E-001	-2.7038385E+002
3	0	1.268626977930544E+003	3.4192291E-001	-2.7038385E+002
3	0	1.269126977917913E+003	3.4177750E-001	-2.7038385E+002
3	0	1.269626977905282E+003	3.4168807E-001	-2.7037677E+002
3	0	1.270126977892651E+003	3.4161526E-001	-2.7039093E+002
3	0	1.270626977880020E+003	3.4158090E-001	-2.7037677E+002
3	0	1.271126977867389E+003	3.4148633E-001	-2.7036972E+002
3	0	1.271626977854758E+003	3.4139222E-001	-2.7038385E+002
3	0	1.272126977842127E+003	3.4149036E-001	-2.7036972E+002
3	0	1.272626977829495E+003	3.4174061E-001	-2.7036267E+002
3	0	1.273126977816864E+003	3.4186262E-001	-2.7035559E+002
3	0	1.273626977804233E+003	3.4197009E-001	-2.7036618E+002
3	0	1.274126977791602E+003	3.4197992E-001	-2.7039801E+002
3	0	1.274626977778971E+003	3.4193239E-001	-2.7038742E+002
3	0	1.275126977766340E+003	3.4176156E-001	-2.7037326E+002
3	0	1.275626977753709E+003	3.4152424E-001	-2.7036972E+002
3	0	1.276126977741078E+003	3.4141538E-001	-2.7037326E+002
3	0	1.276626977728447E+003	3.4141558E-001	-2.7038031E+002
3	0	1.277126977715816E+003	3.4129065E-001	-2.7037677E+002
3	0	1.277626977703185E+003	3.4116066E-001	-2.7038031E+002
3	0	1.278126977690554E+003	3.4096476E-001	-2.7037677E+002
3	0	1.278626977677923E+003	3.4074494E-001	-2.7038385E+002
3	0	1.279126977665292E+003	3.4043804E-001	-2.7038385E+002
3	0	1.279626977652661E+003	3.4007192E-001	-2.7037677E+002
3	0	1.280126977640030E+003	3.3983621E-001	-2.7035205E+002
3	0	1.280626977627398E+003	3.3975700E-001	-2.7036972E+002
3	0	1.281126977614767E+003	3.3958551E-001	-2.7038031E+002
3	0	1.281626977602136E+003	3.3941236E-001	-2.7039093E+002
3	0	1.282126977589505E+003	3.3922654E-001	-2.7038742E+002
3	0	1.282626977576874E+003	3.3898473E-001	-2.7037326E+002
3	0	1.283126977564243E+003	3.3865842E-001	-2.7037677E+002
3	0	1.283626977551612E+003	3.3828539E-001	-2.7038385E+002
3	0	1.284126977538981E+003	3.3804411E-001	-2.7036972E+002
3	0	1.284626977526350E+003	3.3796492E-001	-2.7038385E+002
3	0	1.285126977513719E+003	3.3780804E-001	-2.7039093E+002
3	0	1.285626977501088E+003	3.3763891E-001	-2.7037326E+002
3	0	1.286126977488457E+003	3.3741999E-001	-2.7037326E+002
3	0	1.286626977475826E+003	3.3719724E-001	-2.7039447E+002
3	0	1.287126977463195E+003	3.3689603E-001	-2.7037326E+002
3	0	1.287626977450564E+003	3.3652434E-001	-2.7033789E+002
3	0	1.288126977437933E+003	3.3630082E-001	-2.7039447E+002
3	0	1.288626977425301E+003	3.3622795E-001	-2.7038385E+002
3	0	1.289126977412670E+003	3.3609638E-001	-2.7040506E+002
3	0	1.289626977400039E+003	3.3601373E-001	-2.7038385E+002
3	0	1.290126977387408E+003	3.3596104E-001	-2.7039093E+002
3	0	1.290626977374777E+003	3.3591583E-001	-2.7037326E+002
3	0	1.291126977362146E+003	3.3584684E-001	-2.7035913E+002
3	0	1.291626977349515E+003	3.3574939E-001	-2.7037326E+002
3	0	1.292126977336884E+003	3.3583468E-001	-2.7039093E+002
3	0	1.292626977324253E+003	3.3607867E-001	-2.7036972E+002
3	0	1.293126977311622E+003	3.3622611E-001	-2.7035913E+002
3	0	1.293626977298991E+003	3.3633223E-001	-2.7039093E+002
3	0	1.294126977286360E+003	3.3637035E-001	-2.7039801E+002
3	0	1.294626977273729E+003	3.3632553E-001	-2.7036618E+002
3	0	1.295126977261098E+003	3.3619002E-001	-2.7036267E+002
3	0	1.295626977248467E+003	3.3594817E-001	-2.7036267E+002
3	0	1.296126977235836E+003	3.3580214E-001	-2.7037326E+002
3	0	1.296626977223204E+003	3.3577597E-001	-2.7038742E+002
3	0	1.297126977210573E+003	3.3565804E-001	-2.7038031E+002
3	0	1.297626977197942E+003	3.3554509E-001	-2.7038031E+002
3	0	1.298126977185311E+003	3.3537805E-001	-2.7038385E+002
3	0	1.298626977172680E+003	3.3516207E-001	-2.7038031E+002
3	0	1.299126977160049E+003	3.3490199E-001	-2.7039447E+002
3	0	1.299626977147418E+003	3.3454847E-001	-2.7038742E+002
3	0	1.300126977134787E+003	3.3433178E-001	-2.7037326E+002
3	0	1.300626977122156E+003	3.3424881E-001	-2.7040155E+002
3	0	1.301126977109525E+003	3.3409530E-001	-2.7037677E+002
3	0	1.301626977096894E+003	3.3393922E-001	-2.7037677E+002
3	0	1.302126977084263E+003	3.3375266E-001	-2.7036618E+002
3	0	1.302626977071632E+003	3.3354044E-001	-2.7040506E+002
3	0	1.303126977059001E+003	3.3322772E-001	-2.7035913E+002
3	0	1.303626977046370E+003	3.3285141E-001	-2.7039447E+002
3	0	1.304126977033739E+003	3.3259374E-001	-2.7039093E+002
3	0	1.304626977021107E+003	3.3247221E-001	-2.7039447E+002
3	0	1.305126977008476E+003	3.3229300E-001	-2.7036618E+002
3	0	1.305626976995845E+003	3.3213133E-001	-2.7036972E+002
3	0	1.306126976983214E+003	3.3190724E-001	-2.7038385E+002
3	0	1.306626976970583E+003	3.3165988E-001	-2.7037677E+002
3	0	1.307126976957952E+003	3.3136386E-001	-2.7037326E+002
3	0	1.307626976945321E+003	3.3102462E-001	-2.7039801E+002
3	0	1.308126976932690E+003	3.3080491E-001	-2.7035913E+002
3	0	1.308626976920059E+003	3.3072072E-001	-2.7038031E+002
3	0	1.309126976907428E+003	3.3058619E-001	-2.7036972E+002
3	0	1.309626976894797E+003	3.3047709E-001	-2.7037677E+002
3	0	1.310126976882166E+003	3.3039987E-001	-2.7037326E+002
3	0	1.310626976869535E+003	3.3028319E-001	-2.7040860E+002
3	0	1.311126976856904E+003	3.3014122E-001	-2.7037326E+002
3	0	1.311626976844273E+003	3.3018258E-001	-2.7038385E+002
3	0	1.312126976831642E+003	3.3033302E-001	-2.7036972E+002
3	0	1.312626976819010E+003	3.3060747E-001	-2.7035559E+002
3	0	1.313126976806379E+003	3.3074641E-001	-2.7036972E+002
3	0	1.313626976793748E+003	3.3081439E-001	-2.7038031E+002
3	0	1.314126976781117E+003	3.3084622E-001	-2.7036618E+002
3	0	1.314626976768486E+003	3.3079505E-001	-2.7035559E+002
3	0	1.315126976755855E+003	3.3064717E-001	-2.7037326E+002
3	0	1.315626976743224E+003	3.3043599E-001	-2.7036267E+002
3	0	1.316126976730593E+003	3.3032653E-001	-2.7040506E+002
3	0	1.316626976717962E+003	3.3035785E-001	-2.7037326E+002
3	0	1.317126976705331E+003	3.3031452E-001	-2.7037326E+002
3	0	1.317626976692700E+003	3.3018553E-001	-2.7039093E+002
3	0	1.318126976680069E+003	3.3003080E-001	-2.7038385E+002
3	0	1.318626976667438E+003	3.2983387E-001	-2.7037326E+002
3	0	1.319126976654807E+003	3.2955527E-001	-2.7035913E+002
3	0	1.319626976642176E+003	3.2919171E-001	-2.7036972E+002
3	0	1.320126976629545E+003	3.2894176E-001	-2.7038031E+002
3	0	1.320626976616913E+003	3.2885480E-001	-2.7038742E+002
3	0	1.321126976604282E+003	3.2871866E-001	-2.7039447E+002
3	0	1.321626976591651E+003	3.2852134E-001	-2.7036618E+002
3	0	1.322126976579020E+003	3.2831845E-001	-2.7036972E+002
3	0	1.322626976566389E+003	3.2809728E-001	-2.7038742E+002
3	0	1.323126976553758E+003	3.2778433E-001	-2.7038385E+002
3	0	1.323626976541127E+003	3.2740062E-001	-2.7039447E+002
3	0	1.324126976528496E+003	3.2713914E-001	-2.7036972E+002
3	0	1.324626976515865E+003	3.2705578E-001	-2.7040860E+002
3	0	1.325126976503234E+003	3.2693821E-001	-2.7036972E+002
3	0	1.325626976490603E+003	3.2675266E-001	-2.7036618E+002
3	0	1.326126976477972E+003	3.2653740E-001	-2.7036267E+002
3	0	1.326626976465341E+003	3.2630107E-001	-2.7038385E+002
3	0	1.327126976452710E+003	3.2601774E-001	-2.7038385E+002
3	0	1.327626976440079E+003	3.2564700E-001	-2.7035913E+002
3	0	1.328126976427448E+003	3.2539541E-001	-2.7036972E+002
3	0	1.328626976414816E+003	3.2530734E-001	-2.7038742E+002
3	0	1.329126976402185E+003	3.2521933E-001	-2.7038742E+002
3	0	1.329626976389554E+003	3.2509157E-001	-2.7038385E+002
3	0	1.330126976376923E+003	3.2497585E-001	-2.7036972E+002
3	0	1.330626976364292E+003	3.2490593E-001	-2.7036972E+002
3	0	1.331126976351661E+003	3.2482082E-001	-2.7037677E+002
3	0	1.331626976339030E+003	3.2471213E-001	-2.7038385E+002
3	0	1.332126976326399E+003	3.2474127E-001	-2.7038385E+002
3	0	1.332626976313768E+003	3.2496947E-001	-2.7035913E+002
3	0	1.333126976301137E+003	3.2517004E-001	-2.7036972E+002
3	0	1.333626976288506E+003	3.2528785E-001	-2.7039093E+002
3	0	1.334126976275875E+003	3.2533514E-001	-2.7037326E+002
3	0	1.334626976263244E+003	3.2532904E-001	-2.7038742E+002
3	0	1.335126976250613E+003	3.2522088E-001	-2.7037326E+002
3	0	1.335626976237982E+003	3.2502428E-001	-2.7038742E+002
3	0	1.336126976225351E+003	3.2492405E-001	-2.7037677E+002
3	0	1.336626976212719E+003	3.2494146E-001	-2.7036618E+002
3	0	1.337126976200088E+003	3.2491007E-001	-2.7037677E+002
3	0	1.337626976187457E+003	3.2478702E-001	-2.7038742E+002
3	0	1.338126976174826E+003	3.2462913E-001	-2.7037326E+002
3	0	1.338626976162195E+003	3.2443497E-001	-2.7039093E+002
3	0	1.339126976149564E+003	3.2416311E-001	-2.7036618E+002
3	0	1.339626976136933E+003	3.2381114E-001	-2.7036972E+002
3	0	1.340126976124302E+003	3.2356575E-001	-2.7037326E+002
3	0	1.340626976111671E+003	3.2346573E-001	-2.7035913E+002
3	0	1.341126976099040E+003	3.2333428E-001	-2.7036972E+002
3	0	1.341626976086409E+003	3.2314408E-001	-2.7037326E+002
3	0	1.342126976073778E+003	3.2293394E-001	-2.7035205E+002
3	0	1.342626976061147E+003	3.2270849E-001	-2.7039447E+002
3	0	1.343126976048516E+003	3.2241520E-001	-2.7037677E+002
3	0	1.343626976035885E+003	3.2206562E-001	-2.7038385E+002
3	0	1.344126976023254E+003	3.2181457E-001	-2.7036972E+002
3	0	1.344626976010622E+003	3.2171789E-001	-2.7038031E+002
3	0	1.345126975997991E+003	3.2159856E-001	-2.7037677E+002
3	0	1.345626975985360E+003	3.2142285E-001	-2.7036618E+002
3	0	1.346126975972729E+003	3.2123506E-001	-2.7036972E+002
3	0	1.346626975960098E+003	3.2102183E-001	-2.7038031E+002
3	0	1.347126975947467E+003	3.2071730E-001	-2.7036972E+002
3	0	1.347626975934836E+003	3.2034743E-001	-2.7037677E+002
3	0	1.348126975922205E+003	3.2011625E-001	-2.7039447E+002
3	0	1.348626975909574E+003	3.2004631E-001	-2.7037326E+002
3	0	1.349126975896943E+003	3.1994194E-001	-2.7038742E+002
3	0	1.349626975884312E+003	3.1979606E-001	-2.7037326E+002
3	0	1.350126975871681E+003	3.1965423E-001	-2.7037677E+002
3	0	1.350626975859050E+003	3.1954867E-001	-2.7038031E+002
3	0	1.351126975846419E+003	3.1943443E-001	-2.7039093E+002
3	0	1.351626975833788E+003	3.1930548E-001	-2.7038742E+002
3	0	1.352126975821157E+003	3.1933057E-001	-2.7036618E+002
3	0	1.352151575820535E+003	3.1942973E-001	-2.7039447E+002