EC-Lab ASCII FILE
Nb header lines : 55                          

Open Circuit Voltage

Run on channel : 1 (SN 81504)
User : 
CE vs. WE compliance from -10 V to 10 V
Electrode connection : standard
Potential control : Ewe
Ewe ctrl range : min = -2.50 V, max = 2.50 V
Safety Limits :
	Do not start on E overload
Acquisition started on : 05/10/2026 09:06:36.404
Loaded Setting File :  C:\PEM-WE_measurements\2026\372_IV_IV IrOx, 5 min Pt, 30 min C, etched cathode\new station\Loopeis new\1,46 V different time gaps closed cell\Loopeis 1,46V_180s_3_PEIS from 6500Hz to 1000Hz.mps
Saved on :
	File : L_28_Loopeis 1,46V_180s_3_PEIS from 6500Hz to 1000Hz_10_OCV_C01.mpr
	Directory : C:\PEM-WE_measurements\2026\372_IV_IV IrOx, 5 min Pt, 30 min C, etched cathode\new station\Loopeis new\1,46 V different time gaps closed cell\
	Host : 192.168.0.2
Device : SP-150e (SN .005491)
Address : 192.168.0.91
EC-LAB for windows v11.71 (software)
Internet server v28.00 (firmware)
Command interpretor v14.01 (firmware)
Electrode material : 
Initial state : 
Electrolyte : 
Comments : 
Current amplifier : SP-150eB-20A
Electrode surface area : 0.001 cm²
Characteristic mass : 0.001 g
Equivalent Weight : 0.000 g/eq.
Density : 0.000 g/cm3
Volume (V) : 0.001 cm³
Record Analogic IN 1
Text export
   Mode : Standard
   Time format : Elapsed
Cycle Definition : Charge/Discharge alternance
External device configuration :
   device type : Temperature Probe
   device name : Other
   Analog IN 1 : 
      unit : T/Â°C
      max : 100.000 at 2.000 V
      min : 0.000 at 1.460 V
tR (h:m:s)          0:03:0.0000         
dER/dt (mV/h)       1.0                 
record              <Ewe>               
dER (mV)            10.00               
dtR (s)             0.5000              
E range min (V)     -2.500              
E range max (V)     2.500               

mode	error	time/s	<Ewe/V>	Analog IN 1/V	
3	0	9.454373826598021E+002	1.2904303E+000	-2.7036972E+002
3	0	9.459373826471710E+002	1.2953426E+000	-2.7038031E+002
3	0	9.464373826345400E+002	1.2800328E+000	-2.7037677E+002
3	0	9.469373826219089E+002	1.2513026E+000	-2.7038742E+002
3	0	9.474373826092778E+002	1.2023158E+000	-2.7036618E+002
3	0	9.479373825966468E+002	1.1097370E+000	-2.7037326E+002
3	0	9.484373825840157E+002	7.8246117E-001	-2.7035913E+002
3	0	9.489373825713847E+002	4.5396018E-001	-2.7034851E+002
3	0	9.494373825587536E+002	3.6559927E-001	-2.7037326E+002
3	0	9.499373825461225E+002	3.5061741E-001	-2.7038031E+002
3	0	9.504373825334915E+002	3.4959376E-001	-2.7040860E+002
3	0	9.509373825208604E+002	3.5088605E-001	-2.7040860E+002
3	0	9.514373825082293E+002	3.5222587E-001	-2.7039447E+002
3	0	9.519373824955983E+002	3.5327768E-001	-2.7038031E+002
3	0	9.524373824829672E+002	3.5430145E-001	-2.7038385E+002
3	0	9.529373824703362E+002	3.5499009E-001	-2.7036972E+002
3	0	9.534373824577051E+002	3.5540521E-001	-2.7038742E+002
3	0	9.539373824450740E+002	3.5569069E-001	-2.7035913E+002
3	0	9.544373824324430E+002	3.5598916E-001	-2.7035913E+002
3	0	9.549373824198119E+002	3.5622284E-001	-2.7037677E+002
3	0	9.554373824071808E+002	3.5632688E-001	-2.7038385E+002
3	0	9.559373823945498E+002	3.5646042E-001	-2.7039447E+002
3	0	9.564373823819187E+002	3.5694417E-001	-2.7036267E+002
3	0	9.569373823692877E+002	3.5732439E-001	-2.7035205E+002
3	0	9.574373823566566E+002	3.5757846E-001	-2.7036972E+002
3	0	9.579373823440255E+002	3.5778001E-001	-2.7038031E+002
3	0	9.584373823313945E+002	3.5799423E-001	-2.7037677E+002
3	0	9.589373823187634E+002	3.5813764E-001	-2.7040860E+002
3	0	9.594373823061323E+002	3.5818428E-001	-2.7037677E+002
3	0	9.599373822935013E+002	3.5826159E-001	-2.7038385E+002
3	0	9.604373822808702E+002	3.5864216E-001	-2.7036618E+002
3	0	9.609373822682392E+002	3.5898265E-001	-2.7035559E+002
3	0	9.614373822556081E+002	3.5918272E-001	-2.7037326E+002
3	0	9.619373822429770E+002	3.5930848E-001	-2.7038031E+002
3	0	9.624373822303460E+002	3.5945177E-001	-2.7038742E+002
3	0	9.629373822177149E+002	3.5953909E-001	-2.7038742E+002
3	0	9.634373822050839E+002	3.5951483E-001	-2.7040506E+002
3	0	9.639373821924528E+002	3.5950086E-001	-2.7038385E+002
3	0	9.644373821798217E+002	3.5983691E-001	-2.7038742E+002
3	0	9.649373821671907E+002	3.6012450E-001	-2.7039093E+002
3	0	9.654373821545596E+002	3.6027038E-001	-2.7039093E+002
3	0	9.659373821419285E+002	3.6033759E-001	-2.7036618E+002
3	0	9.664373821292975E+002	3.6044347E-001	-2.7037326E+002
3	0	9.669373821166664E+002	3.6051485E-001	-2.7038031E+002
3	0	9.674373821040354E+002	3.6048764E-001	-2.7037677E+002
3	0	9.679373820914043E+002	3.6054236E-001	-2.7035913E+002
3	0	9.684373820787732E+002	3.6096877E-001	-2.7037677E+002
3	0	9.689373820661422E+002	3.6142918E-001	-2.7039447E+002
3	0	9.694373820535111E+002	3.6178637E-001	-2.7038385E+002
3	0	9.699373820408800E+002	3.6214098E-001	-2.7038742E+002
3	0	9.704373820282490E+002	3.6249542E-001	-2.7036972E+002
3	0	9.709373820156179E+002	3.6276752E-001	-2.7038385E+002
3	0	9.714373820029869E+002	3.6292467E-001	-2.7034497E+002
3	0	9.719373819903558E+002	3.6303794E-001	-2.7036972E+002
3	0	9.724373819777247E+002	3.6343649E-001	-2.7035913E+002
3	0	9.729373819650937E+002	3.6381522E-001	-2.7038742E+002
3	0	9.734373819524626E+002	3.6403051E-001	-2.7037677E+002
3	0	9.739373819398315E+002	3.6414376E-001	-2.7036972E+002
3	0	9.744373819272005E+002	3.6424077E-001	-2.7038031E+002
3	0	9.749373819145694E+002	3.6426327E-001	-2.7037677E+002
3	0	9.754373819019384E+002	3.6413944E-001	-2.7035913E+002
3	0	9.759373818893073E+002	3.6407161E-001	-2.7036618E+002
3	0	9.764373818766762E+002	3.6428559E-001	-2.7038742E+002
3	0	9.769373818640452E+002	3.6445528E-001	-2.7038385E+002
3	0	9.774373818514141E+002	3.6449412E-001	-2.7035913E+002
3	0	9.779373818387830E+002	3.6448815E-001	-2.7037326E+002
3	0	9.784373818261520E+002	3.6448571E-001	-2.7038385E+002
3	0	9.789373818135209E+002	3.6439049E-001	-2.7038742E+002
3	0	9.794373818008899E+002	3.6419156E-001	-2.7037326E+002
3	0	9.799373817882588E+002	3.6402166E-001	-2.7038031E+002
3	0	9.804373817756277E+002	3.6415121E-001	-2.7038031E+002
3	0	9.809373817629967E+002	3.6426273E-001	-2.7036972E+002
3	0	9.814373817503656E+002	3.6423251E-001	-2.7038031E+002
3	0	9.819373817377345E+002	3.6414981E-001	-2.7036267E+002
3	0	9.824373817251035E+002	3.6404410E-001	-2.7038742E+002
3	0	9.829373817124724E+002	3.6390463E-001	-2.7038385E+002
3	0	9.834373816998414E+002	3.6368024E-001	-2.7038031E+002
3	0	9.839373816872103E+002	3.6346525E-001	-2.7037677E+002
3	0	9.844373816745792E+002	3.6354342E-001	-2.7037326E+002
3	0	9.849373816619482E+002	3.6361638E-001	-2.7037677E+002
3	0	9.854373816493171E+002	3.6355191E-001	-2.7039801E+002
3	0	9.859373816366860E+002	3.6340693E-001	-2.7035913E+002
3	0	9.864373816240550E+002	3.6329213E-001	-2.7038385E+002
3	0	9.869373816114239E+002	3.6311406E-001	-2.7036267E+002
3	0	9.874373815987929E+002	3.6287767E-001	-2.7040155E+002
3	0	9.879373815861618E+002	3.6274728E-001	-2.7039093E+002
3	0	9.884373815735307E+002	3.6296260E-001	-2.7037326E+002
3	0	9.889373815608997E+002	3.6321944E-001	-2.7036267E+002
3	0	9.894373815482686E+002	3.6340341E-001	-2.7038742E+002
3	0	9.899373815356375E+002	3.6357287E-001	-2.7038385E+002
3	0	9.904373815230065E+002	3.6376280E-001	-2.7038742E+002
3	0	9.909373815103754E+002	3.6390030E-001	-2.7037677E+002
3	0	9.914373814977444E+002	3.6388808E-001	-2.7038742E+002
3	0	9.919373814851133E+002	3.6385554E-001	-2.7034851E+002
3	0	9.924373814724822E+002	3.6405978E-001	-2.7037326E+002
3	0	9.929373814598512E+002	3.6424574E-001	-2.7036618E+002
3	0	9.934373814472201E+002	3.6428499E-001	-2.7039447E+002
3	0	9.939373814345890E+002	3.6423793E-001	-2.7038385E+002
3	0	9.944373814219580E+002	3.6419469E-001	-2.7038031E+002
3	0	9.949373814093269E+002	3.6406356E-001	-2.7038031E+002
3	0	9.954373813966959E+002	3.6381820E-001	-2.7039447E+002
3	0	9.959373813840648E+002	3.6357009E-001	-2.7037677E+002
3	0	9.964373813714337E+002	3.6359939E-001	-2.7039093E+002
3	0	9.969373813588027E+002	3.6363673E-001	-2.7035913E+002
3	0	9.974373813461716E+002	3.6357358E-001	-2.7036267E+002
3	0	9.979373813335405E+002	3.6342961E-001	-2.7037677E+002
3	0	9.984373813209095E+002	3.6327267E-001	-2.7039093E+002
3	0	9.989373813082784E+002	3.6305392E-001	-2.7037326E+002
3	0	9.994373812956474E+002	3.6273593E-001	-2.7036618E+002
3	0	9.999373812830163E+002	3.6244684E-001	-2.7035913E+002
3	0	1.000437381270385E+003	3.6244804E-001	-2.7037677E+002
3	0	1.000937381257754E+003	3.6244604E-001	-2.7036267E+002
3	0	1.001437381245123E+003	3.6232045E-001	-2.7036972E+002
3	0	1.001937381232492E+003	3.6213583E-001	-2.7038385E+002
3	0	1.002437381219861E+003	3.6196378E-001	-2.7038031E+002
3	0	1.002937381207230E+003	3.6171031E-001	-2.7038742E+002
3	0	1.003437381194599E+003	3.6136177E-001	-2.7039447E+002
3	0	1.003937381181968E+003	3.6104366E-001	-2.7037677E+002
3	0	1.004437381169337E+003	3.6101997E-001	-2.7038385E+002
3	0	1.004937381156706E+003	3.6100113E-001	-2.7035913E+002
3	0	1.005437381144075E+003	3.6084780E-001	-2.7038742E+002
3	0	1.005937381131444E+003	3.6066183E-001	-2.7034851E+002
3	0	1.006437381118812E+003	3.6049125E-001	-2.7038031E+002
3	0	1.006937381106181E+003	3.6021927E-001	-2.7038031E+002
3	0	1.007437381093550E+003	3.5989031E-001	-2.7038385E+002
3	0	1.007937381080919E+003	3.5962677E-001	-2.7041568E+002
3	0	1.008437381068288E+003	3.5969359E-001	-2.7036618E+002
3	0	1.008937381055657E+003	3.5986388E-001	-2.7035913E+002
3	0	1.009437381043026E+003	3.5998610E-001	-2.7038031E+002
3	0	1.009937381030395E+003	3.6010882E-001	-2.7038031E+002
3	0	1.010437381017764E+003	3.6025411E-001	-2.7037326E+002
3	0	1.010937381005133E+003	3.6034453E-001	-2.7037326E+002
3	0	1.011437380992502E+003	3.6030093E-001	-2.7039447E+002
3	0	1.011937380979871E+003	3.6023787E-001	-2.7037677E+002
3	0	1.012437380967240E+003	3.6039886E-001	-2.7038031E+002
3	0	1.012937380954609E+003	3.6055917E-001	-2.7038031E+002
3	0	1.013437380941978E+003	3.6058027E-001	-2.7038742E+002
3	0	1.013937380929347E+003	3.6051592E-001	-2.7036618E+002
3	0	1.014437380916715E+003	3.6044466E-001	-2.7036972E+002
3	0	1.014937380904084E+003	3.6029208E-001	-2.7038031E+002
3	0	1.015437380891453E+003	3.6001068E-001	-2.7037326E+002
3	0	1.015937380878822E+003	3.5972077E-001	-2.7039801E+002
3	0	1.016437380866191E+003	3.5969424E-001	-2.7036972E+002
3	0	1.016937380853560E+003	3.5968572E-001	-2.7037677E+002
3	0	1.017437380840929E+003	3.5954344E-001	-2.7037677E+002
3	0	1.017937380828298E+003	3.5934141E-001	-2.7037677E+002
3	0	1.018437380815667E+003	3.5913995E-001	-2.7036972E+002
3	0	1.018937380803036E+003	3.5886073E-001	-2.7035559E+002
3	0	1.019437380790405E+003	3.5852841E-001	-2.7039093E+002
3	0	1.019937380777774E+003	3.5817671E-001	-2.7037326E+002
3	0	1.020437380765143E+003	3.5809118E-001	-2.7039447E+002
3	0	1.020937380752512E+003	3.5805398E-001	-2.7038031E+002
3	0	1.021437380739881E+003	3.5790178E-001	-2.7037326E+002
3	0	1.021937380727250E+003	3.5768467E-001	-2.7038385E+002
3	0	1.022437380714618E+003	3.5746247E-001	-2.7039447E+002
3	0	1.022937380701987E+003	3.5720739E-001	-2.7036972E+002
3	0	1.023437380689356E+003	3.5683975E-001	-2.7038385E+002
3	0	1.023937380676725E+003	3.5649067E-001	-2.7036267E+002
3	0	1.024437380664094E+003	3.5639179E-001	-2.7037677E+002
3	0	1.024937380651463E+003	3.5631540E-001	-2.7039447E+002
3	0	1.025437380638832E+003	3.5615307E-001	-2.7036972E+002
3	0	1.025937380626201E+003	3.5593238E-001	-2.7039093E+002
3	0	1.026437380613570E+003	3.5571969E-001	-2.7038031E+002
3	0	1.026937380600939E+003	3.5546151E-001	-2.7036267E+002
3	0	1.027437380588308E+003	3.5511231E-001	-2.7041568E+002
3	0	1.027937380575677E+003	3.5482997E-001	-2.7037326E+002
3	0	1.028437380563046E+003	3.5485086E-001	-2.7037677E+002
3	0	1.028937380550415E+003	3.5497108E-001	-2.7034143E+002
3	0	1.029437380537784E+003	3.5505164E-001	-2.7038031E+002
3	0	1.029937380525153E+003	3.5511920E-001	-2.7041568E+002
3	0	1.030437380512521E+003	3.5523662E-001	-2.7037326E+002
3	0	1.030937380499890E+003	3.5532025E-001	-2.7037326E+002
3	0	1.031437380487259E+003	3.5530356E-001	-2.7038385E+002
3	0	1.031937380474628E+003	3.5524035E-001	-2.7035559E+002
3	0	1.032437380461997E+003	3.5538259E-001	-2.7039093E+002
3	0	1.032937380449366E+003	3.5554874E-001	-2.7037677E+002
3	0	1.033437380436735E+003	3.5559434E-001	-2.7038742E+002
3	0	1.033937380424104E+003	3.5554335E-001	-2.7038742E+002
3	0	1.034437380411473E+003	3.5544506E-001	-2.7039447E+002
3	0	1.034937380398842E+003	3.5523650E-001	-2.7035913E+002
3	0	1.035437380386211E+003	3.5492533E-001	-2.7035913E+002
3	0	1.035937380373580E+003	3.5462859E-001	-2.7035205E+002
3	0	1.036437380360949E+003	3.5457170E-001	-2.7035205E+002
3	0	1.036937380348318E+003	3.5454476E-001	-2.7038742E+002
3	0	1.037437380335687E+003	3.5441861E-001	-2.7038742E+002
3	0	1.037937380323056E+003	3.5423219E-001	-2.7036972E+002
3	0	1.038437380310424E+003	3.5402405E-001	-2.7037677E+002
3	0	1.038937380297793E+003	3.5378128E-001	-2.7037326E+002
3	0	1.039437380285162E+003	3.5343888E-001	-2.7039801E+002
3	0	1.039937380272531E+003	3.5310391E-001	-2.7037326E+002
3	0	1.040437380259900E+003	3.5300809E-001	-2.7036618E+002
3	0	1.040937380247269E+003	3.5294622E-001	-2.7038742E+002
3	0	1.041437380234638E+003	3.5279518E-001	-2.7036972E+002
3	0	1.041937380222007E+003	3.5257453E-001	-2.7038742E+002
3	0	1.042437380209376E+003	3.5234073E-001	-2.7038742E+002
3	0	1.042937380196745E+003	3.5207191E-001	-2.7036618E+002
3	0	1.043437380184114E+003	3.5172492E-001	-2.7037677E+002
3	0	1.043937380171483E+003	3.5135823E-001	-2.7037677E+002
3	0	1.044437380158852E+003	3.5122785E-001	-2.7038031E+002
3	0	1.044937380146221E+003	3.5113722E-001	-2.7035559E+002
3	0	1.045437380133590E+003	3.5095417E-001	-2.7036972E+002
3	0	1.045937380120959E+003	3.5073453E-001	-2.7037326E+002
3	0	1.046437380108327E+003	3.5050923E-001	-2.7040506E+002
3	0	1.046937380095696E+003	3.5022366E-001	-2.7038031E+002
3	0	1.047437380083065E+003	3.4988356E-001	-2.7038742E+002
3	0	1.047937380070434E+003	3.4958914E-001	-2.7039093E+002
3	0	1.048437380057803E+003	3.4957469E-001	-2.7038031E+002
3	0	1.048937380045172E+003	3.4965673E-001	-2.7034851E+002
3	0	1.049437380032541E+003	3.4972081E-001	-2.7036972E+002
3	0	1.049937380019910E+003	3.4977552E-001	-2.7039093E+002
3	0	1.050437380007279E+003	3.4987277E-001	-2.7039093E+002
3	0	1.050937379994648E+003	3.4995198E-001	-2.7038742E+002
3	0	1.051437379982017E+003	3.4994382E-001	-2.7039093E+002
3	0	1.051937379969386E+003	3.4987441E-001	-2.7034497E+002
3	0	1.052437379956755E+003	3.4999633E-001	-2.7036972E+002
3	0	1.052937379944124E+003	3.5012046E-001	-2.7038031E+002
3	0	1.053437379931493E+003	3.5012934E-001	-2.7038742E+002
3	0	1.053937379918862E+003	3.5004807E-001	-2.7037677E+002
3	0	1.054437379906230E+003	3.4995064E-001	-2.7039447E+002
3	0	1.054937379893599E+003	3.4978446E-001	-2.7038385E+002
3	0	1.055437379880968E+003	3.4952939E-001	-2.7039093E+002
3	0	1.055937379868337E+003	3.4924635E-001	-2.7039093E+002
3	0	1.056437379855706E+003	3.4915251E-001	-2.7037326E+002
3	0	1.056937379843075E+003	3.4908527E-001	-2.7036972E+002
3	0	1.057437379830444E+003	3.4895313E-001	-2.7039447E+002
3	0	1.057937379817813E+003	3.4876984E-001	-2.7039093E+002
3	0	1.058437379805182E+003	3.4856388E-001	-2.7039093E+002
3	0	1.058937379792551E+003	3.4832209E-001	-2.7039801E+002
3	0	1.059437379779920E+003	3.4799832E-001	-2.7039801E+002
3	0	1.059937379767289E+003	3.4767121E-001	-2.7036618E+002
3	0	1.060437379754658E+003	3.4756660E-001	-2.7036267E+002
3	0	1.060937379742027E+003	3.4749472E-001	-2.7038031E+002
3	0	1.061437379729396E+003	3.4734008E-001	-2.7039801E+002
3	0	1.061937379716765E+003	3.4712043E-001	-2.7039447E+002
3	0	1.062437379704133E+003	3.4690550E-001	-2.7037677E+002
3	0	1.062937379691502E+003	3.4663966E-001	-2.7039093E+002
3	0	1.063437379678871E+003	3.4632158E-001	-2.7038742E+002
3	0	1.063937379666240E+003	3.4597102E-001	-2.7036972E+002
3	0	1.064437379653609E+003	3.4584725E-001	-2.7035559E+002
3	0	1.064937379640978E+003	3.4576258E-001	-2.7038385E+002
3	0	1.065437379628347E+003	3.4562340E-001	-2.7038031E+002
3	0	1.065937379615716E+003	3.4539112E-001	-2.7035205E+002
3	0	1.066437379603085E+003	3.4515658E-001	-2.7039447E+002
3	0	1.066937379590454E+003	3.4490451E-001	-2.7039801E+002
3	0	1.067437379577823E+003	3.4458926E-001	-2.7038385E+002
3	0	1.067937379565192E+003	3.4427121E-001	-2.7034851E+002
3	0	1.068437379552561E+003	3.4421030E-001	-2.7039093E+002
3	0	1.068937379539930E+003	3.4425971E-001	-2.7038742E+002
3	0	1.069437379527299E+003	3.4431979E-001	-2.7037677E+002
3	0	1.069937379514668E+003	3.4436464E-001	-2.7040155E+002
3	0	1.070437379502036E+003	3.4444049E-001	-2.7037326E+002
3	0	1.070937379489405E+003	3.4450051E-001	-2.7038742E+002
3	0	1.071437379476774E+003	3.4447587E-001	-2.7036618E+002
3	0	1.071937379464143E+003	3.4442699E-001	-2.7039093E+002
3	0	1.072437379451512E+003	3.4456474E-001	-2.7036972E+002
3	0	1.072937379438881E+003	3.4471127E-001	-2.7038031E+002
3	0	1.073437379426250E+003	3.4475708E-001	-2.7036972E+002
3	0	1.073937379413619E+003	3.4469563E-001	-2.7037677E+002
3	0	1.074437379400988E+003	3.4460762E-001	-2.7035205E+002
3	0	1.074937379388357E+003	3.4447572E-001	-2.7038742E+002
3	0	1.075437379375726E+003	3.4421545E-001	-2.7038385E+002
3	0	1.075937379363095E+003	3.4391305E-001	-2.7038031E+002
3	0	1.076437379350464E+003	3.4381330E-001	-2.7037677E+002
3	0	1.076937379337833E+003	3.4375563E-001	-2.7037677E+002
3	0	1.077437379325202E+003	3.4361851E-001	-2.7037326E+002
3	0	1.077937379312571E+003	3.4340966E-001	-2.7038742E+002
3	0	1.078437379299939E+003	3.4321046E-001	-2.7039801E+002
3	0	1.078937379287308E+003	3.4296304E-001	-2.7035205E+002
3	0	1.079437379274677E+003	3.4265643E-001	-2.7039447E+002
3	0	1.079937379262046E+003	3.4233320E-001	-2.7033789E+002
3	0	1.080437379249415E+003	3.4220430E-001	-2.7038742E+002
3	0	1.080937379236784E+003	3.4209776E-001	-2.7038742E+002
3	0	1.081437379224153E+003	3.4191823E-001	-2.7035913E+002
3	0	1.081937379211522E+003	3.4168956E-001	-2.7037326E+002
3	0	1.082437379198891E+003	3.4147567E-001	-2.7039801E+002
3	0	1.082937379186260E+003	3.4121048E-001	-2.7037677E+002
3	0	1.083437379173629E+003	3.4087220E-001	-2.7035913E+002
3	0	1.083937379160998E+003	3.4053817E-001	-2.7034851E+002
3	0	1.084437379148367E+003	3.4039995E-001	-2.7037326E+002
3	0	1.084937379135736E+003	3.4029818E-001	-2.7037677E+002
3	0	1.085437379123105E+003	3.4012666E-001	-2.7034497E+002
3	0	1.085937379110474E+003	3.3991802E-001	-2.7037326E+002
3	0	1.086437379097842E+003	3.3970475E-001	-2.7039447E+002
3	0	1.086937379085211E+003	3.3943832E-001	-2.7035913E+002
3	0	1.087437379072580E+003	3.3912203E-001	-2.7036972E+002
3	0	1.087937379059949E+003	3.3882418E-001	-2.7036972E+002
3	0	1.088437379047318E+003	3.3874434E-001	-2.7037326E+002
3	0	1.088937379034687E+003	3.3874747E-001	-2.7038742E+002
3	0	1.089437379022056E+003	3.3876154E-001	-2.7037326E+002
3	0	1.089937379009425E+003	3.3876655E-001	-2.7036267E+002
3	0	1.090437378996794E+003	3.3879986E-001	-2.7038031E+002
3	0	1.090937378984163E+003	3.3886436E-001	-2.7038031E+002
3	0	1.091437378971532E+003	3.3884552E-001	-2.7037326E+002
3	0	1.091937378958901E+003	3.3881706E-001	-2.7038385E+002
3	0	1.092437378946270E+003	3.3894154E-001	-2.7036972E+002
3	0	1.092937378933639E+003	3.3906883E-001	-2.7035559E+002
3	0	1.093437378921008E+003	3.3910552E-001	-2.7040860E+002
3	0	1.093937378908377E+003	3.3906713E-001	-2.7038742E+002
3	0	1.094437378895746E+003	3.3897454E-001	-2.7039093E+002
3	0	1.094937378883114E+003	3.3883521E-001	-2.7037677E+002
3	0	1.095437378870483E+003	3.3857721E-001	-2.7037677E+002
3	0	1.095937378857852E+003	3.3831528E-001	-2.7040155E+002
3	0	1.096437378845221E+003	3.3821148E-001	-2.7038031E+002
3	0	1.096937378832590E+003	3.3814600E-001	-2.7039093E+002
3	0	1.097437378819959E+003	3.3803192E-001	-2.7039801E+002
3	0	1.097937378807328E+003	3.3786896E-001	-2.7038031E+002
3	0	1.098437378794697E+003	3.3771458E-001	-2.7039447E+002
3	0	1.098937378782066E+003	3.3751547E-001	-2.7040155E+002
3	0	1.099437378769435E+003	3.3722296E-001	-2.7035913E+002
3	0	1.099937378756804E+003	3.3689365E-001	-2.7036618E+002
3	0	1.100437378744173E+003	3.3673099E-001	-2.7038742E+002
3	0	1.100937378731542E+003	3.3661476E-001	-2.7038742E+002
3	0	1.101437378718911E+003	3.3647251E-001	-2.7037326E+002
3	0	1.101937378706280E+003	3.3627245E-001	-2.7037326E+002
3	0	1.102437378693649E+003	3.3607081E-001	-2.7037677E+002
3	0	1.102937378681017E+003	3.3582148E-001	-2.7037677E+002
3	0	1.103437378668386E+003	3.3549914E-001	-2.7038031E+002
3	0	1.103937378655755E+003	3.3515140E-001	-2.7035913E+002
3	0	1.104437378643124E+003	3.3496952E-001	-2.7038031E+002
3	0	1.104937378630493E+003	3.3485320E-001	-2.7038031E+002
3	0	1.105437378617862E+003	3.3471316E-001	-2.7036618E+002
3	0	1.105937378605231E+003	3.3452350E-001	-2.7034851E+002
3	0	1.106437378592600E+003	3.3431756E-001	-2.7038385E+002
3	0	1.106937378579969E+003	3.3407646E-001	-2.7038742E+002
3	0	1.107437378567338E+003	3.3377570E-001	-2.7039093E+002
3	0	1.107937378554707E+003	3.3345801E-001	-2.7039093E+002
3	0	1.108437378542076E+003	3.3334899E-001	-2.7039447E+002
3	0	1.108937378529445E+003	3.3333683E-001	-2.7036618E+002
3	0	1.109437378516814E+003	3.3334997E-001	-2.7039447E+002
3	0	1.109937378504183E+003	3.3334857E-001	-2.7038742E+002
3	0	1.110437378491552E+003	3.3334735E-001	-2.7039447E+002
3	0	1.110937378478920E+003	3.3342981E-001	-2.7038385E+002
3	0	1.111437378466289E+003	3.3345723E-001	-2.7038742E+002
3	0	1.111937378453658E+003	3.3344883E-001	-2.7037677E+002
3	0	1.112437378441027E+003	3.3358809E-001	-2.7037326E+002
3	0	1.112937378428396E+003	3.3369872E-001	-2.7039447E+002
3	0	1.113437378415765E+003	3.3373851E-001	-2.7038385E+002
3	0	1.113937378403134E+003	3.3371979E-001	-2.7036618E+002
3	0	1.114437378390503E+003	3.3365643E-001	-2.7038385E+002
3	0	1.114937378377872E+003	3.3355197E-001	-2.7039447E+002
3	0	1.115437378365241E+003	3.3333412E-001	-2.7036972E+002
3	0	1.115937378352610E+003	3.3308750E-001	-2.7036267E+002
3	0	1.116437378339979E+003	3.3299029E-001	-2.7036618E+002
3	0	1.116937378327348E+003	3.3289057E-001	-2.7038385E+002
3	0	1.117437378314717E+003	3.3272702E-001	-2.7040155E+002
3	0	1.117937378302086E+003	3.3253843E-001	-2.7034851E+002
3	0	1.118437378289455E+003	3.3234271E-001	-2.7036618E+002
3	0	1.118937378276823E+003	3.3212191E-001	-2.7039093E+002
3	0	1.119437378264192E+003	3.3181870E-001	-2.7039447E+002
3	0	1.119937378251561E+003	3.3150274E-001	-2.7040155E+002
3	0	1.120437378238930E+003	3.3136767E-001	-2.7038031E+002
3	0	1.120937378226299E+003	3.3123401E-001	-2.7039801E+002
3	0	1.121437378213668E+003	3.3105949E-001	-2.7037677E+002
3	0	1.121937378201037E+003	3.3086029E-001	-2.7036972E+002
3	0	1.122437378188406E+003	3.3065760E-001	-2.7041214E+002
3	0	1.122937378175775E+003	3.3044022E-001	-2.7043332E+002
3	0	1.123437378163144E+003	3.3015886E-001	-2.7038031E+002
3	0	1.123937378150513E+003	3.2984233E-001	-2.7037677E+002
3	0	1.124437378137882E+003	3.2970095E-001	-2.7039447E+002
3	0	1.124937378125251E+003	3.2956403E-001	-2.7041214E+002
3	0	1.124937778125241E+003	3.2952878E-001	-2.7039447E+002