EC-Lab ASCII FILE
Nb header lines : 55                          

Open Circuit Voltage

Run on channel : 1 (SN 81504)
User : 
CE vs. WE compliance from -10 V to 10 V
Electrode connection : standard
Potential control : Ewe
Ewe ctrl range : min = -2.50 V, max = 2.50 V
Safety Limits :
	Do not start on E overload
Acquisition started on : 05/10/2026 09:06:36.404
Loaded Setting File :  C:\PEM-WE_measurements\2026\372_IV_IV IrOx, 5 min Pt, 30 min C, etched cathode\new station\Loopeis new\1,46 V different time gaps closed cell\Loopeis 1,46V_180s_3_PEIS from 6500Hz to 1000Hz.mps
Saved on :
	File : L_28_Loopeis 1,46V_180s_3_PEIS from 6500Hz to 1000Hz_20_OCV_C01.mpr
	Directory : C:\PEM-WE_measurements\2026\372_IV_IV IrOx, 5 min Pt, 30 min C, etched cathode\new station\Loopeis new\1,46 V different time gaps closed cell\
	Host : 192.168.0.2
Device : SP-150e (SN .005491)
Address : 192.168.0.91
EC-LAB for windows v11.71 (software)
Internet server v28.00 (firmware)
Command interpretor v14.01 (firmware)
Electrode material : 
Initial state : 
Electrolyte : 
Comments : 
Current amplifier : SP-150eB-20A
Electrode surface area : 0.001 cm²
Characteristic mass : 0.001 g
Equivalent Weight : 0.000 g/eq.
Density : 0.000 g/cm3
Volume (V) : 0.001 cm³
Record Analogic IN 1
Text export
   Mode : Standard
   Time format : Elapsed
Cycle Definition : Charge/Discharge alternance
External device configuration :
   device type : Temperature Probe
   device name : Other
   Analog IN 1 : 
      unit : T/Â°C
      max : 100.000 at 2.000 V
      min : 0.000 at 1.460 V
tR (h:m:s)          0:03:0.0000         
dER/dt (mV/h)       1.0                 
record              <Ewe>               
dER (mV)            10.00               
dtR (s)             0.5000              
E range min (V)     -2.500              
E range max (V)     2.500               

mode	error	time/s	<Ewe/V>	Analog IN 1/V	
3	0	2.077033564377271E+003	1.1068175E+000	-2.7039093E+002
3	0	2.077533564364639E+003	1.2557600E+000	-2.7036972E+002
3	0	2.078033564352008E+003	1.2466347E+000	-2.7039093E+002
3	0	2.078533564339377E+003	1.2264317E+000	-2.7035205E+002
3	0	2.079033564326746E+003	1.1905041E+000	-2.7036267E+002
3	0	2.079533564314115E+003	1.1262550E+000	-2.7038031E+002
3	0	2.080033564301484E+003	9.3580085E-001	-2.7039447E+002
3	0	2.080533564288853E+003	5.2175027E-001	-2.7036267E+002
3	0	2.081033564276222E+003	3.7425748E-001	-2.7038385E+002
3	0	2.081533564263591E+003	3.4551752E-001	-2.7035913E+002
3	0	2.082033564250960E+003	3.4152329E-001	-2.7039801E+002
3	0	2.082533564238329E+003	3.4198505E-001	-2.7037326E+002
3	0	2.083033564225698E+003	3.4300068E-001	-2.7038031E+002
3	0	2.083533564213067E+003	3.4386888E-001	-2.7038031E+002
3	0	2.084033564200436E+003	3.4475917E-001	-2.7040860E+002
3	0	2.084533564187805E+003	3.4540480E-001	-2.7040155E+002
3	0	2.085033564175174E+003	3.4573954E-001	-2.7037677E+002
3	0	2.085533564162542E+003	3.4592864E-001	-2.7036972E+002
3	0	2.086033564149911E+003	3.4609199E-001	-2.7038742E+002
3	0	2.086533564137280E+003	3.4624130E-001	-2.7037326E+002
3	0	2.087033564124649E+003	3.4627613E-001	-2.7039447E+002
3	0	2.087533564112018E+003	3.4631771E-001	-2.7039447E+002
3	0	2.088033564099387E+003	3.4667137E-001	-2.7036618E+002
3	0	2.088533564086756E+003	3.4709907E-001	-2.7035205E+002
3	0	2.089033564074125E+003	3.4736526E-001	-2.7036267E+002
3	0	2.089533564061494E+003	3.4756070E-001	-2.7037677E+002
3	0	2.090033564048863E+003	3.4774926E-001	-2.7036972E+002
3	0	2.090533564036232E+003	3.4786215E-001	-2.7039801E+002
3	0	2.091033564023601E+003	3.4787953E-001	-2.7037326E+002
3	0	2.091533564010970E+003	3.4792539E-001	-2.7039093E+002
3	0	2.092033563998339E+003	3.4828109E-001	-2.7038742E+002
3	0	2.092533563985708E+003	3.4869555E-001	-2.7037677E+002
3	0	2.093033563973077E+003	3.4893283E-001	-2.7039801E+002
3	0	2.093533563960445E+003	3.4907183E-001	-2.7037677E+002
3	0	2.094033563947814E+003	3.4929165E-001	-2.7039093E+002
3	0	2.094533563935183E+003	3.4946185E-001	-2.7037677E+002
3	0	2.095033563922552E+003	3.4957507E-001	-2.7039801E+002
3	0	2.095533563909921E+003	3.4976634E-001	-2.7037677E+002
3	0	2.096033563897290E+003	3.5032031E-001	-2.7038742E+002
3	0	2.096533563884659E+003	3.5096875E-001	-2.7036972E+002
3	0	2.097033563872028E+003	3.5150611E-001	-2.7038385E+002
3	0	2.097533563859397E+003	3.5195753E-001	-2.7039093E+002
3	0	2.098033563846766E+003	3.5236588E-001	-2.7038031E+002
3	0	2.098533563834135E+003	3.5267997E-001	-2.7035559E+002
3	0	2.099033563821504E+003	3.5283384E-001	-2.7038031E+002
3	0	2.099533563808873E+003	3.5292915E-001	-2.7038031E+002
3	0	2.100033563796242E+003	3.5329175E-001	-2.7040506E+002
3	0	2.100533563783611E+003	3.5373175E-001	-2.7037326E+002
3	0	2.101033563770980E+003	3.5401624E-001	-2.7038742E+002
3	0	2.101533563758348E+003	3.5414696E-001	-2.7038031E+002
3	0	2.102033563745717E+003	3.5427573E-001	-2.7034851E+002
3	0	2.102533563733086E+003	3.5432264E-001	-2.7038031E+002
3	0	2.103033563720455E+003	3.5425547E-001	-2.7038385E+002
3	0	2.103533563707824E+003	3.5415521E-001	-2.7038031E+002
3	0	2.104033563695193E+003	3.5435936E-001	-2.7038031E+002
3	0	2.104533563682562E+003	3.5463065E-001	-2.7039093E+002
3	0	2.105033563669931E+003	3.5475650E-001	-2.7039447E+002
3	0	2.105533563657300E+003	3.5478973E-001	-2.7038031E+002
3	0	2.106033563644669E+003	3.5480729E-001	-2.7035913E+002
3	0	2.106533563632038E+003	3.5480061E-001	-2.7036618E+002
3	0	2.107033563619407E+003	3.5464925E-001	-2.7036972E+002
3	0	2.107533563606776E+003	3.5446715E-001	-2.7038385E+002
3	0	2.108033563594145E+003	3.5460815E-001	-2.7039093E+002
3	0	2.108533563581514E+003	3.5480723E-001	-2.7037326E+002
3	0	2.109033563568883E+003	3.5483956E-001	-2.7039801E+002
3	0	2.109533563556251E+003	3.5479698E-001	-2.7039447E+002
3	0	2.110033563543620E+003	3.5475099E-001	-2.7034851E+002
3	0	2.110533563530989E+003	3.5466260E-001	-2.7038742E+002
3	0	2.111033563518358E+003	3.5450158E-001	-2.7038031E+002
3	0	2.111533563505727E+003	3.5429487E-001	-2.7035559E+002
3	0	2.112033563493096E+003	3.5440496E-001	-2.7036972E+002
3	0	2.112533563480465E+003	3.5454583E-001	-2.7036972E+002
3	0	2.113033563467834E+003	3.5454455E-001	-2.7038385E+002
3	0	2.113533563455203E+003	3.5448653E-001	-2.7038385E+002
3	0	2.114033563442572E+003	3.5442793E-001	-2.7038742E+002
3	0	2.114533563429941E+003	3.5435304E-001	-2.7038031E+002
3	0	2.115033563417310E+003	3.5426959E-001	-2.7038742E+002
3	0	2.115533563404679E+003	3.5420501E-001	-2.7037326E+002
3	0	2.116033563392048E+003	3.5448429E-001	-2.7036618E+002
3	0	2.116533563379417E+003	3.5485643E-001	-2.7037326E+002
3	0	2.117033563366786E+003	3.5515884E-001	-2.7040155E+002
3	0	2.117533563354154E+003	3.5539982E-001	-2.7039447E+002
3	0	2.118033563341523E+003	3.5561740E-001	-2.7037677E+002
3	0	2.118533563328892E+003	3.5577616E-001	-2.7039093E+002
3	0	2.119033563316261E+003	3.5578600E-001	-2.7036972E+002
3	0	2.119533563303630E+003	3.5573700E-001	-2.7038385E+002
3	0	2.120033563290999E+003	3.5594043E-001	-2.7035559E+002
3	0	2.120533563278368E+003	3.5613284E-001	-2.7037677E+002
3	0	2.121033563265737E+003	3.5616454E-001	-2.7034851E+002
3	0	2.121533563253106E+003	3.5614738E-001	-2.7038742E+002
3	0	2.122033563240475E+003	3.5610339E-001	-2.7039801E+002
3	0	2.122533563227844E+003	3.5600996E-001	-2.7036267E+002
3	0	2.123033563215213E+003	3.5577556E-001	-2.7038385E+002
3	0	2.123533563202582E+003	3.5555658E-001	-2.7037677E+002
3	0	2.124033563189951E+003	3.5557470E-001	-2.7036972E+002
3	0	2.124533563177320E+003	3.5564974E-001	-2.7037326E+002
3	0	2.125033563164689E+003	3.5560036E-001	-2.7038742E+002
3	0	2.125533563152057E+003	3.5546303E-001	-2.7036972E+002
3	0	2.126033563139426E+003	3.5532978E-001	-2.7035205E+002
3	0	2.126533563126795E+003	3.5514486E-001	-2.7036267E+002
3	0	2.127033563114164E+003	3.5481840E-001	-2.7040506E+002
3	0	2.127533563101533E+003	3.5450056E-001	-2.7039447E+002
3	0	2.128033563088902E+003	3.5445315E-001	-2.7036618E+002
3	0	2.128533563076271E+003	3.5446402E-001	-2.7038031E+002
3	0	2.129033563063640E+003	3.5436520E-001	-2.7040506E+002
3	0	2.129533563051009E+003	3.5423222E-001	-2.7039447E+002
3	0	2.130033563038378E+003	3.5406625E-001	-2.7038031E+002
3	0	2.130533563025747E+003	3.5388190E-001	-2.7038031E+002
3	0	2.131033563013116E+003	3.5357341E-001	-2.7037677E+002
3	0	2.131533563000485E+003	3.5325429E-001	-2.7036972E+002
3	0	2.132033562987854E+003	3.5320190E-001	-2.7037677E+002
3	0	2.132533562975223E+003	3.5319141E-001	-2.7038385E+002
3	0	2.133033562962592E+003	3.5304928E-001	-2.7038031E+002
3	0	2.133533562949960E+003	3.5286996E-001	-2.7039801E+002
3	0	2.134033562937329E+003	3.5270807E-001	-2.7039801E+002
3	0	2.134533562924698E+003	3.5251686E-001	-2.7038031E+002
3	0	2.135033562912067E+003	3.5232583E-001	-2.7037677E+002
3	0	2.135533562899436E+003	3.5215154E-001	-2.7038031E+002
3	0	2.136033562886805E+003	3.5226604E-001	-2.7037677E+002
3	0	2.136533562874174E+003	3.5253143E-001	-2.7037677E+002
3	0	2.137033562861543E+003	3.5273832E-001	-2.7038031E+002
3	0	2.137533562848912E+003	3.5290891E-001	-2.7037677E+002
3	0	2.138033562836281E+003	3.5303938E-001	-2.7039093E+002
3	0	2.138533562823650E+003	3.5310045E-001	-2.7038742E+002
3	0	2.139033562811019E+003	3.5302082E-001	-2.7036267E+002
3	0	2.139533562798388E+003	3.5290068E-001	-2.7037677E+002
3	0	2.140033562785757E+003	3.5301721E-001	-2.7037677E+002
3	0	2.140533562773126E+003	3.5315287E-001	-2.7039093E+002
3	0	2.141033562760495E+003	3.5314995E-001	-2.7038385E+002
3	0	2.141533562747863E+003	3.5308048E-001	-2.7037326E+002
3	0	2.142033562735232E+003	3.5297027E-001	-2.7037677E+002
3	0	2.142533562722601E+003	3.5283431E-001	-2.7035559E+002
3	0	2.143033562709970E+003	3.5256580E-001	-2.7038742E+002
3	0	2.143533562697339E+003	3.5222194E-001	-2.7037677E+002
3	0	2.144033562684708E+003	3.5214204E-001	-2.7036618E+002
3	0	2.144533562672077E+003	3.5213479E-001	-2.7037326E+002
3	0	2.145033562659446E+003	3.5200325E-001	-2.7038742E+002
3	0	2.145533562646815E+003	3.5181496E-001	-2.7036618E+002
3	0	2.146033562634184E+003	3.5161650E-001	-2.7035559E+002
3	0	2.146533562621553E+003	3.5138771E-001	-2.7036267E+002
3	0	2.147033562608922E+003	3.5104877E-001	-2.7040506E+002
3	0	2.147533562596291E+003	3.5069191E-001	-2.7036972E+002
3	0	2.148033562583660E+003	3.5057271E-001	-2.7035913E+002
3	0	2.148533562571029E+003	3.5053372E-001	-2.7040155E+002
3	0	2.149033562558398E+003	3.5039440E-001	-2.7040155E+002
3	0	2.149533562545766E+003	3.5019737E-001	-2.7036618E+002
3	0	2.150033562533135E+003	3.5000688E-001	-2.7038031E+002
3	0	2.150533562520504E+003	3.4978250E-001	-2.7038385E+002
3	0	2.151033562507873E+003	3.4939861E-001	-2.7037326E+002
3	0	2.151533562495242E+003	3.4900525E-001	-2.7038031E+002
3	0	2.152033562482611E+003	3.4888190E-001	-2.7036267E+002
3	0	2.152533562469980E+003	3.4883267E-001	-2.7039093E+002
3	0	2.153033562457349E+003	3.4867504E-001	-2.7038742E+002
3	0	2.153533562444718E+003	3.4848231E-001	-2.7038742E+002
3	0	2.154033562432087E+003	3.4829137E-001	-2.7039801E+002
3	0	2.154533562419456E+003	3.4807983E-001	-2.7035559E+002
3	0	2.155033562406825E+003	3.4779996E-001	-2.7036972E+002
3	0	2.155533562394194E+003	3.4758908E-001	-2.7037326E+002
3	0	2.156033562381563E+003	3.4768629E-001	-2.7040155E+002
3	0	2.156533562368932E+003	3.4790277E-001	-2.7036972E+002
3	0	2.157033562356301E+003	3.4805912E-001	-2.7039447E+002
3	0	2.157533562343669E+003	3.4817326E-001	-2.7037677E+002
3	0	2.158033562331038E+003	3.4830612E-001	-2.7038742E+002
3	0	2.158533562318407E+003	3.4839702E-001	-2.7036972E+002
3	0	2.159033562305776E+003	3.4838983E-001	-2.7038385E+002
3	0	2.159533562293145E+003	3.4831685E-001	-2.7039093E+002
3	0	2.160033562280514E+003	3.4841484E-001	-2.7037677E+002
3	0	2.160533562267883E+003	3.4856638E-001	-2.7036267E+002
3	0	2.161033562255252E+003	3.4859067E-001	-2.7037326E+002
3	0	2.161533562242621E+003	3.4850281E-001	-2.7038031E+002
3	0	2.162033562229990E+003	3.4840941E-001	-2.7039093E+002
3	0	2.162533562217359E+003	3.4825498E-001	-2.7037326E+002
3	0	2.163033562204728E+003	3.4796679E-001	-2.7039093E+002
3	0	2.163533562192097E+003	3.4765700E-001	-2.7037677E+002
3	0	2.164033562179466E+003	3.4757578E-001	-2.7038031E+002
3	0	2.164533562166835E+003	3.4754708E-001	-2.7038385E+002
3	0	2.165033562154204E+003	3.4742209E-001	-2.7036972E+002
3	0	2.165533562141572E+003	3.4722447E-001	-2.7040506E+002
3	0	2.166033562128941E+003	3.4703246E-001	-2.7037326E+002
3	0	2.166533562116310E+003	3.4681079E-001	-2.7038385E+002
3	0	2.167033562103679E+003	3.4645110E-001	-2.7039093E+002
3	0	2.167533562091048E+003	3.4606177E-001	-2.7039447E+002
3	0	2.168033562078417E+003	3.4592736E-001	-2.7037677E+002
3	0	2.168533562065786E+003	3.4587285E-001	-2.7039801E+002
3	0	2.169033562053155E+003	3.4572694E-001	-2.7039447E+002
3	0	2.169533562040524E+003	3.4551632E-001	-2.7039093E+002
3	0	2.170033562027893E+003	3.4528419E-001	-2.7040506E+002
3	0	2.170533562015262E+003	3.4501866E-001	-2.7041919E+002
3	0	2.171033562002631E+003	3.4465256E-001	-2.7038742E+002
3	0	2.171533561990000E+003	3.4426773E-001	-2.7036267E+002
3	0	2.172033561977369E+003	3.4409484E-001	-2.7035913E+002
3	0	2.172533561964738E+003	3.4400612E-001	-2.7037677E+002
3	0	2.173033561952107E+003	3.4385413E-001	-2.7037326E+002
3	0	2.173533561939475E+003	3.4365505E-001	-2.7038742E+002
3	0	2.174033561926844E+003	3.4342739E-001	-2.7036267E+002
3	0	2.174533561914213E+003	3.4322307E-001	-2.7040506E+002
3	0	2.175033561901582E+003	3.4293136E-001	-2.7036972E+002
3	0	2.175533561888951E+003	3.4266686E-001	-2.7038385E+002
3	0	2.176033561876320E+003	3.4267336E-001	-2.7038031E+002
3	0	2.176533561863689E+003	3.4276658E-001	-2.7037326E+002
3	0	2.177033561851058E+003	3.4276459E-001	-2.7038385E+002
3	0	2.177533561838427E+003	3.4269831E-001	-2.7037326E+002
3	0	2.178033561825796E+003	3.4260315E-001	-2.7039447E+002
3	0	2.178533561813165E+003	3.4247062E-001	-2.7037677E+002
3	0	2.179033561800534E+003	3.4221178E-001	-2.7039801E+002
3	0	2.179533561787903E+003	3.4189370E-001	-2.7037326E+002
3	0	2.180033561775272E+003	3.4179884E-001	-2.7039801E+002
3	0	2.180533561762641E+003	3.4178343E-001	-2.7036618E+002
3	0	2.181033561750010E+003	3.4168002E-001	-2.7038385E+002
3	0	2.181533561737378E+003	3.4150484E-001	-2.7038031E+002
3	0	2.182033561724747E+003	3.4129468E-001	-2.7037677E+002
3	0	2.182533561712116E+003	3.4106737E-001	-2.7039093E+002
3	0	2.183033561699485E+003	3.4074822E-001	-2.7036618E+002
3	0	2.183533561686854E+003	3.4037963E-001	-2.7035559E+002
3	0	2.184033561674223E+003	3.4020847E-001	-2.7037677E+002
3	0	2.184533561661592E+003	3.4013757E-001	-2.7036618E+002
3	0	2.185033561648961E+003	3.4001121E-001	-2.7038031E+002
3	0	2.185533561636330E+003	3.3983883E-001	-2.7037677E+002
3	0	2.186033561623699E+003	3.3963344E-001	-2.7039447E+002
3	0	2.186533561611068E+003	3.3937824E-001	-2.7036972E+002
3	0	2.187033561598437E+003	3.3903345E-001	-2.7035913E+002
3	0	2.187533561585806E+003	3.3866391E-001	-2.7037326E+002
3	0	2.188033561573175E+003	3.3851281E-001	-2.7036618E+002
3	0	2.188533561560544E+003	3.3844709E-001	-2.7036267E+002
3	0	2.189033561547913E+003	3.3831888E-001	-2.7035913E+002
3	0	2.189533561535281E+003	3.3812335E-001	-2.7038385E+002
3	0	2.190033561522650E+003	3.3794248E-001	-2.7035913E+002
3	0	2.190533561510019E+003	3.3774483E-001	-2.7034851E+002
3	0	2.191033561497388E+003	3.3744794E-001	-2.7037326E+002
3	0	2.191533561484757E+003	3.3709821E-001	-2.7038385E+002
3	0	2.192033561472126E+003	3.3696139E-001	-2.7035913E+002
3	0	2.192533561459495E+003	3.3690518E-001	-2.7036972E+002
3	0	2.193033561446864E+003	3.3679184E-001	-2.7035205E+002
3	0	2.193533561434233E+003	3.3661008E-001	-2.7038742E+002
3	0	2.194033561421602E+003	3.3642820E-001	-2.7034851E+002
3	0	2.194533561408971E+003	3.3623067E-001	-2.7036618E+002
3	0	2.195033561396340E+003	3.3599111E-001	-2.7039447E+002
3	0	2.195533561383709E+003	3.3575031E-001	-2.7040155E+002
3	0	2.196033561371078E+003	3.3573911E-001	-2.7038385E+002
3	0	2.196533561358447E+003	3.3589804E-001	-2.7038385E+002
3	0	2.197033561345816E+003	3.3605283E-001	-2.7037677E+002
3	0	2.197533561333184E+003	3.3619726E-001	-2.7035913E+002
3	0	2.198033561320553E+003	3.3635566E-001	-2.7036267E+002
3	0	2.198533561307922E+003	3.3651364E-001	-2.7038385E+002
3	0	2.199033561295291E+003	3.3657467E-001	-2.7039447E+002
3	0	2.199533561282660E+003	3.3657745E-001	-2.7036972E+002
3	0	2.200033561270029E+003	3.3675507E-001	-2.7036267E+002
3	0	2.200533561257398E+003	3.3696932E-001	-2.7036267E+002
3	0	2.201033561244767E+003	3.3708283E-001	-2.7036267E+002
3	0	2.201533561232136E+003	3.3709955E-001	-2.7038742E+002
3	0	2.202033561219505E+003	3.3705592E-001	-2.7038385E+002
3	0	2.202533561206874E+003	3.3697984E-001	-2.7038385E+002
3	0	2.203033561194243E+003	3.3675578E-001	-2.7036267E+002
3	0	2.203533561181612E+003	3.3648998E-001	-2.7039093E+002
3	0	2.204033561168981E+003	3.3639994E-001	-2.7038385E+002
3	0	2.204533561156350E+003	3.3637986E-001	-2.7035205E+002
3	0	2.205033561143719E+003	3.3628637E-001	-2.7037677E+002
3	0	2.205533561131087E+003	3.3612743E-001	-2.7038385E+002
3	0	2.206033561118456E+003	3.3593813E-001	-2.7037326E+002
3	0	2.206533561105825E+003	3.3571079E-001	-2.7038742E+002
3	0	2.207033561093194E+003	3.3537158E-001	-2.7035559E+002
3	0	2.207533561080563E+003	3.3500031E-001	-2.7041214E+002
3	0	2.208033561067932E+003	3.3480841E-001	-2.7037677E+002
3	0	2.208533561055301E+003	3.3471468E-001	-2.7037677E+002
3	0	2.209033561042670E+003	3.3458248E-001	-2.7036267E+002
3	0	2.209533561030039E+003	3.3438504E-001	-2.7036972E+002
3	0	2.210033561017408E+003	3.3417636E-001	-2.7037677E+002
3	0	2.210533561004777E+003	3.3392882E-001	-2.7039093E+002
3	0	2.211033560992146E+003	3.3360720E-001	-2.7036618E+002
3	0	2.211533560979515E+003	3.3323303E-001	-2.7036267E+002
3	0	2.212033560966884E+003	3.3305272E-001	-2.7039447E+002
3	0	2.212533560954253E+003	3.3295822E-001	-2.7036972E+002
3	0	2.213033560941622E+003	3.3281049E-001	-2.7036267E+002
3	0	2.213533560928990E+003	3.3261567E-001	-2.7034497E+002
3	0	2.214033560916359E+003	3.3242619E-001	-2.7041568E+002
3	0	2.214533560903728E+003	3.3222106E-001	-2.7038742E+002
3	0	2.215033560891097E+003	3.3192617E-001	-2.7038742E+002
3	0	2.215533560878466E+003	3.3160746E-001	-2.7037326E+002
3	0	2.216033560865835E+003	3.3154091E-001	-2.7037677E+002
3	0	2.216533560853204E+003	3.3162704E-001	-2.7039093E+002
3	0	2.217033560840573E+003	3.3170825E-001	-2.7035559E+002
3	0	2.217533560827942E+003	3.3179450E-001	-2.7038742E+002
3	0	2.218033560815311E+003	3.3191311E-001	-2.7036618E+002
3	0	2.218533560802680E+003	3.3199406E-001	-2.7036972E+002
3	0	2.219033560790049E+003	3.3198562E-001	-2.7038742E+002
3	0	2.219533560777418E+003	3.3190465E-001	-2.7037326E+002
3	0	2.220033560764787E+003	3.3194736E-001	-2.7036972E+002
3	0	2.220533560752156E+003	3.3206028E-001	-2.7038385E+002
3	0	2.221033560739525E+003	3.3211499E-001	-2.7038385E+002
3	0	2.221533560726893E+003	3.3207926E-001	-2.7038385E+002
3	0	2.222033560714262E+003	3.3200252E-001	-2.7036267E+002
3	0	2.222533560701631E+003	3.3185047E-001	-2.7037677E+002
3	0	2.223033560689000E+003	3.3158869E-001	-2.7036267E+002
3	0	2.223533560676369E+003	3.3125624E-001	-2.7039093E+002
3	0	2.224033560663738E+003	3.3109042E-001	-2.7038385E+002
3	0	2.224533560651107E+003	3.3100855E-001	-2.7037326E+002
3	0	2.225033560638476E+003	3.3088839E-001	-2.7035913E+002
3	0	2.225533560625845E+003	3.3070463E-001	-2.7038742E+002
3	0	2.226033560613214E+003	3.3051541E-001	-2.7036618E+002
3	0	2.226533560600583E+003	3.3026227E-001	-2.7038031E+002
3	0	2.227033560587952E+003	3.2995364E-001	-2.7038742E+002
3	0	2.227533560575321E+003	3.2958260E-001	-2.7040155E+002
3	0	2.228033560562690E+003	3.2939062E-001	-2.7039093E+002
3	0	2.228533560550059E+003	3.2927677E-001	-2.7040506E+002
3	0	2.229033560537428E+003	3.2913455E-001	-2.7035559E+002
3	0	2.229533560524796E+003	3.2893595E-001	-2.7038742E+002
3	0	2.230033560512165E+003	3.2872716E-001	-2.7036972E+002
3	0	2.230533560499534E+003	3.2848907E-001	-2.7038031E+002
3	0	2.231033560486903E+003	3.2817960E-001	-2.7038031E+002
3	0	2.231533560474272E+003	3.2782254E-001	-2.7036618E+002
3	0	2.232033560461641E+003	3.2762095E-001	-2.7036618E+002
3	0	2.232533560449010E+003	3.2751971E-001	-2.7035913E+002
3	0	2.233033560436379E+003	3.2738298E-001	-2.7036972E+002
3	0	2.233533560423748E+003	3.2719153E-001	-2.7039447E+002
3	0	2.234033560411117E+003	3.2698211E-001	-2.7037677E+002
3	0	2.234533560398486E+003	3.2675326E-001	-2.7036618E+002
3	0	2.235033560385855E+003	3.2647020E-001	-2.7038385E+002
3	0	2.235533560373224E+003	3.2617632E-001	-2.7037326E+002
3	0	2.236033560360593E+003	3.2610291E-001	-2.7038385E+002
3	0	2.236533560347962E+003	3.2616639E-001	-2.7038742E+002
3	0	2.237033560335331E+003	3.2624951E-001	-2.7039093E+002
3	0	2.237533560322699E+003	3.2633218E-001	-2.7036618E+002
3	0	2.238033560310068E+003	3.2643792E-001	-2.7037326E+002
3	0	2.238533560297437E+003	3.2652763E-001	-2.7040506E+002
3	0	2.239033560284806E+003	3.2653978E-001	-2.7037326E+002
3	0	2.239533560272175E+003	3.2646659E-001	-2.7039801E+002
3	0	2.240033560259544E+003	3.2649389E-001	-2.7036972E+002
3	0	2.240533560246913E+003	3.2657030E-001	-2.7036618E+002
3	0	2.241033560234282E+003	3.2659659E-001	-2.7039447E+002
3	0	2.241533560221651E+003	3.2653892E-001	-2.7036267E+002
3	0	2.242033560209020E+003	3.2645550E-001	-2.7038031E+002
3	0	2.242533560196389E+003	3.2632008E-001	-2.7037677E+002
3	0	2.243033560183758E+003	3.2607365E-001	-2.7040155E+002
3	0	2.243533560171127E+003	3.2577872E-001	-2.7038385E+002
3	0	2.244033560158496E+003	3.2561442E-001	-2.7038031E+002
3	0	2.244533560145865E+003	3.2554337E-001	-2.7038031E+002
3	0	2.245033560133234E+003	3.2543916E-001	-2.7038385E+002
3	0	2.245533560120602E+003	3.2526985E-001	-2.7036618E+002
3	0	2.246033560107971E+003	3.2506302E-001	-2.7032730E+002
3	0	2.246533560095340E+003	3.2483485E-001	-2.7040155E+002
3	0	2.247033560082709E+003	3.2451820E-001	-2.7039447E+002
3	0	2.247533560070078E+003	3.2415411E-001	-2.7038385E+002
3	0	2.248033560057447E+003	3.2394511E-001	-2.7036267E+002
3	0	2.248533560044816E+003	3.2381994E-001	-2.7041214E+002
3	0	2.249033560032185E+003	3.2367668E-001	-2.7038031E+002
3	0	2.249533560019554E+003	3.2347873E-001	-2.7037677E+002
3	0	2.250033560006923E+003	3.2327166E-001	-2.7036972E+002
3	0	2.250533559994292E+003	3.2303560E-001	-2.7038031E+002
3	0	2.251033559981661E+003	3.2272705E-001	-2.7038385E+002
3	0	2.251533559969030E+003	3.2236871E-001	-2.7037326E+002
3	0	2.252033559956399E+003	3.2214874E-001	-2.7037677E+002
3	0	2.252533559943768E+003	3.2201970E-001	-2.7038385E+002
3	0	2.253033559931137E+003	3.2187369E-001	-2.7039093E+002
3	0	2.253533559918505E+003	3.2168764E-001	-2.7038742E+002
3	0	2.254033559905874E+003	3.2148695E-001	-2.7038031E+002
3	0	2.254533559893243E+003	3.2127482E-001	-2.7037326E+002
3	0	2.255033559880612E+003	3.2101336E-001	-2.7040506E+002
3	0	2.255533559867981E+003	3.2073265E-001	-2.7040506E+002
3	0	2.256033559855350E+003	3.2064459E-001	-2.7038031E+002
3	0	2.256533559842719E+003	3.2069829E-001	-2.7038742E+002
3	0	2.256559159842072E+003	3.2074466E-001	-2.7037677E+002