EC-Lab ASCII FILE
Nb header lines : 55                          

Open Circuit Voltage

Run on channel : 1 (SN 81504)
User : 
CE vs. WE compliance from -10 V to 10 V
Electrode connection : standard
Potential control : Ewe
Ewe ctrl range : min = -2.50 V, max = 2.50 V
Safety Limits :
	Do not start on E overload
Acquisition started on : 05/10/2026 09:06:36.404
Loaded Setting File :  C:\PEM-WE_measurements\2026\372_IV_IV IrOx, 5 min Pt, 30 min C, etched cathode\new station\Loopeis new\1,46 V different time gaps closed cell\Loopeis 1,46V_180s_3_PEIS from 6500Hz to 1000Hz.mps
Saved on :
	File : L_28_Loopeis 1,46V_180s_3_PEIS from 6500Hz to 1000Hz_02_OCV_C01.mpr
	Directory : C:\PEM-WE_measurements\2026\372_IV_IV IrOx, 5 min Pt, 30 min C, etched cathode\new station\Loopeis new\1,46 V different time gaps closed cell\
	Host : 192.168.0.2
Device : SP-150e (SN .005491)
Address : 192.168.0.91
EC-LAB for windows v11.71 (software)
Internet server v28.00 (firmware)
Command interpretor v14.01 (firmware)
Electrode material : 
Initial state : 
Electrolyte : 
Comments : 
Current amplifier : SP-150eB-20A
Electrode surface area : 0.001 cm²
Characteristic mass : 0.001 g
Equivalent Weight : 0.000 g/eq.
Density : 0.000 g/cm3
Volume (V) : 0.001 cm³
Record Analogic IN 1
Text export
   Mode : Standard
   Time format : Elapsed
Cycle Definition : Charge/Discharge alternance
External device configuration :
   device type : Temperature Probe
   device name : Other
   Analog IN 1 : 
      unit : T/Â°C
      max : 100.000 at 2.000 V
      min : 0.000 at 1.460 V
tR (h:m:s)          0:03:0.0000         
dER/dt (mV/h)       1.0                 
record              <Ewe>               
dER (mV)            10.00               
dtR (s)             0.5000              
E range min (V)     -2.500              
E range max (V)     2.500               

mode	error	time/s	<Ewe/V>	Analog IN 1/V	
3	0	4.549979885057837E+001	1.2912354E+000	-2.7034851E+002
3	0	4.599979883794731E+001	1.2975613E+000	-2.7038385E+002
3	0	4.649979882531625E+001	1.2856306E+000	-2.7038031E+002
3	0	4.699979881268519E+001	1.2627088E+000	-2.7038385E+002
3	0	4.749979880005412E+001	1.2238821E+000	-2.7038742E+002
3	0	4.799979878742306E+001	1.1548508E+000	-2.7037677E+002
3	0	4.849979877479200E+001	9.3069440E-001	-2.7039093E+002
3	0	4.899979876216094E+001	5.1686043E-001	-2.7037326E+002
3	0	4.949979874952987E+001	3.9175743E-001	-2.7038385E+002
3	0	4.999979873689881E+001	3.6848718E-001	-2.7039447E+002
3	0	5.049979872426775E+001	3.6493146E-001	-2.7038031E+002
3	0	5.099979871163669E+001	3.6489111E-001	-2.7038742E+002
3	0	5.149979869900562E+001	3.6529857E-001	-2.7040506E+002
3	0	5.199979868637456E+001	3.6552027E-001	-2.7038742E+002
3	0	5.249979867374350E+001	3.6568728E-001	-2.7039447E+002
3	0	5.299979866111244E+001	3.6607805E-001	-2.7038385E+002
3	0	5.349979864848137E+001	3.6625585E-001	-2.7037677E+002
3	0	5.399979863585031E+001	3.6635748E-001	-2.7036267E+002
3	0	5.449979862321925E+001	3.6647135E-001	-2.7038742E+002
3	0	5.499979861058819E+001	3.6659700E-001	-2.7037677E+002
3	0	5.549979859795712E+001	3.6664668E-001	-2.7038742E+002
3	0	5.599979858532606E+001	3.6660165E-001	-2.7040860E+002
3	0	5.649979857269500E+001	3.6660063E-001	-2.7038742E+002
3	0	5.699979856006394E+001	3.6693168E-001	-2.7038385E+002
3	0	5.749979854743287E+001	3.6712489E-001	-2.7035559E+002
3	0	5.799979853480181E+001	3.6728483E-001	-2.7038031E+002
3	0	5.849979852217075E+001	3.6744013E-001	-2.7038031E+002
3	0	5.899979850953969E+001	3.6756057E-001	-2.7035559E+002
3	0	5.949979849690862E+001	3.6763409E-001	-2.7040506E+002
3	0	5.999979848427756E+001	3.6763492E-001	-2.7035913E+002
3	0	6.049979847164650E+001	3.6765933E-001	-2.7038031E+002
3	0	6.099979845901544E+001	3.6799452E-001	-2.7038385E+002
3	0	6.149979844638438E+001	3.6822113E-001	-2.7037677E+002
3	0	6.199979843375331E+001	3.6843035E-001	-2.7035559E+002
3	0	6.249979842112225E+001	3.6868358E-001	-2.7039447E+002
3	0	6.299979840849119E+001	3.6893579E-001	-2.7036618E+002
3	0	6.349979839586013E+001	3.6914745E-001	-2.7036972E+002
3	0	6.399979838322906E+001	3.6932573E-001	-2.7035913E+002
3	0	6.449979837059800E+001	3.6960819E-001	-2.7038742E+002
3	0	6.499979835796694E+001	3.7022653E-001	-2.7035559E+002
3	0	6.549979834533588E+001	3.7073123E-001	-2.7039093E+002
3	0	6.599979833270481E+001	3.7116444E-001	-2.7036972E+002
3	0	6.649979832007375E+001	3.7152526E-001	-2.7039093E+002
3	0	6.699979830744269E+001	3.7184465E-001	-2.7036972E+002
3	0	6.749979829481163E+001	3.7206230E-001	-2.7035913E+002
3	0	6.799979828218056E+001	3.7213758E-001	-2.7036618E+002
3	0	6.849979826954950E+001	3.7217668E-001	-2.7036972E+002
3	0	6.899979825691844E+001	3.7252772E-001	-2.7038742E+002
3	0	6.949979824428738E+001	3.7275344E-001	-2.7036618E+002
3	0	6.999979823165631E+001	3.7290713E-001	-2.7036267E+002
3	0	7.049979821902525E+001	3.7301207E-001	-2.7038742E+002
3	0	7.099979820639419E+001	3.7310204E-001	-2.7036618E+002
3	0	7.149979819376313E+001	3.7310550E-001	-2.7038385E+002
3	0	7.199979818113206E+001	3.7301826E-001	-2.7035913E+002
3	0	7.249979816850100E+001	3.7293607E-001	-2.7034851E+002
3	0	7.299979815586994E+001	3.7314487E-001	-2.7038031E+002
3	0	7.349979814323888E+001	3.7327212E-001	-2.7036267E+002
3	0	7.399979813060781E+001	3.7333277E-001	-2.7036972E+002
3	0	7.449979811797675E+001	3.7335643E-001	-2.7036267E+002
3	0	7.499979810534569E+001	3.7334928E-001	-2.7038031E+002
3	0	7.549979809271463E+001	3.7323684E-001	-2.7037677E+002
3	0	7.599979808008356E+001	3.7305886E-001	-2.7040155E+002
3	0	7.649979806745250E+001	3.7288383E-001	-2.7038385E+002
3	0	7.699979805482144E+001	3.7303033E-001	-2.7038031E+002
3	0	7.749979804219038E+001	3.7308577E-001	-2.7038031E+002
3	0	7.799979802955932E+001	3.7309951E-001	-2.7039093E+002
3	0	7.849979801692825E+001	3.7308568E-001	-2.7035559E+002
3	0	7.899979800429719E+001	3.7303644E-001	-2.7037677E+002
3	0	7.949979799166613E+001	3.7291569E-001	-2.7040860E+002
3	0	7.999979797903507E+001	3.7270719E-001	-2.7038742E+002
3	0	8.049979796640400E+001	3.7251082E-001	-2.7036972E+002
3	0	8.099979795377294E+001	3.7262034E-001	-2.7038385E+002
3	0	8.149979794114188E+001	3.7264061E-001	-2.7039447E+002
3	0	8.199979792851082E+001	3.7263131E-001	-2.7039093E+002
3	0	8.249979791587975E+001	3.7264642E-001	-2.7036267E+002
3	0	8.299979790324869E+001	3.7270734E-001	-2.7041919E+002
3	0	8.349979789061763E+001	3.7275341E-001	-2.7034851E+002
3	0	8.399979787798657E+001	3.7273604E-001	-2.7038742E+002
3	0	8.449979786535550E+001	3.7281144E-001	-2.7038385E+002
3	0	8.499979785272444E+001	3.7318668E-001	-2.7038742E+002
3	0	8.549979784009338E+001	3.7350404E-001	-2.7038742E+002
3	0	8.599979782746232E+001	3.7375283E-001	-2.7037326E+002
3	0	8.649979781483125E+001	3.7395725E-001	-2.7038385E+002
3	0	8.699979780220019E+001	3.7408110E-001	-2.7037326E+002
3	0	8.749979778956913E+001	3.7413815E-001	-2.7036972E+002
3	0	8.799979777693807E+001	3.7404704E-001	-2.7038385E+002
3	0	8.849979776430700E+001	3.7391686E-001	-2.7038742E+002
3	0	8.899979775167594E+001	3.7406090E-001	-2.7040860E+002
3	0	8.949979773904488E+001	3.7414232E-001	-2.7035559E+002
3	0	8.999979772641382E+001	3.7414423E-001	-2.7039801E+002
3	0	9.049979771378275E+001	3.7411198E-001	-2.7038031E+002
3	0	9.099979770115169E+001	3.7403390E-001	-2.7037677E+002
3	0	9.149979768852063E+001	3.7390330E-001	-2.7037677E+002
3	0	9.199979767588957E+001	3.7365267E-001	-2.7036972E+002
3	0	9.249979766325851E+001	3.7338603E-001	-2.7038742E+002
3	0	9.299979765062744E+001	3.7339318E-001	-2.7036972E+002
3	0	9.349979763799638E+001	3.7335676E-001	-2.7036267E+002
3	0	9.399979762536532E+001	3.7324753E-001	-2.7038385E+002
3	0	9.449979761273426E+001	3.7311092E-001	-2.7038031E+002
3	0	9.499979760010319E+001	3.7295258E-001	-2.7041214E+002
3	0	9.549979758747213E+001	3.7274799E-001	-2.7038742E+002
3	0	9.599979757484107E+001	3.7244296E-001	-2.7040506E+002
3	0	9.649979756221001E+001	3.7214246E-001	-2.7036267E+002
3	0	9.699979754957894E+001	3.7211260E-001	-2.7038742E+002
3	0	9.749979753694788E+001	3.7204573E-001	-2.7037326E+002
3	0	9.799979752431682E+001	3.7192196E-001	-2.7040155E+002
3	0	9.849979751168576E+001	3.7178275E-001	-2.7037326E+002
3	0	9.899979749905469E+001	3.7161154E-001	-2.7037326E+002
3	0	9.949979748642363E+001	3.7139642E-001	-2.7035559E+002
3	0	9.999979747379257E+001	3.7108275E-001	-2.7034851E+002
3	0	1.004997974611615E+002	3.7075025E-001	-2.7035559E+002
3	0	1.009997974485304E+002	3.7070814E-001	-2.7040155E+002
3	0	1.014997974358994E+002	3.7062863E-001	-2.7035913E+002
3	0	1.019997974232683E+002	3.7050393E-001	-2.7036618E+002
3	0	1.024997974106373E+002	3.7038907E-001	-2.7039447E+002
3	0	1.029997973980062E+002	3.7030065E-001	-2.7039093E+002
3	0	1.034997973853751E+002	3.7024850E-001	-2.7037677E+002
3	0	1.039997973727441E+002	3.7013113E-001	-2.7037326E+002
3	0	1.044997973601130E+002	3.7007296E-001	-2.7038031E+002
3	0	1.049997973474819E+002	3.7035167E-001	-2.7036267E+002
3	0	1.054997973348509E+002	3.7061954E-001	-2.7038385E+002
3	0	1.059997973222198E+002	3.7082320E-001	-2.7040860E+002
3	0	1.064997973095888E+002	3.7098664E-001	-2.7038031E+002
3	0	1.069997972969577E+002	3.7104523E-001	-2.7039447E+002
3	0	1.074997972843266E+002	3.7103990E-001	-2.7038385E+002
3	0	1.079997972716956E+002	3.7087768E-001	-2.7037677E+002
3	0	1.084997972590645E+002	3.7069425E-001	-2.7039447E+002
3	0	1.089997972464334E+002	3.7075061E-001	-2.7039801E+002
3	0	1.094997972338024E+002	3.7076238E-001	-2.7038742E+002
3	0	1.099997972211713E+002	3.7070179E-001	-2.7036618E+002
3	0	1.104997972085403E+002	3.7060466E-001	-2.7038031E+002
3	0	1.109997971959092E+002	3.7046400E-001	-2.7037326E+002
3	0	1.114997971832781E+002	3.7025616E-001	-2.7036972E+002
3	0	1.119997971706471E+002	3.6991712E-001	-2.7038385E+002
3	0	1.124997971580160E+002	3.6962295E-001	-2.7036618E+002
3	0	1.129997971453849E+002	3.6958465E-001	-2.7038742E+002
3	0	1.134997971327539E+002	3.6949742E-001	-2.7035913E+002
3	0	1.139997971201228E+002	3.6936739E-001	-2.7037677E+002
3	0	1.144997971074918E+002	3.6920583E-001	-2.7036618E+002
3	0	1.149997970948607E+002	3.6900735E-001	-2.7039801E+002
3	0	1.154997970822296E+002	3.6873490E-001	-2.7037326E+002
3	0	1.159997970695986E+002	3.6842531E-001	-2.7035559E+002
3	0	1.164997970569675E+002	3.6810517E-001	-2.7037326E+002
3	0	1.169997970443364E+002	3.6803570E-001	-2.7038031E+002
3	0	1.174997970317054E+002	3.6792162E-001	-2.7040860E+002
3	0	1.179997970190743E+002	3.6775118E-001	-2.7038031E+002
3	0	1.184997970064433E+002	3.6753765E-001	-2.7036618E+002
3	0	1.189997969938122E+002	3.6733955E-001	-2.7038031E+002
3	0	1.194997969811811E+002	3.6708885E-001	-2.7036972E+002
3	0	1.199997969685501E+002	3.6673805E-001	-2.7038385E+002
3	0	1.204997969559190E+002	3.6638850E-001	-2.7037326E+002
3	0	1.209997969432879E+002	3.6628345E-001	-2.7038385E+002
3	0	1.214997969306569E+002	3.6615977E-001	-2.7037677E+002
3	0	1.219997969180258E+002	3.6600739E-001	-2.7039447E+002
3	0	1.224997969053948E+002	3.6585480E-001	-2.7039093E+002
3	0	1.229997968927637E+002	3.6572102E-001	-2.7036972E+002
3	0	1.234997968801326E+002	3.6548957E-001	-2.7037326E+002
3	0	1.239997968675016E+002	3.6538416E-001	-2.7036618E+002
3	0	1.244997968548705E+002	3.6546469E-001	-2.7038031E+002
3	0	1.249997968422394E+002	3.6574301E-001	-2.7038385E+002
3	0	1.254997968296084E+002	3.6599186E-001	-2.7037677E+002
3	0	1.259997968169773E+002	3.6609235E-001	-2.7038031E+002
3	0	1.264997968043463E+002	3.6615214E-001	-2.7038385E+002
3	0	1.269997967917152E+002	3.6620218E-001	-2.7037326E+002
3	0	1.274997967790841E+002	3.6610961E-001	-2.7039447E+002
3	0	1.279997967664531E+002	3.6592799E-001	-2.7038385E+002
3	0	1.284997967538220E+002	3.6569658E-001	-2.7038742E+002
3	0	1.289997967411909E+002	3.6571655E-001	-2.7038742E+002
3	0	1.294997967285599E+002	3.6576560E-001	-2.7035205E+002
3	0	1.299997967159288E+002	3.6567247E-001	-2.7036618E+002
3	0	1.304997967032978E+002	3.6549869E-001	-2.7038385E+002
3	0	1.309997966906667E+002	3.6532998E-001	-2.7038031E+002
3	0	1.314997966780356E+002	3.6508787E-001	-2.7038031E+002
3	0	1.319997966654046E+002	3.6477947E-001	-2.7037326E+002
3	0	1.324997966527735E+002	3.6444494E-001	-2.7036618E+002
3	0	1.329997966401424E+002	3.6436278E-001	-2.7039093E+002
3	0	1.334997966275114E+002	3.6431906E-001	-2.7039093E+002
3	0	1.339997966148803E+002	3.6417419E-001	-2.7038031E+002
3	0	1.344997966022493E+002	3.6396015E-001	-2.7036267E+002
3	0	1.349997965896182E+002	3.6372346E-001	-2.7037677E+002
3	0	1.354997965769871E+002	3.6346844E-001	-2.7038385E+002
3	0	1.359997965643561E+002	3.6307797E-001	-2.7040506E+002
3	0	1.364997965517250E+002	3.6269608E-001	-2.7038385E+002
3	0	1.369997965390940E+002	3.6260021E-001	-2.7035913E+002
3	0	1.374997965264629E+002	3.6255375E-001	-2.7038031E+002
3	0	1.379997965138318E+002	3.6239684E-001	-2.7038385E+002
3	0	1.384997965012008E+002	3.6217862E-001	-2.7039447E+002
3	0	1.389997964885697E+002	3.6194310E-001	-2.7036618E+002
3	0	1.394997964759386E+002	3.6166090E-001	-2.7037677E+002
3	0	1.399997964633076E+002	3.6128092E-001	-2.7035913E+002
3	0	1.404997964506765E+002	3.6090791E-001	-2.7039447E+002
3	0	1.409997964380455E+002	3.6080858E-001	-2.7036972E+002
3	0	1.414997964254144E+002	3.6076006E-001	-2.7039447E+002
3	0	1.419997964127833E+002	3.6060601E-001	-2.7037677E+002
3	0	1.424997964001523E+002	3.6042359E-001	-2.7036972E+002
3	0	1.429997963875212E+002	3.6027899E-001	-2.7040506E+002
3	0	1.434997963748901E+002	3.6012012E-001	-2.7038385E+002
3	0	1.439997963622591E+002	3.5993817E-001	-2.7038031E+002
3	0	1.444997963496280E+002	3.5982591E-001	-2.7036618E+002
3	0	1.449997963369970E+002	3.5999879E-001	-2.7038385E+002
3	0	1.454997963243659E+002	3.6027083E-001	-2.7038742E+002
3	0	1.459997963117348E+002	3.6044702E-001	-2.7037677E+002
3	0	1.464997962991038E+002	3.6051679E-001	-2.7038742E+002
3	0	1.469997962864727E+002	3.6054438E-001	-2.7037677E+002
3	0	1.474997962738416E+002	3.6050922E-001	-2.7038742E+002
3	0	1.479997962612106E+002	3.6031440E-001	-2.7038742E+002
3	0	1.484997962485795E+002	3.6011377E-001	-2.7036267E+002
3	0	1.489997962359485E+002	3.6011958E-001	-2.7040155E+002
3	0	1.494997962233174E+002	3.6015978E-001	-2.7038031E+002
3	0	1.499997962106863E+002	3.6009267E-001	-2.7037677E+002
3	0	1.504997961980553E+002	3.5995653E-001	-2.7038742E+002
3	0	1.509997961854242E+002	3.5979933E-001	-2.7036972E+002
3	0	1.514997961727931E+002	3.5959005E-001	-2.7040155E+002
3	0	1.519997961601621E+002	3.5924947E-001	-2.7039801E+002
3	0	1.524997961475310E+002	3.5888922E-001	-2.7038385E+002
3	0	1.529997961349000E+002	3.5878974E-001	-2.7035559E+002
3	0	1.534997961222689E+002	3.5874948E-001	-2.7039447E+002
3	0	1.539997961096378E+002	3.5859537E-001	-2.7036618E+002
3	0	1.544997960970068E+002	3.5839468E-001	-2.7039093E+002
3	0	1.549997960843757E+002	3.5817745E-001	-2.7039801E+002
3	0	1.554997960717446E+002	3.5791892E-001	-2.7040155E+002
3	0	1.559997960591136E+002	3.5756269E-001	-2.7037326E+002
3	0	1.564997960464825E+002	3.5719460E-001	-2.7039447E+002
3	0	1.569997960338515E+002	3.5703832E-001	-2.7038385E+002
3	0	1.574997960212204E+002	3.5696453E-001	-2.7038031E+002
3	0	1.579997960085893E+002	3.5681468E-001	-2.7038742E+002
3	0	1.584997959959583E+002	3.5658675E-001	-2.7039093E+002
3	0	1.589997959833272E+002	3.5635391E-001	-2.7036972E+002
3	0	1.594997959706961E+002	3.5606548E-001	-2.7037677E+002
3	0	1.599997959580651E+002	3.5571036E-001	-2.7039801E+002
3	0	1.604997959454340E+002	3.5533324E-001	-2.7037677E+002
3	0	1.609997959328030E+002	3.5519642E-001	-2.7037677E+002
3	0	1.614997959201719E+002	3.5511485E-001	-2.7036972E+002
3	0	1.619997959075408E+002	3.5494989E-001	-2.7041214E+002
3	0	1.624997958949098E+002	3.5473451E-001	-2.7038385E+002
3	0	1.629997958822787E+002	3.5455123E-001	-2.7038031E+002
3	0	1.634997958696476E+002	3.5441899E-001	-2.7036267E+002
3	0	1.639997958570166E+002	3.5422021E-001	-2.7036618E+002
3	0	1.644997958443855E+002	3.5404974E-001	-2.7040155E+002
3	0	1.649997958317545E+002	3.5417789E-001	-2.7037677E+002
3	0	1.654997958191234E+002	3.5442367E-001	-2.7036972E+002
3	0	1.659997958064923E+002	3.5461432E-001	-2.7038742E+002
3	0	1.664997957938613E+002	3.5473263E-001	-2.7037326E+002
3	0	1.669997957812302E+002	3.5482410E-001	-2.7037677E+002
3	0	1.674997957685991E+002	3.5482621E-001	-2.7038742E+002
3	0	1.679997957559681E+002	3.5470209E-001	-2.7039447E+002
3	0	1.684997957433370E+002	3.5451412E-001	-2.7039447E+002
3	0	1.689997957307060E+002	3.5452953E-001	-2.7039093E+002
3	0	1.694997957180749E+002	3.5459808E-001	-2.7038385E+002
3	0	1.699997957054438E+002	3.5456416E-001	-2.7036267E+002
3	0	1.704997956928128E+002	3.5444370E-001	-2.7034497E+002
3	0	1.709997956801817E+002	3.5429332E-001	-2.7038385E+002
3	0	1.714997956675506E+002	3.5406619E-001	-2.7040506E+002
3	0	1.719997956549196E+002	3.5373199E-001	-2.7038031E+002
3	0	1.724997956422885E+002	3.5337356E-001	-2.7038031E+002
3	0	1.729997956296575E+002	3.5325724E-001	-2.7034851E+002
3	0	1.734997956170264E+002	3.5321364E-001	-2.7034497E+002
3	0	1.739997956043953E+002	3.5307762E-001	-2.7039447E+002
3	0	1.744997955917643E+002	3.5286042E-001	-2.7040155E+002
3	0	1.749997955791332E+002	3.5263598E-001	-2.7035559E+002
3	0	1.754997955665021E+002	3.5235658E-001	-2.7037677E+002
3	0	1.759997955538711E+002	3.5200277E-001	-2.7037677E+002
3	0	1.764997955412400E+002	3.5162640E-001	-2.7039447E+002
3	0	1.769997955286090E+002	3.5146585E-001	-2.7037326E+002
3	0	1.774997955159779E+002	3.5139471E-001	-2.7038031E+002
3	0	1.779997955033468E+002	3.5124052E-001	-2.7042627E+002
3	0	1.784997954907158E+002	3.5102946E-001	-2.7038385E+002
3	0	1.789997954780847E+002	3.5081205E-001	-2.7036972E+002
3	0	1.794997954654536E+002	3.5056266E-001	-2.7039801E+002
3	0	1.799997954528226E+002	3.5022411E-001	-2.7038385E+002
3	0	1.804997954401915E+002	3.4985921E-001	-2.7036972E+002
3	0	1.809997954275605E+002	3.4969988E-001	-2.7039801E+002
3	0	1.814997954149294E+002	3.4964252E-001	-2.7036972E+002
3	0	1.819997954022983E+002	3.4951898E-001	-2.7037326E+002
3	0	1.824997953896673E+002	3.4933653E-001	-2.7035559E+002
3	0	1.829997953770362E+002	3.4917566E-001	-2.7038031E+002
3	0	1.834997953644051E+002	3.4901369E-001	-2.7038385E+002
3	0	1.839997953517741E+002	3.4880373E-001	-2.7035913E+002
3	0	1.844997953391430E+002	3.4863293E-001	-2.7036972E+002
3	0	1.849997953265120E+002	3.4873345E-001	-2.7039447E+002
3	0	1.854997953138809E+002	3.4894440E-001	-2.7040155E+002
3	0	1.859997953012498E+002	3.4911671E-001	-2.7038385E+002
3	0	1.864997952886188E+002	3.4924239E-001	-2.7038742E+002
3	0	1.869997952759877E+002	3.4934354E-001	-2.7040155E+002
3	0	1.874997952633566E+002	3.4934965E-001	-2.7039093E+002
3	0	1.879997952507256E+002	3.4922501E-001	-2.7037677E+002
3	0	1.884997952380945E+002	3.4903029E-001	-2.7036972E+002
3	0	1.889997952254635E+002	3.4903523E-001	-2.7037326E+002
3	0	1.894997952128324E+002	3.4908238E-001	-2.7038742E+002
3	0	1.899997952002013E+002	3.4904838E-001	-2.7038385E+002
3	0	1.904997951875703E+002	3.4893599E-001	-2.7037326E+002
3	0	1.909997951749392E+002	3.4880286E-001	-2.7039093E+002
3	0	1.914997951623081E+002	3.4857926E-001	-2.7036618E+002
3	0	1.919997951496771E+002	3.4826845E-001	-2.7038031E+002
3	0	1.924997951370460E+002	3.4793341E-001	-2.7036267E+002
3	0	1.929997951244150E+002	3.4781745E-001	-2.7040860E+002
3	0	1.934997951117839E+002	3.4778246E-001	-2.7034497E+002
3	0	1.939997950991528E+002	3.4767416E-001	-2.7036618E+002
3	0	1.944997950865218E+002	3.4748167E-001	-2.7036267E+002
3	0	1.949997950738907E+002	3.4728175E-001	-2.7038031E+002
3	0	1.954997950612596E+002	3.4697980E-001	-2.7037326E+002
3	0	1.959997950486286E+002	3.4659481E-001	-2.7039447E+002
3	0	1.964997950359975E+002	3.4621695E-001	-2.7036972E+002
3	0	1.969997950233665E+002	3.4607050E-001	-2.7037677E+002
3	0	1.974997950107354E+002	3.4598455E-001	-2.7038031E+002
3	0	1.979997949981043E+002	3.4583473E-001	-2.7037326E+002
3	0	1.984997949854733E+002	3.4562361E-001	-2.7037677E+002
3	0	1.989997949728422E+002	3.4539801E-001	-2.7037677E+002
3	0	1.994997949602111E+002	3.4515652E-001	-2.7038031E+002
3	0	1.999997949475801E+002	3.4480298E-001	-2.7037677E+002
3	0	2.004997949349490E+002	3.4442461E-001	-2.7038742E+002
3	0	2.009997949223180E+002	3.4425294E-001	-2.7039093E+002
3	0	2.014997949096869E+002	3.4415489E-001	-2.7040155E+002
3	0	2.019997948970558E+002	3.4399867E-001	-2.7037326E+002
3	0	2.024997948844248E+002	3.4380621E-001	-2.7039093E+002
3	0	2.029997948717937E+002	3.4363067E-001	-2.7037677E+002
3	0	2.034997948591626E+002	3.4344488E-001	-2.7037326E+002
3	0	2.039997948465316E+002	3.4323993E-001	-2.7039093E+002
3	0	2.044997948339005E+002	3.4305963E-001	-2.7038385E+002
3	0	2.049997948212695E+002	3.4312963E-001	-2.7038031E+002
3	0	2.054997948086384E+002	3.4333980E-001	-2.7036618E+002
3	0	2.059997947960073E+002	3.4351385E-001	-2.7035913E+002
3	0	2.064997947833763E+002	3.4362069E-001	-2.7037677E+002
3	0	2.069997947707452E+002	3.4369767E-001	-2.7039801E+002
3	0	2.074997947581141E+002	3.4370565E-001	-2.7035913E+002
3	0	2.079997947454831E+002	3.4357384E-001	-2.7038742E+002
3	0	2.084997947328520E+002	3.4339201E-001	-2.7037677E+002
3	0	2.089997947202210E+002	3.4338501E-001	-2.7038031E+002
3	0	2.094997947075899E+002	3.4343669E-001	-2.7036618E+002
3	0	2.099997946949588E+002	3.4339792E-001	-2.7037326E+002
3	0	2.104997946823278E+002	3.4327149E-001	-2.7036972E+002
3	0	2.109997946696967E+002	3.4312719E-001	-2.7038031E+002
3	0	2.114997946570657E+002	3.4291875E-001	-2.7036618E+002
3	0	2.119997946444346E+002	3.4263772E-001	-2.7038385E+002
3	0	2.124997946318035E+002	3.4230101E-001	-2.7040155E+002
3	0	2.129997946191725E+002	3.4216622E-001	-2.7039447E+002
3	0	2.134997946065414E+002	3.4210289E-001	-2.7036267E+002
3	0	2.139997945939103E+002	3.4197971E-001	-2.7039801E+002
3	0	2.144997945812793E+002	3.4177461E-001	-2.7036972E+002
3	0	2.149997945686482E+002	3.4155253E-001	-2.7037326E+002
3	0	2.154997945560172E+002	3.4131223E-001	-2.7037326E+002
3	0	2.159997945433861E+002	3.4097856E-001	-2.7039093E+002
3	0	2.164997945307550E+002	3.4061688E-001	-2.7039801E+002
3	0	2.169997945181240E+002	3.4044299E-001	-2.7040155E+002
3	0	2.174997945054929E+002	3.4035650E-001	-2.7039093E+002
3	0	2.179997944928618E+002	3.4022206E-001	-2.7035913E+002
3	0	2.184997944802308E+002	3.4001392E-001	-2.7038742E+002
3	0	2.189997944675997E+002	3.3979413E-001	-2.7039093E+002
3	0	2.194997944549687E+002	3.3954245E-001	-2.7038742E+002
3	0	2.199997944423376E+002	3.3920145E-001	-2.7039447E+002
3	0	2.204997944297065E+002	3.3883151E-001	-2.7036618E+002
3	0	2.209997944170755E+002	3.3866173E-001	-2.7038031E+002
3	0	2.214997944044444E+002	3.3857849E-001	-2.7034851E+002
3	0	2.219997943918133E+002	3.3846310E-001	-2.7036618E+002
3	0	2.224997943791823E+002	3.3827969E-001	-2.7037677E+002
3	0	2.229997943665512E+002	3.3809069E-001	-2.7037326E+002
3	0	2.234997943539202E+002	3.3788580E-001	-2.7036618E+002
3	0	2.239997943412891E+002	3.3765924E-001	-2.7036618E+002
3	0	2.244997943286580E+002	3.3744997E-001	-2.7036618E+002
3	0	2.249997943160270E+002	3.3746895E-001	-2.7035913E+002
3	0	2.250001943160169E+002	3.3760124E-001	-2.7039093E+002