EC-Lab ASCII FILE
Nb header lines : 55                          

Open Circuit Voltage

Run on channel : 1 (SN 81504)
User : 
CE vs. WE compliance from -10 V to 10 V
Electrode connection : standard
Potential control : Ewe
Ewe ctrl range : min = -2.50 V, max = 2.50 V
Safety Limits :
	Do not start on E overload
Acquisition started on : 05/10/2026 09:44:17.042
Loaded Setting File :  C:\PEM-WE_measurements\2026\372_IV_IV IrOx, 5 min Pt, 30 min C, etched cathode\new station\Loopeis new\1,46 V different time gaps closed cell\Loopeis 1,46V_180s_4_PEIS from 650Hz to 100Hz.mps
Saved on :
	File : L_29_Loopeis 1,46V_180s_4_PEIS from 650Hz to 100Hz_06_OCV_C01.mpr
	Directory : C:\PEM-WE_measurements\2026\372_IV_IV IrOx, 5 min Pt, 30 min C, etched cathode\new station\Loopeis new\1,46 V different time gaps closed cell\
	Host : 192.168.0.2
Device : SP-150e (SN .005491)
Address : 192.168.0.91
EC-LAB for windows v11.71 (software)
Internet server v28.00 (firmware)
Command interpretor v14.01 (firmware)
Electrode material : 
Initial state : 
Electrolyte : 
Comments : 
Current amplifier : SP-150eB-20A
Electrode surface area : 0.001 cm²
Characteristic mass : 0.001 g
Equivalent Weight : 0.000 g/eq.
Density : 0.000 g/cm3
Volume (V) : 0.001 cm³
Record Analogic IN 1
Text export
   Mode : Standard
   Time format : Elapsed
Cycle Definition : Charge/Discharge alternance
External device configuration :
   device type : Temperature Probe
   device name : Other
   Analog IN 1 : 
      unit : T/Â°C
      max : 100.000 at 2.000 V
      min : 0.000 at 1.460 V
tR (h:m:s)          0:03:0.0000         
dER/dt (mV/h)       1.0                 
record              <Ewe>               
dER (mV)            10.00               
dtR (s)             0.5000              
E range min (V)     -2.500              
E range max (V)     2.500               

mode	error	time/s	<Ewe/V>	Analog IN 1/V	
3	0	4.952145907431259E+002	1.2904270E+000	-2.7037326E+002
3	0	4.957145907304948E+002	1.2958130E+000	-2.7036972E+002
3	0	4.962145907178638E+002	1.2817132E+000	-2.7040506E+002
3	0	4.967145907052327E+002	1.2547238E+000	-2.7038742E+002
3	0	4.972145906926016E+002	1.2081211E+000	-2.7038031E+002
3	0	4.977145906799706E+002	1.1201376E+000	-2.7037326E+002
3	0	4.982145906673395E+002	8.0875659E-001	-2.7039447E+002
3	0	4.987145906547084E+002	4.6413010E-001	-2.7037326E+002
3	0	4.992145906420774E+002	3.6859345E-001	-2.7038385E+002
3	0	4.997145906294463E+002	3.5204834E-001	-2.7039447E+002
3	0	5.002145906168153E+002	3.5087430E-001	-2.7036618E+002
3	0	5.007145906041842E+002	3.5221565E-001	-2.7037677E+002
3	0	5.012145905915531E+002	3.5366488E-001	-2.7038031E+002
3	0	5.017145905789221E+002	3.5484895E-001	-2.7038742E+002
3	0	5.022145905662910E+002	3.5563043E-001	-2.7039093E+002
3	0	5.027145905536599E+002	3.5604918E-001	-2.7039093E+002
3	0	5.032145905410289E+002	3.5634947E-001	-2.7037326E+002
3	0	5.037145905283978E+002	3.5691527E-001	-2.7039801E+002
3	0	5.042145905157668E+002	3.5742223E-001	-2.7038031E+002
3	0	5.047145905031357E+002	3.5776591E-001	-2.7038031E+002
3	0	5.052145904905046E+002	3.5803053E-001	-2.7036972E+002
3	0	5.057145904778736E+002	3.5826769E-001	-2.7040155E+002
3	0	5.062145904652425E+002	3.5852417E-001	-2.7036618E+002
3	0	5.067145904526114E+002	3.5863617E-001	-2.7037677E+002
3	0	5.072145904399804E+002	3.5870570E-001	-2.7038385E+002
3	0	5.077145904273493E+002	3.5908410E-001	-2.7038385E+002
3	0	5.082145904147183E+002	3.5949886E-001	-2.7037326E+002
3	0	5.087145904020872E+002	3.5979131E-001	-2.7038031E+002
3	0	5.092145903894561E+002	3.5997462E-001	-2.7035559E+002
3	0	5.097145903768251E+002	3.6015558E-001	-2.7036972E+002
3	0	5.102145903641940E+002	3.6028263E-001	-2.7036972E+002
3	0	5.107145903515629E+002	3.6034533E-001	-2.7038031E+002
3	0	5.112145903389319E+002	3.6036718E-001	-2.7038031E+002
3	0	5.117145903263008E+002	3.6065641E-001	-2.7036972E+002
3	0	5.122145903136698E+002	3.6101696E-001	-2.7036267E+002
3	0	5.127145903010387E+002	3.6120206E-001	-2.7036972E+002
3	0	5.132145902884076E+002	3.6134022E-001	-2.7038742E+002
3	0	5.137145902757766E+002	3.6147413E-001	-2.7039447E+002
3	0	5.142145902631455E+002	3.6156601E-001	-2.7041919E+002
3	0	5.147145902505144E+002	3.6155394E-001	-2.7041568E+002
3	0	5.152145902378834E+002	3.6151016E-001	-2.7035913E+002
3	0	5.157145902252523E+002	3.6176431E-001	-2.7038742E+002
3	0	5.162145902126213E+002	3.6205706E-001	-2.7039093E+002
3	0	5.167145901999902E+002	3.6221313E-001	-2.7040506E+002
3	0	5.172145901873591E+002	3.6228254E-001	-2.7038742E+002
3	0	5.177145901747281E+002	3.6239001E-001	-2.7038385E+002
3	0	5.182145901620970E+002	3.6248177E-001	-2.7035205E+002
3	0	5.187145901494659E+002	3.6249197E-001	-2.7035913E+002
3	0	5.192145901368349E+002	3.6253202E-001	-2.7039093E+002
3	0	5.197145901242038E+002	3.6291090E-001	-2.7038031E+002
3	0	5.202145901115728E+002	3.6339656E-001	-2.7037326E+002
3	0	5.207145900989417E+002	3.6381552E-001	-2.7036972E+002
3	0	5.212145900863106E+002	3.6417598E-001	-2.7039093E+002
3	0	5.217145900736796E+002	3.6455524E-001	-2.7036618E+002
3	0	5.222145900610485E+002	3.6482686E-001	-2.7039801E+002
3	0	5.227145900484174E+002	3.6498341E-001	-2.7040155E+002
3	0	5.232145900357864E+002	3.6504966E-001	-2.7039801E+002
3	0	5.237145900231553E+002	3.6534920E-001	-2.7035913E+002
3	0	5.242145900105243E+002	3.6570513E-001	-2.7036618E+002
3	0	5.247145899978932E+002	3.6590689E-001	-2.7037326E+002
3	0	5.252145899852621E+002	3.6600751E-001	-2.7038031E+002
3	0	5.257145899726311E+002	3.6609265E-001	-2.7037677E+002
3	0	5.262145899600000E+002	3.6608422E-001	-2.7039447E+002
3	0	5.267145899473690E+002	3.6599076E-001	-2.7036618E+002
3	0	5.272145899347379E+002	3.6584735E-001	-2.7037326E+002
3	0	5.277145899221068E+002	3.6596674E-001	-2.7038385E+002
3	0	5.282145899094758E+002	3.6613414E-001	-2.7036618E+002
3	0	5.287145898968447E+002	3.6617041E-001	-2.7036972E+002
3	0	5.292145898842136E+002	3.6612493E-001	-2.7037326E+002
3	0	5.297145898715826E+002	3.6609864E-001	-2.7040155E+002
3	0	5.302145898589515E+002	3.6602420E-001	-2.7036972E+002
3	0	5.307145898463205E+002	3.6583561E-001	-2.7039093E+002
3	0	5.312145898336894E+002	3.6560795E-001	-2.7038385E+002
3	0	5.317145898210583E+002	3.6566302E-001	-2.7035913E+002
3	0	5.322145898084273E+002	3.6577365E-001	-2.7037326E+002
3	0	5.327145897957962E+002	3.6576432E-001	-2.7037677E+002
3	0	5.332145897831651E+002	3.6566615E-001	-2.7039447E+002
3	0	5.337145897705341E+002	3.6556417E-001	-2.7035559E+002
3	0	5.342145897579030E+002	3.6544329E-001	-2.7037326E+002
3	0	5.347145897452720E+002	3.6518988E-001	-2.7039447E+002
3	0	5.352145897326409E+002	3.6490875E-001	-2.7036972E+002
3	0	5.357145897200098E+002	3.6486682E-001	-2.7036618E+002
3	0	5.362145897073788E+002	3.6490932E-001	-2.7034851E+002
3	0	5.367145896947477E+002	3.6486241E-001	-2.7036972E+002
3	0	5.372145896821166E+002	3.6475289E-001	-2.7039447E+002
3	0	5.377145896694856E+002	3.6463720E-001	-2.7039801E+002
3	0	5.382145896568545E+002	3.6451697E-001	-2.7039093E+002
3	0	5.387145896442235E+002	3.6431137E-001	-2.7038385E+002
3	0	5.392145896315924E+002	3.6413983E-001	-2.7038385E+002
3	0	5.397145896189613E+002	3.6428449E-001	-2.7036267E+002
3	0	5.402145896063303E+002	3.6456132E-001	-2.7039093E+002
3	0	5.407145895936992E+002	3.6479154E-001	-2.7036972E+002
3	0	5.412145895810681E+002	3.6498186E-001	-2.7035559E+002
3	0	5.417145895684371E+002	3.6520135E-001	-2.7038385E+002
3	0	5.422145895558060E+002	3.6534488E-001	-2.7038031E+002
3	0	5.427145895431750E+002	3.6535227E-001	-2.7038742E+002
3	0	5.432145895305439E+002	3.6525676E-001	-2.7038742E+002
3	0	5.437145895179128E+002	3.6539754E-001	-2.7039801E+002
3	0	5.442145895052818E+002	3.6561102E-001	-2.7039801E+002
3	0	5.447145894926507E+002	3.6566797E-001	-2.7035913E+002
3	0	5.452145894800196E+002	3.6564884E-001	-2.7036267E+002
3	0	5.457145894673886E+002	3.6559108E-001	-2.7038385E+002
3	0	5.462145894547575E+002	3.6547351E-001	-2.7038385E+002
3	0	5.467145894421265E+002	3.6523241E-001	-2.7039447E+002
3	0	5.472145894294954E+002	3.6496407E-001	-2.7036972E+002
3	0	5.477145894168643E+002	3.6490726E-001	-2.7039447E+002
3	0	5.482145894042333E+002	3.6495522E-001	-2.7037326E+002
3	0	5.487145893916022E+002	3.6488923E-001	-2.7038742E+002
3	0	5.492145893789711E+002	3.6473346E-001	-2.7035913E+002
3	0	5.497145893663401E+002	3.6457416E-001	-2.7038385E+002
3	0	5.502145893537090E+002	3.6432129E-001	-2.7039093E+002
3	0	5.507145893410780E+002	3.6396942E-001	-2.7036267E+002
3	0	5.512145893284469E+002	3.6361602E-001	-2.7038385E+002
3	0	5.517145893158158E+002	3.6350539E-001	-2.7040155E+002
3	0	5.522145893031848E+002	3.6347848E-001	-2.7039801E+002
3	0	5.527145892905537E+002	3.6336854E-001	-2.7040506E+002
3	0	5.532145892779226E+002	3.6320373E-001	-2.7037326E+002
3	0	5.537145892652916E+002	3.6301044E-001	-2.7037677E+002
3	0	5.542145892526605E+002	3.6281857E-001	-2.7039093E+002
3	0	5.547145892400295E+002	3.6252230E-001	-2.7038385E+002
3	0	5.552145892273984E+002	3.6217380E-001	-2.7038031E+002
3	0	5.557145892147673E+002	3.6206967E-001	-2.7039801E+002
3	0	5.562145892021363E+002	3.6203328E-001	-2.7038742E+002
3	0	5.567145891895052E+002	3.6190078E-001	-2.7036972E+002
3	0	5.572145891768741E+002	3.6170444E-001	-2.7036618E+002
3	0	5.577145891642431E+002	3.6153829E-001	-2.7036267E+002
3	0	5.582145891516120E+002	3.6134383E-001	-2.7036972E+002
3	0	5.587145891389810E+002	3.6110491E-001	-2.7037677E+002
3	0	5.592145891263499E+002	3.6085567E-001	-2.7038031E+002
3	0	5.597145891137188E+002	3.6090505E-001	-2.7039447E+002
3	0	5.602145891010878E+002	3.6110651E-001	-2.7036618E+002
3	0	5.607145890884567E+002	3.6126596E-001	-2.7036267E+002
3	0	5.612145890758256E+002	3.6140066E-001	-2.7037326E+002
3	0	5.617145890631946E+002	3.6155605E-001	-2.7037326E+002
3	0	5.622145890505635E+002	3.6165196E-001	-2.7036618E+002
3	0	5.627145890379325E+002	3.6162639E-001	-2.7037677E+002
3	0	5.632145890253014E+002	3.6151022E-001	-2.7038385E+002
3	0	5.637145890126703E+002	3.6159334E-001	-2.7039093E+002
3	0	5.642145890000393E+002	3.6172351E-001	-2.7039093E+002
3	0	5.647145889874082E+002	3.6173761E-001	-2.7036972E+002
3	0	5.652145889747771E+002	3.6165166E-001	-2.7038742E+002
3	0	5.657145889621461E+002	3.6158457E-001	-2.7038742E+002
3	0	5.662145889495150E+002	3.6140421E-001	-2.7036972E+002
3	0	5.667145889368840E+002	3.6113584E-001	-2.7038031E+002
3	0	5.672145889242529E+002	3.6080515E-001	-2.7039093E+002
3	0	5.677145889116218E+002	3.6070225E-001	-2.7036618E+002
3	0	5.682145888989908E+002	3.6066654E-001	-2.7039093E+002
3	0	5.687145888863597E+002	3.6053744E-001	-2.7036618E+002
3	0	5.692145888737286E+002	3.6035091E-001	-2.7040506E+002
3	0	5.697145888610976E+002	3.6015764E-001	-2.7036618E+002
3	0	5.702145888484665E+002	3.5992709E-001	-2.7038385E+002
3	0	5.707145888358355E+002	3.5959941E-001	-2.7036972E+002
3	0	5.712145888232044E+002	3.5922596E-001	-2.7038031E+002
3	0	5.717145888105733E+002	3.5906798E-001	-2.7038031E+002
3	0	5.722145887979423E+002	3.5901332E-001	-2.7041214E+002
3	0	5.727145887853112E+002	3.5887787E-001	-2.7037677E+002
3	0	5.732145887726801E+002	3.5866585E-001	-2.7035559E+002
3	0	5.737145887600491E+002	3.5846239E-001	-2.7037677E+002
3	0	5.742145887474180E+002	3.5819748E-001	-2.7036972E+002
3	0	5.747145887347870E+002	3.5783246E-001	-2.7037677E+002
3	0	5.752145887221559E+002	3.5744616E-001	-2.7036618E+002
3	0	5.757145887095248E+002	3.5730115E-001	-2.7038031E+002
3	0	5.762145886968938E+002	3.5723525E-001	-2.7036618E+002
3	0	5.767145886842627E+002	3.5708627E-001	-2.7036972E+002
3	0	5.772145886716316E+002	3.5688591E-001	-2.7038031E+002
3	0	5.777145886590006E+002	3.5669449E-001	-2.7037326E+002
3	0	5.782145886463695E+002	3.5647228E-001	-2.7036618E+002
3	0	5.787145886337385E+002	3.5618261E-001	-2.7036972E+002
3	0	5.792145886211074E+002	3.5592818E-001	-2.7038742E+002
3	0	5.797145886084763E+002	3.5591871E-001	-2.7038385E+002
3	0	5.802145885958453E+002	3.5605881E-001	-2.7038385E+002
3	0	5.807145885832142E+002	3.5616654E-001	-2.7035205E+002
3	0	5.812145885705831E+002	3.5626039E-001	-2.7038742E+002
3	0	5.817145885579521E+002	3.5638431E-001	-2.7036972E+002
3	0	5.822145885453210E+002	3.5647780E-001	-2.7038385E+002
3	0	5.827145885326900E+002	3.5645726E-001	-2.7037326E+002
3	0	5.832145885200589E+002	3.5635030E-001	-2.7038031E+002
3	0	5.837145885074278E+002	3.5637891E-001	-2.7038742E+002
3	0	5.842145884947968E+002	3.5648865E-001	-2.7037326E+002
3	0	5.847145884821657E+002	3.5649222E-001	-2.7036267E+002
3	0	5.852145884695346E+002	3.5641524E-001	-2.7036972E+002
3	0	5.857145884569036E+002	3.5630736E-001	-2.7037677E+002
3	0	5.862145884442725E+002	3.5614559E-001	-2.7036972E+002
3	0	5.867145884316415E+002	3.5586515E-001	-2.7036618E+002
3	0	5.872145884190104E+002	3.5553744E-001	-2.7038385E+002
3	0	5.877145884063793E+002	3.5540062E-001	-2.7039093E+002
3	0	5.882145883937483E+002	3.5534364E-001	-2.7035205E+002
3	0	5.887145883811172E+002	3.5520896E-001	-2.7035559E+002
3	0	5.892145883684861E+002	3.5502383E-001	-2.7038031E+002
3	0	5.897145883558551E+002	3.5483444E-001	-2.7038742E+002
3	0	5.902145883432240E+002	3.5463908E-001	-2.7037326E+002
3	0	5.907145883305930E+002	3.5430887E-001	-2.7038385E+002
3	0	5.912145883179619E+002	3.5394368E-001	-2.7037326E+002
3	0	5.917145883053308E+002	3.5376814E-001	-2.7038742E+002
3	0	5.922145882926998E+002	3.5368609E-001	-2.7038031E+002
3	0	5.927145882800687E+002	3.5354084E-001	-2.7037326E+002
3	0	5.932145882674376E+002	3.5333374E-001	-2.7039801E+002
3	0	5.937145882548066E+002	3.5312676E-001	-2.7036267E+002
3	0	5.942145882421755E+002	3.5288346E-001	-2.7038031E+002
3	0	5.947145882295445E+002	3.5256290E-001	-2.7039801E+002
3	0	5.952145882169134E+002	3.5218242E-001	-2.7039447E+002
3	0	5.957145882042823E+002	3.5197994E-001	-2.7039801E+002
3	0	5.962145881916513E+002	3.5191354E-001	-2.7039447E+002
3	0	5.967145881790202E+002	3.5179442E-001	-2.7039801E+002
3	0	5.972145881663891E+002	3.5163346E-001	-2.7038031E+002
3	0	5.977145881537581E+002	3.5143581E-001	-2.7036972E+002
3	0	5.982145881411270E+002	3.5122356E-001	-2.7039447E+002
3	0	5.987145881284960E+002	3.5090685E-001	-2.7036618E+002
3	0	5.992145881158649E+002	3.5062322E-001	-2.7036618E+002
3	0	5.997145881032338E+002	3.5058194E-001	-2.7036267E+002
3	0	6.002145880906028E+002	3.5069939E-001	-2.7035913E+002
3	0	6.007145880779717E+002	3.5080287E-001	-2.7036972E+002
3	0	6.012145880653406E+002	3.5088059E-001	-2.7035559E+002
3	0	6.017145880527096E+002	3.5100603E-001	-2.7037326E+002
3	0	6.022145880400785E+002	3.5109955E-001	-2.7036267E+002
3	0	6.027145880274475E+002	3.5107455E-001	-2.7040155E+002
3	0	6.032145880148164E+002	3.5094610E-001	-2.7035205E+002
3	0	6.037145880021853E+002	3.5099515E-001	-2.7038031E+002
3	0	6.042145879895543E+002	3.5108232E-001	-2.7038031E+002
3	0	6.047145879769232E+002	3.5108861E-001	-2.7038031E+002
3	0	6.052145879642922E+002	3.5102203E-001	-2.7036618E+002
3	0	6.057145879516611E+002	3.5092765E-001	-2.7038742E+002
3	0	6.062145879390300E+002	3.5076508E-001	-2.7037326E+002
3	0	6.067145879263990E+002	3.5049608E-001	-2.7039447E+002
3	0	6.072145879137679E+002	3.5018948E-001	-2.7038031E+002
3	0	6.077145879011368E+002	3.5005343E-001	-2.7039093E+002
3	0	6.082145878885058E+002	3.4999606E-001	-2.7038385E+002
3	0	6.087145878758747E+002	3.4988192E-001	-2.7036972E+002
3	0	6.092145878632437E+002	3.4969690E-001	-2.7040506E+002
3	0	6.097145878506126E+002	3.4949470E-001	-2.7038031E+002
3	0	6.102145878379815E+002	3.4925267E-001	-2.7039093E+002
3	0	6.107145878253505E+002	3.4892091E-001	-2.7036972E+002
3	0	6.112145878127194E+002	3.4857279E-001	-2.7037677E+002
3	0	6.117145878000883E+002	3.4842372E-001	-2.7038385E+002
3	0	6.122145877874573E+002	3.4833860E-001	-2.7037326E+002
3	0	6.127145877748262E+002	3.4819984E-001	-2.7038385E+002
3	0	6.132145877621952E+002	3.4800842E-001	-2.7041919E+002
3	0	6.137145877495641E+002	3.4780034E-001	-2.7035913E+002
3	0	6.142145877369330E+002	3.4756565E-001	-2.7040860E+002
3	0	6.147145877243020E+002	3.4725580E-001	-2.7037326E+002
3	0	6.152145877116709E+002	3.4687886E-001	-2.7038385E+002
3	0	6.157145876990398E+002	3.4670427E-001	-2.7040506E+002
3	0	6.162145876864088E+002	3.4660810E-001	-2.7036618E+002
3	0	6.167145876737777E+002	3.4645516E-001	-2.7037326E+002
3	0	6.172145876611467E+002	3.4624463E-001	-2.7038385E+002
3	0	6.177145876485156E+002	3.4603056E-001	-2.7036618E+002
3	0	6.182145876358845E+002	3.4578097E-001	-2.7036972E+002
3	0	6.187145876232535E+002	3.4547570E-001	-2.7038031E+002
3	0	6.192145876106224E+002	3.4517571E-001	-2.7038385E+002
3	0	6.197145875979913E+002	3.4509867E-001	-2.7039093E+002
3	0	6.202145875853603E+002	3.4517416E-001	-2.7036267E+002
3	0	6.207145875727292E+002	3.4525043E-001	-2.7037677E+002
3	0	6.212145875600982E+002	3.4532294E-001	-2.7037326E+002
3	0	6.217145875474671E+002	3.4543806E-001	-2.7037677E+002
3	0	6.222145875348360E+002	3.4552670E-001	-2.7038031E+002
3	0	6.227145875222050E+002	3.4552497E-001	-2.7037326E+002
3	0	6.232145875095739E+002	3.4543326E-001	-2.7035913E+002
3	0	6.237145874969428E+002	3.4550226E-001	-2.7037677E+002
3	0	6.242145874843118E+002	3.4560367E-001	-2.7035913E+002
3	0	6.247145874716807E+002	3.4562585E-001	-2.7039093E+002
3	0	6.252145874590497E+002	3.4556663E-001	-2.7038385E+002
3	0	6.257145874464186E+002	3.4546664E-001	-2.7036618E+002
3	0	6.262145874337875E+002	3.4530538E-001	-2.7037677E+002
3	0	6.267145874211565E+002	3.4504774E-001	-2.7039447E+002
3	0	6.272145874085254E+002	3.4473118E-001	-2.7037326E+002
3	0	6.277145873958943E+002	3.4457681E-001	-2.7034851E+002
3	0	6.282145873832633E+002	3.4450415E-001	-2.7035559E+002
3	0	6.287145873706322E+002	3.4438729E-001	-2.7037677E+002
3	0	6.292145873580012E+002	3.4420714E-001	-2.7039801E+002
3	0	6.297145873453701E+002	3.4400705E-001	-2.7035205E+002
3	0	6.302145873327390E+002	3.4377110E-001	-2.7036618E+002
3	0	6.307145873201080E+002	3.4343886E-001	-2.7039801E+002
3	0	6.312145873074769E+002	3.4306300E-001	-2.7036618E+002
3	0	6.317145872948458E+002	3.4285966E-001	-2.7037326E+002
3	0	6.322145872822148E+002	3.4275737E-001	-2.7039447E+002
3	0	6.327145872695837E+002	3.4260431E-001	-2.7037326E+002
3	0	6.332145872569527E+002	3.4239119E-001	-2.7039093E+002
3	0	6.337145872443216E+002	3.4217492E-001	-2.7039447E+002
3	0	6.342145872316905E+002	3.4193191E-001	-2.7035913E+002
3	0	6.347145872190595E+002	3.4161791E-001	-2.7035559E+002
3	0	6.352145872064284E+002	3.4123835E-001	-2.7038385E+002
3	0	6.357145871937973E+002	3.4104455E-001	-2.7036618E+002
3	0	6.362145871811663E+002	3.4094536E-001	-2.7038385E+002
3	0	6.367145871685352E+002	3.4081402E-001	-2.7033789E+002
3	0	6.372145871559042E+002	3.4062833E-001	-2.7037677E+002
3	0	6.377145871432731E+002	3.4044984E-001	-2.7036267E+002
3	0	6.382145871306420E+002	3.4024650E-001	-2.7036618E+002
3	0	6.387145871180110E+002	3.3997518E-001	-2.7036267E+002
3	0	6.392145871053799E+002	3.3966008E-001	-2.7037326E+002
3	0	6.397145870927488E+002	3.3955619E-001	-2.7037326E+002
3	0	6.402145870801178E+002	3.3960456E-001	-2.7039801E+002
3	0	6.407145870674867E+002	3.3966240E-001	-2.7037677E+002
3	0	6.412145870548557E+002	3.3971474E-001	-2.7040155E+002
3	0	6.417145870422246E+002	3.3979639E-001	-2.7037677E+002
3	0	6.422145870295935E+002	3.3987615E-001	-2.7036972E+002
3	0	6.427145870169625E+002	3.3990014E-001	-2.7037677E+002
3	0	6.432145870043314E+002	3.3983111E-001	-2.7038385E+002
3	0	6.437145869917003E+002	3.3986789E-001	-2.7037677E+002
3	0	6.442145869790693E+002	3.3996141E-001	-2.7039093E+002
3	0	6.447145869664382E+002	3.3998331E-001	-2.7036267E+002
3	0	6.452145869538072E+002	3.3992645E-001	-2.7037326E+002
3	0	6.457145869411761E+002	3.3984494E-001	-2.7035913E+002
3	0	6.462145869285450E+002	3.3970028E-001	-2.7037326E+002
3	0	6.467145869159140E+002	3.3945879E-001	-2.7035913E+002
3	0	6.472145869032829E+002	3.3916378E-001	-2.7038385E+002
3	0	6.477145868906518E+002	3.3902106E-001	-2.7037677E+002
3	0	6.482145868780208E+002	3.3896229E-001	-2.7037677E+002
3	0	6.487145868653897E+002	3.3886242E-001	-2.7037677E+002
3	0	6.492145868527587E+002	3.3869630E-001	-2.7038742E+002
3	0	6.497145868401276E+002	3.3851370E-001	-2.7034851E+002
3	0	6.502145868274965E+002	3.3828023E-001	-2.7038031E+002
3	0	6.507145868148655E+002	3.3797961E-001	-2.7038742E+002
3	0	6.512145868022344E+002	3.3761239E-001	-2.7036267E+002
3	0	6.517145867896033E+002	3.3739662E-001	-2.7037677E+002
3	0	6.522145867769723E+002	3.3726132E-001	-2.7038385E+002
3	0	6.527145867643412E+002	3.3711007E-001	-2.7040506E+002
3	0	6.532145867517102E+002	3.3690074E-001	-2.7035205E+002
3	0	6.537145867390791E+002	3.3667606E-001	-2.7040506E+002
3	0	6.542145867264480E+002	3.3642492E-001	-2.7035559E+002
3	0	6.547145867138170E+002	3.3610588E-001	-2.7035205E+002
3	0	6.552145867011859E+002	3.3575630E-001	-2.7039093E+002
3	0	6.557145866885548E+002	3.3554548E-001	-2.7036618E+002
3	0	6.562145866759238E+002	3.3543214E-001	-2.7036618E+002
3	0	6.567145866632927E+002	3.3530387E-001	-2.7037326E+002
3	0	6.572145866506617E+002	3.3513290E-001	-2.7038385E+002
3	0	6.577145866380306E+002	3.3496004E-001	-2.7039093E+002
3	0	6.582145866253995E+002	3.3472687E-001	-2.7036267E+002
3	0	6.587145866127685E+002	3.3444899E-001	-2.7036267E+002
3	0	6.592145866001374E+002	3.3413181E-001	-2.7036972E+002
3	0	6.597145865875063E+002	3.3401412E-001	-2.7038385E+002
3	0	6.602145865748753E+002	3.3405143E-001	-2.7038031E+002
3	0	6.607145865622442E+002	3.3411112E-001	-2.7039447E+002
3	0	6.612145865496132E+002	3.3416829E-001	-2.7041214E+002
3	0	6.617145865369821E+002	3.3425078E-001	-2.7037326E+002
3	0	6.622145865243510E+002	3.3433977E-001	-2.7036972E+002
3	0	6.627145865117200E+002	3.3436653E-001	-2.7039447E+002
3	0	6.632145864990889E+002	3.3430326E-001	-2.7038031E+002
3	0	6.637145864864578E+002	3.3434486E-001	-2.7037326E+002
3	0	6.642145864738268E+002	3.3444703E-001	-2.7038385E+002
3	0	6.647145864611957E+002	3.3450323E-001	-2.7038385E+002
3	0	6.652145864485647E+002	3.3445960E-001	-2.7039447E+002
3	0	6.657145864359336E+002	3.3436185E-001	-2.7037677E+002
3	0	6.662145864233025E+002	3.3421284E-001	-2.7038031E+002
3	0	6.667145864106715E+002	3.3397818E-001	-2.7038742E+002
3	0	6.672145863980404E+002	3.3367556E-001	-2.7038385E+002
3	0	6.677145863854093E+002	3.3350378E-001	-2.7036267E+002
3	0	6.682145863727783E+002	3.3341983E-001	-2.7036972E+002
3	0	6.687145863601472E+002	3.3330172E-001	-2.7036267E+002
3	0	6.692145863475162E+002	3.3312610E-001	-2.7038385E+002
3	0	6.697145863348851E+002	3.3293456E-001	-2.7038742E+002
3	0	6.702145863222540E+002	3.3270624E-001	-2.7038385E+002
3	0	6.707145863096230E+002	3.3239761E-001	-2.7039801E+002
3	0	6.712145862969919E+002	3.3205396E-001	-2.7036972E+002
3	0	6.717145862843608E+002	3.3184406E-001	-2.7039801E+002
3	0	6.722145862717298E+002	3.3173749E-001	-2.7039801E+002
3	0	6.727145862590987E+002	3.3160347E-001	-2.7037677E+002
3	0	6.732145862464677E+002	3.3142942E-001	-2.7034497E+002
3	0	6.737145862338366E+002	3.3124185E-001	-2.7038742E+002
3	0	6.742145862212055E+002	3.3102307E-001	-2.7039801E+002
3	0	6.747145862085745E+002	3.3070952E-001	-2.7039447E+002
3	0	6.747149862085644E+002	3.3061653E-001	-2.7039801E+002