EC-Lab ASCII FILE
Nb header lines : 55                          

Open Circuit Voltage

Run on channel : 1 (SN 81504)
User : 
CE vs. WE compliance from -10 V to 10 V
Electrode connection : standard
Potential control : Ewe
Ewe ctrl range : min = -2.50 V, max = 2.50 V
Safety Limits :
	Do not start on E overload
Acquisition started on : 05/10/2026 09:44:17.042
Loaded Setting File :  C:\PEM-WE_measurements\2026\372_IV_IV IrOx, 5 min Pt, 30 min C, etched cathode\new station\Loopeis new\1,46 V different time gaps closed cell\Loopeis 1,46V_180s_4_PEIS from 650Hz to 100Hz.mps
Saved on :
	File : L_29_Loopeis 1,46V_180s_4_PEIS from 650Hz to 100Hz_14_OCV_C01.mpr
	Directory : C:\PEM-WE_measurements\2026\372_IV_IV IrOx, 5 min Pt, 30 min C, etched cathode\new station\Loopeis new\1,46 V different time gaps closed cell\
	Host : 192.168.0.2
Device : SP-150e (SN .005491)
Address : 192.168.0.91
EC-LAB for windows v11.71 (software)
Internet server v28.00 (firmware)
Command interpretor v14.01 (firmware)
Electrode material : 
Initial state : 
Electrolyte : 
Comments : 
Current amplifier : SP-150eB-20A
Electrode surface area : 0.001 cm²
Characteristic mass : 0.001 g
Equivalent Weight : 0.000 g/eq.
Density : 0.000 g/cm3
Volume (V) : 0.001 cm³
Record Analogic IN 1
Text export
   Mode : Standard
   Time format : Elapsed
Cycle Definition : Charge/Discharge alternance
External device configuration :
   device type : Temperature Probe
   device name : Other
   Analog IN 1 : 
      unit : T/Â°C
      max : 100.000 at 2.000 V
      min : 0.000 at 1.460 V
tR (h:m:s)          0:03:0.0000         
dER/dt (mV/h)       1.0                 
record              <Ewe>               
dER (mV)            10.00               
dtR (s)             0.5000              
E range min (V)     -2.500              
E range max (V)     2.500               

mode	error	time/s	<Ewe/V>	Analog IN 1/V	
3	0	1.397393174658791E+003	1.2908428E+000	-2.7040860E+002
3	0	1.397893174646160E+003	1.2959962E+000	-2.7035559E+002
3	0	1.398393174633529E+003	1.2823062E+000	-2.7039093E+002
3	0	1.398893174620898E+003	1.2566737E+000	-2.7040155E+002
3	0	1.399393174608267E+003	1.2134181E+000	-2.7036267E+002
3	0	1.399893174595636E+003	1.1342037E+000	-2.7036972E+002
3	0	1.400393174583005E+003	8.6090231E-001	-2.7039447E+002
3	0	1.400893174570374E+003	4.8507053E-001	-2.7038385E+002
3	0	1.401393174557743E+003	3.7628073E-001	-2.7035205E+002
3	0	1.401893174545112E+003	3.5603485E-001	-2.7038031E+002
3	0	1.402393174532481E+003	3.5347405E-001	-2.7039447E+002
3	0	1.402893174519850E+003	3.5420242E-001	-2.7038742E+002
3	0	1.403393174507219E+003	3.5556754E-001	-2.7036618E+002
3	0	1.403893174494588E+003	3.5649616E-001	-2.7037326E+002
3	0	1.404393174481957E+003	3.5714987E-001	-2.7038742E+002
3	0	1.404893174469325E+003	3.5766867E-001	-2.7038742E+002
3	0	1.405393174456694E+003	3.5809702E-001	-2.7037326E+002
3	0	1.405893174444063E+003	3.5849652E-001	-2.7038385E+002
3	0	1.406393174431432E+003	3.5876593E-001	-2.7036972E+002
3	0	1.406893174418801E+003	3.5912457E-001	-2.7033789E+002
3	0	1.407393174406170E+003	3.5977769E-001	-2.7037677E+002
3	0	1.407893174393539E+003	3.6022314E-001	-2.7039447E+002
3	0	1.408393174380908E+003	3.6060643E-001	-2.7038742E+002
3	0	1.408893174368277E+003	3.6095783E-001	-2.7039801E+002
3	0	1.409393174355646E+003	3.6127529E-001	-2.7036972E+002
3	0	1.409893174343015E+003	3.6149105E-001	-2.7039447E+002
3	0	1.410393174330384E+003	3.6160359E-001	-2.7035559E+002
3	0	1.410893174317753E+003	3.6178228E-001	-2.7036618E+002
3	0	1.411393174305122E+003	3.6225101E-001	-2.7038742E+002
3	0	1.411893174292491E+003	3.6257863E-001	-2.7037326E+002
3	0	1.412393174279860E+003	3.6285272E-001	-2.7034143E+002
3	0	1.412893174267228E+003	3.6309895E-001	-2.7039801E+002
3	0	1.413393174254597E+003	3.6327678E-001	-2.7037677E+002
3	0	1.413893174241966E+003	3.6340594E-001	-2.7035559E+002
3	0	1.414393174229335E+003	3.6340341E-001	-2.7039093E+002
3	0	1.414893174216704E+003	3.6349067E-001	-2.7037677E+002
3	0	1.415393174204073E+003	3.6383918E-001	-2.7039093E+002
3	0	1.415893174191442E+003	3.6404225E-001	-2.7037677E+002
3	0	1.416393174178811E+003	3.6419737E-001	-2.7038031E+002
3	0	1.416893174166180E+003	3.6434668E-001	-2.7040506E+002
3	0	1.417393174153549E+003	3.6442876E-001	-2.7040155E+002
3	0	1.417893174140918E+003	3.6449096E-001	-2.7036618E+002
3	0	1.418393174128287E+003	3.6443684E-001	-2.7038742E+002
3	0	1.418893174115656E+003	3.6443141E-001	-2.7036972E+002
3	0	1.419393174103025E+003	3.6473763E-001	-2.7037677E+002
3	0	1.419893174090394E+003	3.6489886E-001	-2.7039801E+002
3	0	1.420393174077763E+003	3.6502874E-001	-2.7037326E+002
3	0	1.420893174065131E+003	3.6511007E-001	-2.7036972E+002
3	0	1.421393174052500E+003	3.6516014E-001	-2.7038385E+002
3	0	1.421893174039869E+003	3.6515224E-001	-2.7038742E+002
3	0	1.422393174027238E+003	3.6502996E-001	-2.7039801E+002
3	0	1.422893174014607E+003	3.6497208E-001	-2.7038031E+002
3	0	1.423393174001976E+003	3.6522529E-001	-2.7039447E+002
3	0	1.423893173989345E+003	3.6539915E-001	-2.7039093E+002
3	0	1.424393173976714E+003	3.6557576E-001	-2.7040155E+002
3	0	1.424893173964083E+003	3.6583588E-001	-2.7035913E+002
3	0	1.425393173951452E+003	3.6609453E-001	-2.7036972E+002
3	0	1.425893173938821E+003	3.6633655E-001	-2.7035205E+002
3	0	1.426393173926190E+003	3.6647081E-001	-2.7037677E+002
3	0	1.426893173913559E+003	3.6667219E-001	-2.7035559E+002
3	0	1.427393173900928E+003	3.6713961E-001	-2.7037677E+002
3	0	1.427893173888297E+003	3.6745819E-001	-2.7039093E+002
3	0	1.428393173875666E+003	3.6770728E-001	-2.7037326E+002
3	0	1.428893173863034E+003	3.6790937E-001	-2.7038742E+002
3	0	1.429393173850403E+003	3.6802551E-001	-2.7036972E+002
3	0	1.429893173837772E+003	3.6806297E-001	-2.7037326E+002
3	0	1.430393173825141E+003	3.6799049E-001	-2.7037326E+002
3	0	1.430893173812510E+003	3.6792243E-001	-2.7039093E+002
3	0	1.431393173799879E+003	3.6812478E-001	-2.7037677E+002
3	0	1.431893173787248E+003	3.6820588E-001	-2.7036267E+002
3	0	1.432393173774617E+003	3.6823115E-001	-2.7039447E+002
3	0	1.432893173761986E+003	3.6823753E-001	-2.7036972E+002
3	0	1.433393173749355E+003	3.6819711E-001	-2.7037326E+002
3	0	1.433893173736724E+003	3.6809331E-001	-2.7038385E+002
3	0	1.434393173724093E+003	3.6789390E-001	-2.7038742E+002
3	0	1.434893173711462E+003	3.6772367E-001	-2.7038385E+002
3	0	1.435393173698831E+003	3.6782306E-001	-2.7036618E+002
3	0	1.435893173686200E+003	3.6782569E-001	-2.7038031E+002
3	0	1.436393173673569E+003	3.6778155E-001	-2.7038031E+002
3	0	1.436893173660937E+003	3.6771986E-001	-2.7037326E+002
3	0	1.437393173648306E+003	3.6761707E-001	-2.7038031E+002
3	0	1.437893173635675E+003	3.6745170E-001	-2.7037326E+002
3	0	1.438393173623044E+003	3.6718315E-001	-2.7036267E+002
3	0	1.438893173610413E+003	3.6694741E-001	-2.7039093E+002
3	0	1.439393173597782E+003	3.6699545E-001	-2.7037326E+002
3	0	1.439893173585151E+003	3.6695880E-001	-2.7037326E+002
3	0	1.440393173572520E+003	3.6689472E-001	-2.7035913E+002
3	0	1.440893173559889E+003	3.6681157E-001	-2.7040155E+002
3	0	1.441393173547258E+003	3.6670697E-001	-2.7037326E+002
3	0	1.441893173534627E+003	3.6653030E-001	-2.7036972E+002
3	0	1.442393173521996E+003	3.6624423E-001	-2.7038742E+002
3	0	1.442893173509365E+003	3.6597469E-001	-2.7038031E+002
3	0	1.443393173496734E+003	3.6600685E-001	-2.7038031E+002
3	0	1.443893173484103E+003	3.6598602E-001	-2.7039447E+002
3	0	1.444393173471472E+003	3.6599210E-001	-2.7036972E+002
3	0	1.444893173458840E+003	3.6602241E-001	-2.7040155E+002
3	0	1.445393173446209E+003	3.6611792E-001	-2.7038031E+002
3	0	1.445893173433578E+003	3.6619774E-001	-2.7037326E+002
3	0	1.446393173420947E+003	3.6621532E-001	-2.7039093E+002
3	0	1.446893173408316E+003	3.6628145E-001	-2.7036618E+002
3	0	1.447393173395685E+003	3.6659795E-001	-2.7037326E+002
3	0	1.447893173383054E+003	3.6681473E-001	-2.7039093E+002
3	0	1.448393173370423E+003	3.6693788E-001	-2.7038385E+002
3	0	1.448893173357792E+003	3.6699435E-001	-2.7038742E+002
3	0	1.449393173345161E+003	3.6700952E-001	-2.7038742E+002
3	0	1.449893173332530E+003	3.6692676E-001	-2.7037677E+002
3	0	1.450393173319899E+003	3.6671790E-001	-2.7038031E+002
3	0	1.450893173307268E+003	3.6652663E-001	-2.7038742E+002
3	0	1.451393173294637E+003	3.6660063E-001	-2.7037677E+002
3	0	1.451893173282006E+003	3.6658481E-001	-2.7038385E+002
3	0	1.452393173269375E+003	3.6652347E-001	-2.7036267E+002
3	0	1.452893173256743E+003	3.6641988E-001	-2.7038742E+002
3	0	1.453393173244112E+003	3.6630523E-001	-2.7036267E+002
3	0	1.453893173231481E+003	3.6609849E-001	-2.7039801E+002
3	0	1.454393173218850E+003	3.6579135E-001	-2.7038031E+002
3	0	1.454893173206219E+003	3.6551797E-001	-2.7038742E+002
3	0	1.455393173193588E+003	3.6549756E-001	-2.7039447E+002
3	0	1.455893173180957E+003	3.6540419E-001	-2.7038031E+002
3	0	1.456393173168326E+003	3.6528766E-001	-2.7038385E+002
3	0	1.456893173155695E+003	3.6515588E-001	-2.7038031E+002
3	0	1.457393173143064E+003	3.6498454E-001	-2.7039447E+002
3	0	1.457893173130433E+003	3.6476338E-001	-2.7035205E+002
3	0	1.458393173117802E+003	3.6442378E-001	-2.7038031E+002
3	0	1.458893173105171E+003	3.6413240E-001	-2.7038385E+002
3	0	1.459393173092540E+003	3.6408851E-001	-2.7036618E+002
3	0	1.459893173079909E+003	3.6400491E-001	-2.7037677E+002
3	0	1.460393173067278E+003	3.6384866E-001	-2.7038742E+002
3	0	1.460893173054646E+003	3.6367497E-001	-2.7035559E+002
3	0	1.461393173042015E+003	3.6346653E-001	-2.7039093E+002
3	0	1.461893173029384E+003	3.6324039E-001	-2.7039447E+002
3	0	1.462393173016753E+003	3.6290738E-001	-2.7035913E+002
3	0	1.462893173004122E+003	3.6260927E-001	-2.7039801E+002
3	0	1.463393172991491E+003	3.6258343E-001	-2.7038031E+002
3	0	1.463893172978860E+003	3.6250943E-001	-2.7039093E+002
3	0	1.464393172966229E+003	3.6245197E-001	-2.7037326E+002
3	0	1.464893172953598E+003	3.6244223E-001	-2.7038742E+002
3	0	1.465393172940967E+003	3.6238718E-001	-2.7034851E+002
3	0	1.465893172928336E+003	3.6230287E-001	-2.7036972E+002
3	0	1.466393172915705E+003	3.6246720E-001	-2.7036267E+002
3	0	1.466893172903074E+003	3.6260182E-001	-2.7041919E+002
3	0	1.467393172890443E+003	3.6293641E-001	-2.7037326E+002
3	0	1.467893172877812E+003	3.6314157E-001	-2.7035913E+002
3	0	1.468393172865181E+003	3.6319953E-001	-2.7039447E+002
3	0	1.468893172852549E+003	3.6322257E-001	-2.7036972E+002
3	0	1.469393172839918E+003	3.6318517E-001	-2.7037677E+002
3	0	1.469893172827287E+003	3.6306998E-001	-2.7040155E+002
3	0	1.470393172814656E+003	3.6282989E-001	-2.7036972E+002
3	0	1.470893172802025E+003	3.6261123E-001	-2.7040155E+002
3	0	1.471393172789394E+003	3.6264870E-001	-2.7038742E+002
3	0	1.471893172776763E+003	3.6266816E-001	-2.7036618E+002
3	0	1.472393172764132E+003	3.6255029E-001	-2.7037677E+002
3	0	1.472893172751501E+003	3.6240557E-001	-2.7036972E+002
3	0	1.473393172738870E+003	3.6221060E-001	-2.7036267E+002
3	0	1.473893172726239E+003	3.6197385E-001	-2.7038031E+002
3	0	1.474393172713608E+003	3.6164674E-001	-2.7036972E+002
3	0	1.474893172700977E+003	3.6132091E-001	-2.7036972E+002
3	0	1.475393172688346E+003	3.6128232E-001	-2.7038385E+002
3	0	1.475893172675715E+003	3.6122817E-001	-2.7037677E+002
3	0	1.476393172663084E+003	3.6105829E-001	-2.7038742E+002
3	0	1.476893172650452E+003	3.6085248E-001	-2.7038031E+002
3	0	1.477393172637821E+003	3.6062008E-001	-2.7040506E+002
3	0	1.477893172625190E+003	3.6029601E-001	-2.7038031E+002
3	0	1.478393172612559E+003	3.5990039E-001	-2.7039801E+002
3	0	1.478893172599928E+003	3.5955730E-001	-2.7038385E+002
3	0	1.479393172587297E+003	3.5950279E-001	-2.7036972E+002
3	0	1.479893172574666E+003	3.5943720E-001	-2.7039801E+002
3	0	1.480393172562035E+003	3.5925582E-001	-2.7037677E+002
3	0	1.480893172549404E+003	3.5903299E-001	-2.7038031E+002
3	0	1.481393172536773E+003	3.5878763E-001	-2.7037326E+002
3	0	1.481893172524142E+003	3.5850880E-001	-2.7037677E+002
3	0	1.482393172511511E+003	3.5816973E-001	-2.7039447E+002
3	0	1.482893172498880E+003	3.5784292E-001	-2.7035913E+002
3	0	1.483393172486249E+003	3.5776195E-001	-2.7039801E+002
3	0	1.483893172473618E+003	3.5772306E-001	-2.7036972E+002
3	0	1.484393172460987E+003	3.5763270E-001	-2.7036618E+002
3	0	1.484893172448355E+003	3.5756716E-001	-2.7035913E+002
3	0	1.485393172435724E+003	3.5751796E-001	-2.7035205E+002
3	0	1.485893172423093E+003	3.5750809E-001	-2.7038031E+002
3	0	1.486393172410462E+003	3.5746258E-001	-2.7039093E+002
3	0	1.486893172397831E+003	3.5745564E-001	-2.7036267E+002
3	0	1.487393172385200E+003	3.5771695E-001	-2.7037326E+002
3	0	1.487893172372569E+003	3.5795116E-001	-2.7039801E+002
3	0	1.488393172359938E+003	3.5806334E-001	-2.7038031E+002
3	0	1.488893172347307E+003	3.5809878E-001	-2.7038385E+002
3	0	1.489393172334676E+003	3.5808724E-001	-2.7039447E+002
3	0	1.489893172322045E+003	3.5800755E-001	-2.7036972E+002
3	0	1.490393172309414E+003	3.5778880E-001	-2.7035913E+002
3	0	1.490893172296783E+003	3.5754418E-001	-2.7036618E+002
3	0	1.491393172284152E+003	3.5755157E-001	-2.7038385E+002
3	0	1.491893172271521E+003	3.5754898E-001	-2.7040506E+002
3	0	1.492393172258890E+003	3.5742047E-001	-2.7039801E+002
3	0	1.492893172246258E+003	3.5724434E-001	-2.7038385E+002
3	0	1.493393172233627E+003	3.5705626E-001	-2.7039447E+002
3	0	1.493893172220996E+003	3.5680273E-001	-2.7040155E+002
3	0	1.494393172208365E+003	3.5645849E-001	-2.7038385E+002
3	0	1.494893172195734E+003	3.5611683E-001	-2.7036267E+002
3	0	1.495393172183103E+003	3.5602951E-001	-2.7037326E+002
3	0	1.495893172170472E+003	3.5597101E-001	-2.7038742E+002
3	0	1.496393172157841E+003	3.5580420E-001	-2.7036618E+002
3	0	1.496893172145210E+003	3.5559982E-001	-2.7038031E+002
3	0	1.497393172132579E+003	3.5537529E-001	-2.7035559E+002
3	0	1.497893172119948E+003	3.5507619E-001	-2.7038385E+002
3	0	1.498393172107317E+003	3.5468554E-001	-2.7039801E+002
3	0	1.498893172094686E+003	3.5432327E-001	-2.7038031E+002
3	0	1.499393172082055E+003	3.5421452E-001	-2.7038031E+002
3	0	1.499893172069424E+003	3.5411537E-001	-2.7040506E+002
3	0	1.500393172056793E+003	3.5393530E-001	-2.7040860E+002
3	0	1.500893172044161E+003	3.5372525E-001	-2.7040155E+002
3	0	1.501393172031530E+003	3.5350367E-001	-2.7038742E+002
3	0	1.501893172018899E+003	3.5322353E-001	-2.7038385E+002
3	0	1.502393172006268E+003	3.5284722E-001	-2.7039801E+002
3	0	1.502893171993637E+003	3.5248536E-001	-2.7036618E+002
3	0	1.503393171981006E+003	3.5238710E-001	-2.7036972E+002
3	0	1.503893171968375E+003	3.5232434E-001	-2.7037677E+002
3	0	1.504393171955744E+003	3.5220304E-001	-2.7037677E+002
3	0	1.504893171943113E+003	3.5210162E-001	-2.7038031E+002
3	0	1.505393171930482E+003	3.5204312E-001	-2.7036618E+002
3	0	1.505893171917851E+003	3.5199910E-001	-2.7040860E+002
3	0	1.506393171905220E+003	3.5191566E-001	-2.7040506E+002
3	0	1.506893171892589E+003	3.5186455E-001	-2.7036618E+002
3	0	1.507393171879958E+003	3.5207653E-001	-2.7038742E+002
3	0	1.507893171867327E+003	3.5232854E-001	-2.7038385E+002
3	0	1.508393171854696E+003	3.5245067E-001	-2.7037677E+002
3	0	1.508893171842064E+003	3.5249877E-001	-2.7038031E+002
3	0	1.509393171829433E+003	3.5251054E-001	-2.7039447E+002
3	0	1.509893171816802E+003	3.5238484E-001	-2.7038385E+002
3	0	1.510393171804171E+003	3.5215181E-001	-2.7036972E+002
3	0	1.510893171791540E+003	3.5193518E-001	-2.7035205E+002
3	0	1.511393171778909E+003	3.5194218E-001	-2.7036267E+002
3	0	1.511893171766278E+003	3.5192963E-001	-2.7037677E+002
3	0	1.512393171753647E+003	3.5181093E-001	-2.7039447E+002
3	0	1.512893171741016E+003	3.5162869E-001	-2.7039093E+002
3	0	1.513393171728385E+003	3.5143420E-001	-2.7036618E+002
3	0	1.513893171715754E+003	3.5120535E-001	-2.7035913E+002
3	0	1.514393171703123E+003	3.5087982E-001	-2.7039093E+002
3	0	1.514893171690492E+003	3.5053650E-001	-2.7039093E+002
3	0	1.515393171677861E+003	3.5040686E-001	-2.7040860E+002
3	0	1.515893171665230E+003	3.5029837E-001	-2.7036618E+002
3	0	1.516393171652599E+003	3.5012195E-001	-2.7039093E+002
3	0	1.516893171639967E+003	3.4986210E-001	-2.7038031E+002
3	0	1.517393171627336E+003	3.4961700E-001	-2.7037326E+002
3	0	1.517893171614705E+003	3.4935087E-001	-2.7036972E+002
3	0	1.518393171602074E+003	3.4900194E-001	-2.7037326E+002
3	0	1.518893171589443E+003	3.4864882E-001	-2.7038031E+002
3	0	1.519393171576812E+003	3.4852225E-001	-2.7036972E+002
3	0	1.519893171564181E+003	3.4842980E-001	-2.7038742E+002
3	0	1.520393171551550E+003	3.4825721E-001	-2.7038385E+002
3	0	1.520893171538919E+003	3.4802347E-001	-2.7036267E+002
3	0	1.521393171526288E+003	3.4780401E-001	-2.7037677E+002
3	0	1.521893171513657E+003	3.4754413E-001	-2.7037326E+002
3	0	1.522393171501026E+003	3.4720248E-001	-2.7035913E+002
3	0	1.522893171488395E+003	3.4687114E-001	-2.7036972E+002
3	0	1.523393171475764E+003	3.4676319E-001	-2.7037677E+002
3	0	1.523893171463133E+003	3.4668329E-001	-2.7036972E+002
3	0	1.524393171450502E+003	3.4654877E-001	-2.7038385E+002
3	0	1.524893171437870E+003	3.4640229E-001	-2.7035913E+002
3	0	1.525393171425239E+003	3.4632364E-001	-2.7038031E+002
3	0	1.525893171412608E+003	3.4627083E-001	-2.7036972E+002
3	0	1.526393171399977E+003	3.4618929E-001	-2.7036618E+002
3	0	1.526893171387346E+003	3.4613591E-001	-2.7037677E+002
3	0	1.527393171374715E+003	3.4634745E-001	-2.7035559E+002
3	0	1.527893171362084E+003	3.4656450E-001	-2.7037677E+002
3	0	1.528393171349453E+003	3.4667486E-001	-2.7039093E+002
3	0	1.528893171336822E+003	3.4671676E-001	-2.7035559E+002
3	0	1.529393171324191E+003	3.4670636E-001	-2.7038031E+002
3	0	1.529893171311560E+003	3.4661689E-001	-2.7039093E+002
3	0	1.530393171298929E+003	3.4641996E-001	-2.7036267E+002
3	0	1.530893171286298E+003	3.4619460E-001	-2.7037326E+002
3	0	1.531393171273667E+003	3.4616691E-001	-2.7038031E+002
3	0	1.531893171261036E+003	3.4615377E-001	-2.7038385E+002
3	0	1.532393171248405E+003	3.4605864E-001	-2.7037677E+002
3	0	1.532893171235773E+003	3.4589520E-001	-2.7038031E+002
3	0	1.533393171223142E+003	3.4571332E-001	-2.7036267E+002
3	0	1.533893171210511E+003	3.4549955E-001	-2.7037677E+002
3	0	1.534393171197880E+003	3.4515306E-001	-2.7037326E+002
3	0	1.534893171185249E+003	3.4480715E-001	-2.7038742E+002
3	0	1.535393171172618E+003	3.4469715E-001	-2.7038031E+002
3	0	1.535893171159987E+003	3.4459525E-001	-2.7038385E+002
3	0	1.536393171147356E+003	3.4442872E-001	-2.7039093E+002
3	0	1.536893171134725E+003	3.4420171E-001	-2.7036972E+002
3	0	1.537393171122094E+003	3.4397814E-001	-2.7037677E+002
3	0	1.537893171109463E+003	3.4371608E-001	-2.7036618E+002
3	0	1.538393171096832E+003	3.4337035E-001	-2.7038742E+002
3	0	1.538893171084201E+003	3.4300241E-001	-2.7034497E+002
3	0	1.539393171071570E+003	3.4286702E-001	-2.7040506E+002
3	0	1.539893171058939E+003	3.4275484E-001	-2.7037326E+002
3	0	1.540393171046308E+003	3.4260133E-001	-2.7040155E+002
3	0	1.540893171033676E+003	3.4238723E-001	-2.7035913E+002
3	0	1.541393171021045E+003	3.4219736E-001	-2.7039093E+002
3	0	1.541893171008414E+003	3.4194049E-001	-2.7037326E+002
3	0	1.542393170995783E+003	3.4160885E-001	-2.7039447E+002
3	0	1.542893170983152E+003	3.4127596E-001	-2.7038031E+002
3	0	1.543393170970521E+003	3.4114563E-001	-2.7038031E+002
3	0	1.543893170957890E+003	3.4107274E-001	-2.7037326E+002
3	0	1.544393170945259E+003	3.4096894E-001	-2.7037677E+002
3	0	1.544893170932628E+003	3.4084317E-001	-2.7038385E+002
3	0	1.545393170919997E+003	3.4076610E-001	-2.7036618E+002
3	0	1.545893170907366E+003	3.4070507E-001	-2.7039801E+002
3	0	1.546393170894735E+003	3.4060237E-001	-2.7040506E+002
3	0	1.546893170882104E+003	3.4052837E-001	-2.7038742E+002
3	0	1.547393170869473E+003	3.4071693E-001	-2.7034851E+002
3	0	1.547893170856842E+003	3.4095278E-001	-2.7038385E+002
3	0	1.548393170844211E+003	3.4111866E-001	-2.7039447E+002
3	0	1.548893170831579E+003	3.4120390E-001	-2.7037677E+002
3	0	1.549393170818948E+003	3.4123778E-001	-2.7035913E+002
3	0	1.549893170806317E+003	3.4118900E-001	-2.7037326E+002
3	0	1.550393170793686E+003	3.4102637E-001	-2.7036618E+002
3	0	1.550893170781055E+003	3.4081057E-001	-2.7038031E+002
3	0	1.551393170768424E+003	3.4077895E-001	-2.7036267E+002
3	0	1.551893170755793E+003	3.4076667E-001	-2.7038031E+002
3	0	1.552393170743162E+003	3.4068680E-001	-2.7036618E+002
3	0	1.552893170730531E+003	3.4052548E-001	-2.7035913E+002
3	0	1.553393170717900E+003	3.4034622E-001	-2.7035559E+002
3	0	1.553893170705269E+003	3.4011790E-001	-2.7038031E+002
3	0	1.554393170692638E+003	3.3980671E-001	-2.7038031E+002
3	0	1.554893170680007E+003	3.3945695E-001	-2.7035913E+002
3	0	1.555393170667376E+003	3.3930352E-001	-2.7036267E+002
3	0	1.555893170654745E+003	3.3919594E-001	-2.7036618E+002
3	0	1.556393170642114E+003	3.3904421E-001	-2.7036618E+002
3	0	1.556893170629482E+003	3.3884493E-001	-2.7038742E+002
3	0	1.557393170616851E+003	3.3864018E-001	-2.7037326E+002
3	0	1.557893170604220E+003	3.3837861E-001	-2.7039093E+002
3	0	1.558393170591589E+003	3.3800337E-001	-2.7038031E+002
3	0	1.558893170578958E+003	3.3763966E-001	-2.7036972E+002
3	0	1.559393170566327E+003	3.3748871E-001	-2.7038742E+002
3	0	1.559893170553696E+003	3.3738148E-001	-2.7038742E+002
3	0	1.560393170541065E+003	3.3723554E-001	-2.7036618E+002
3	0	1.560893170528434E+003	3.3702695E-001	-2.7038742E+002
3	0	1.561393170515803E+003	3.3681664E-001	-2.7034851E+002
3	0	1.561893170503172E+003	3.3656165E-001	-2.7040506E+002
3	0	1.562393170490541E+003	3.3622777E-001	-2.7039801E+002
3	0	1.562893170477910E+003	3.3587620E-001	-2.7037326E+002
3	0	1.563393170465279E+003	3.3573326E-001	-2.7036618E+002
3	0	1.563893170452648E+003	3.3564636E-001	-2.7038742E+002
3	0	1.564393170440017E+003	3.3552033E-001	-2.7036267E+002
3	0	1.564893170427385E+003	3.3538204E-001	-2.7039093E+002
3	0	1.565393170414754E+003	3.3528063E-001	-2.7035913E+002
3	0	1.565893170402123E+003	3.3520374E-001	-2.7038385E+002
3	0	1.566393170389492E+003	3.3507463E-001	-2.7037677E+002
3	0	1.566893170376861E+003	3.3498743E-001	-2.7037326E+002
3	0	1.567393170364230E+003	3.3512655E-001	-2.7038031E+002
3	0	1.567893170351599E+003	3.3533698E-001	-2.7036972E+002
3	0	1.568393170338968E+003	3.3548778E-001	-2.7038385E+002
3	0	1.568893170326337E+003	3.3555508E-001	-2.7035913E+002
3	0	1.569393170313706E+003	3.3557054E-001	-2.7036267E+002
3	0	1.569893170301075E+003	3.3548874E-001	-2.7037326E+002
3	0	1.570393170288444E+003	3.3531627E-001	-2.7036618E+002
3	0	1.570893170275813E+003	3.3509386E-001	-2.7038385E+002
3	0	1.571393170263182E+003	3.3505213E-001	-2.7037326E+002
3	0	1.571893170250551E+003	3.3504504E-001	-2.7037677E+002
3	0	1.572393170237920E+003	3.3497220E-001	-2.7040860E+002
3	0	1.572893170225288E+003	3.3483949E-001	-2.7037326E+002
3	0	1.573393170212657E+003	3.3467549E-001	-2.7040155E+002
3	0	1.573893170200026E+003	3.3446723E-001	-2.7037677E+002
3	0	1.574393170187395E+003	3.3414257E-001	-2.7037326E+002
3	0	1.574893170174764E+003	3.3379620E-001	-2.7038031E+002
3	0	1.575393170162133E+003	3.3363172E-001	-2.7036618E+002
3	0	1.575893170149502E+003	3.3352673E-001	-2.7040860E+002
3	0	1.576393170136871E+003	3.3337507E-001	-2.7038385E+002
3	0	1.576893170124240E+003	3.3315513E-001	-2.7039801E+002
3	0	1.576893570124230E+003	3.3308792E-001	-2.7038031E+002