EC-Lab ASCII FILE
Nb header lines : 55                          

Open Circuit Voltage

Run on channel : 1 (SN 81504)
User : 
CE vs. WE compliance from -10 V to 10 V
Electrode connection : standard
Potential control : Ewe
Ewe ctrl range : min = -2.50 V, max = 2.50 V
Safety Limits :
	Do not start on E overload
Acquisition started on : 05/10/2026 09:44:17.042
Loaded Setting File :  C:\PEM-WE_measurements\2026\372_IV_IV IrOx, 5 min Pt, 30 min C, etched cathode\new station\Loopeis new\1,46 V different time gaps closed cell\Loopeis 1,46V_180s_4_PEIS from 650Hz to 100Hz.mps
Saved on :
	File : L_29_Loopeis 1,46V_180s_4_PEIS from 650Hz to 100Hz_08_OCV_C01.mpr
	Directory : C:\PEM-WE_measurements\2026\372_IV_IV IrOx, 5 min Pt, 30 min C, etched cathode\new station\Loopeis new\1,46 V different time gaps closed cell\
	Host : 192.168.0.2
Device : SP-150e (SN .005491)
Address : 192.168.0.91
EC-LAB for windows v11.71 (software)
Internet server v28.00 (firmware)
Command interpretor v14.01 (firmware)
Electrode material : 
Initial state : 
Electrolyte : 
Comments : 
Current amplifier : SP-150eB-20A
Electrode surface area : 0.001 cm²
Characteristic mass : 0.001 g
Equivalent Weight : 0.000 g/eq.
Density : 0.000 g/cm3
Volume (V) : 0.001 cm³
Record Analogic IN 1
Text export
   Mode : Standard
   Time format : Elapsed
Cycle Definition : Charge/Discharge alternance
External device configuration :
   device type : Temperature Probe
   device name : Other
   Analog IN 1 : 
      unit : T/Â°C
      max : 100.000 at 2.000 V
      min : 0.000 at 1.460 V
tR (h:m:s)          0:03:0.0000         
dER/dt (mV/h)       1.0                 
record              <Ewe>               
dER (mV)            10.00               
dtR (s)             0.5000              
E range min (V)     -2.500              
E range max (V)     2.500               

mode	error	time/s	<Ewe/V>	Analog IN 1/V	
3	0	7.201673883327021E+002	1.1060138E+000	-2.7036972E+002
3	0	7.206673883200710E+002	1.2543129E+000	-2.7035559E+002
3	0	7.211673883074400E+002	1.2421271E+000	-2.7037677E+002
3	0	7.216673882948089E+002	1.2165432E+000	-2.7039801E+002
3	0	7.221673882821779E+002	1.1716231E+000	-2.7036972E+002
3	0	7.226673882695468E+002	1.0883684E+000	-2.7037326E+002
3	0	7.231673882569157E+002	7.9977888E-001	-2.7039801E+002
3	0	7.236673882442847E+002	4.4805813E-001	-2.7038031E+002
3	0	7.241673882316536E+002	3.4686732E-001	-2.7037677E+002
3	0	7.246673882190225E+002	3.3004713E-001	-2.7037677E+002
3	0	7.251673882063915E+002	3.2899863E-001	-2.7035205E+002
3	0	7.256673881937604E+002	3.3073500E-001	-2.7037677E+002
3	0	7.261673881811294E+002	3.3257195E-001	-2.7036267E+002
3	0	7.266673881684983E+002	3.3395448E-001	-2.7039801E+002
3	0	7.271673881558672E+002	3.3499599E-001	-2.7038385E+002
3	0	7.276673881432362E+002	3.3589572E-001	-2.7039093E+002
3	0	7.281673881306051E+002	3.3649018E-001	-2.7038385E+002
3	0	7.286673881179740E+002	3.3691904E-001	-2.7038385E+002
3	0	7.291673881053430E+002	3.3725566E-001	-2.7038742E+002
3	0	7.296673880927119E+002	3.3753672E-001	-2.7035913E+002
3	0	7.301673880800809E+002	3.3773056E-001	-2.7035913E+002
3	0	7.306673880674498E+002	3.3785853E-001	-2.7038031E+002
3	0	7.311673880548187E+002	3.3814433E-001	-2.7037677E+002
3	0	7.316673880421877E+002	3.3855793E-001	-2.7036618E+002
3	0	7.321673880295566E+002	3.3889419E-001	-2.7038031E+002
3	0	7.326673880169255E+002	3.3915263E-001	-2.7034497E+002
3	0	7.331673880042945E+002	3.3937198E-001	-2.7038385E+002
3	0	7.336673879916634E+002	3.3961374E-001	-2.7037326E+002
3	0	7.341673879790324E+002	3.3975327E-001	-2.7037677E+002
3	0	7.346673879664013E+002	3.3982223E-001	-2.7041568E+002
3	0	7.351673879537702E+002	3.4003854E-001	-2.7039093E+002
3	0	7.356673879411392E+002	3.4043258E-001	-2.7035205E+002
3	0	7.361673879285081E+002	3.4073249E-001	-2.7038742E+002
3	0	7.366673879158770E+002	3.4095567E-001	-2.7038385E+002
3	0	7.371673879032460E+002	3.4111056E-001	-2.7038742E+002
3	0	7.376673878906149E+002	3.4128362E-001	-2.7036267E+002
3	0	7.381673878779839E+002	3.4137511E-001	-2.7036972E+002
3	0	7.386673878653528E+002	3.4140170E-001	-2.7038385E+002
3	0	7.391673878527217E+002	3.4157118E-001	-2.7038742E+002
3	0	7.396673878400907E+002	3.4199223E-001	-2.7038385E+002
3	0	7.401673878274596E+002	3.4236410E-001	-2.7035559E+002
3	0	7.406673878148285E+002	3.4272897E-001	-2.7038031E+002
3	0	7.411673878021975E+002	3.4309345E-001	-2.7038742E+002
3	0	7.416673877895664E+002	3.4348243E-001	-2.7038385E+002
3	0	7.421673877769354E+002	3.4383199E-001	-2.7041214E+002
3	0	7.426673877643043E+002	3.4408456E-001	-2.7036267E+002
3	0	7.431673877516732E+002	3.4449881E-001	-2.7039447E+002
3	0	7.436673877390422E+002	3.4502921E-001	-2.7036972E+002
3	0	7.441673877264111E+002	3.4543276E-001	-2.7037326E+002
3	0	7.446673877137800E+002	3.4572256E-001	-2.7038385E+002
3	0	7.451673877011490E+002	3.4593126E-001	-2.7036618E+002
3	0	7.456673876885179E+002	3.4612870E-001	-2.7035913E+002
3	0	7.461673876758869E+002	3.4619054E-001	-2.7039447E+002
3	0	7.466673876632558E+002	3.4618947E-001	-2.7036972E+002
3	0	7.471673876506247E+002	3.4627897E-001	-2.7038385E+002
3	0	7.476673876379937E+002	3.4656486E-001	-2.7036618E+002
3	0	7.481673876253626E+002	3.4676242E-001	-2.7037677E+002
3	0	7.486673876127315E+002	3.4685910E-001	-2.7037677E+002
3	0	7.491673876001005E+002	3.4690660E-001	-2.7040860E+002
3	0	7.496673875874694E+002	3.4691700E-001	-2.7039447E+002
3	0	7.501673875748384E+002	3.4683079E-001	-2.7040506E+002
3	0	7.506673875622073E+002	3.4669298E-001	-2.7035559E+002
3	0	7.511673875495762E+002	3.4667885E-001	-2.7038742E+002
3	0	7.516673875369452E+002	3.4687322E-001	-2.7036972E+002
3	0	7.521673875243141E+002	3.4697896E-001	-2.7040155E+002
3	0	7.526673875116830E+002	3.4702274E-001	-2.7038385E+002
3	0	7.531673874990520E+002	3.4698975E-001	-2.7038031E+002
3	0	7.536673874864209E+002	3.4695333E-001	-2.7037326E+002
3	0	7.541673874737899E+002	3.4680593E-001	-2.7035913E+002
3	0	7.546673874611588E+002	3.4658822E-001	-2.7038031E+002
3	0	7.551673874485277E+002	3.4651926E-001	-2.7036618E+002
3	0	7.556673874358967E+002	3.4662893E-001	-2.7040506E+002
3	0	7.561673874232656E+002	3.4666672E-001	-2.7037677E+002
3	0	7.566673874106345E+002	3.4665811E-001	-2.7036618E+002
3	0	7.571673873980035E+002	3.4657374E-001	-2.7037326E+002
3	0	7.576673873853724E+002	3.4648964E-001	-2.7038742E+002
3	0	7.581673873727414E+002	3.4630996E-001	-2.7037326E+002
3	0	7.586673873601103E+002	3.4607247E-001	-2.7037677E+002
3	0	7.591673873474792E+002	3.4597898E-001	-2.7039447E+002
3	0	7.596673873348482E+002	3.4614980E-001	-2.7039093E+002
3	0	7.601673873222171E+002	3.4630355E-001	-2.7037677E+002
3	0	7.606673873095860E+002	3.4643629E-001	-2.7037326E+002
3	0	7.611673872969550E+002	3.4657019E-001	-2.7038385E+002
3	0	7.616673872843239E+002	3.4674418E-001	-2.7036972E+002
3	0	7.621673872716929E+002	3.4686881E-001	-2.7038031E+002
3	0	7.626673872590618E+002	3.4693876E-001	-2.7038385E+002
3	0	7.631673872464307E+002	3.4710497E-001	-2.7036972E+002
3	0	7.636673872337997E+002	3.4744114E-001	-2.7039447E+002
3	0	7.641673872211686E+002	3.4765303E-001	-2.7038742E+002
3	0	7.646673872085375E+002	3.4777936E-001	-2.7038385E+002
3	0	7.651673871959065E+002	3.4781292E-001	-2.7036267E+002
3	0	7.656673871832754E+002	3.4780437E-001	-2.7037677E+002
3	0	7.661673871706444E+002	3.4769624E-001	-2.7036972E+002
3	0	7.666673871580133E+002	3.4749240E-001	-2.7039447E+002
3	0	7.671673871453822E+002	3.4740692E-001	-2.7039093E+002
3	0	7.676673871327512E+002	3.4752566E-001	-2.7039447E+002
3	0	7.681673871201201E+002	3.4756592E-001	-2.7037677E+002
3	0	7.686673871074890E+002	3.4753233E-001	-2.7035913E+002
3	0	7.691673870948580E+002	3.4742612E-001	-2.7037677E+002
3	0	7.696673870822269E+002	3.4731838E-001	-2.7039093E+002
3	0	7.701673870695959E+002	3.4709337E-001	-2.7036618E+002
3	0	7.706673870569648E+002	3.4677917E-001	-2.7039801E+002
3	0	7.711673870443337E+002	3.4657863E-001	-2.7035913E+002
3	0	7.716673870317027E+002	3.4660885E-001	-2.7037326E+002
3	0	7.721673870190716E+002	3.4656486E-001	-2.7038385E+002
3	0	7.726673870064405E+002	3.4646586E-001	-2.7038385E+002
3	0	7.731673869938095E+002	3.4632459E-001	-2.7037326E+002
3	0	7.736673869811784E+002	3.4613812E-001	-2.7036267E+002
3	0	7.741673869685474E+002	3.4590977E-001	-2.7037677E+002
3	0	7.746673869559163E+002	3.4558058E-001	-2.7038385E+002
3	0	7.751673869432852E+002	3.4538403E-001	-2.7038031E+002
3	0	7.756673869306542E+002	3.4539315E-001	-2.7040506E+002
3	0	7.761673869180231E+002	3.4532842E-001	-2.7036618E+002
3	0	7.766673869053921E+002	3.4522495E-001	-2.7037326E+002
3	0	7.771673868927610E+002	3.4506041E-001	-2.7037677E+002
3	0	7.776673868801299E+002	3.4487045E-001	-2.7036972E+002
3	0	7.781673868674989E+002	3.4457394E-001	-2.7036267E+002
3	0	7.786673868548678E+002	3.4425136E-001	-2.7037677E+002
3	0	7.791673868422367E+002	3.4403744E-001	-2.7037326E+002
3	0	7.796673868296057E+002	3.4405527E-001	-2.7036972E+002
3	0	7.801673868169746E+002	3.4405583E-001	-2.7039801E+002
3	0	7.806673868043436E+002	3.4407696E-001	-2.7039801E+002
3	0	7.811673867917125E+002	3.4411690E-001	-2.7035913E+002
3	0	7.816673867790814E+002	3.4420246E-001	-2.7036972E+002
3	0	7.821673867664504E+002	3.4423399E-001	-2.7037326E+002
3	0	7.826673867538193E+002	3.4423029E-001	-2.7038031E+002
3	0	7.831673867411882E+002	3.4432694E-001	-2.7036972E+002
3	0	7.836673867285572E+002	3.4460360E-001	-2.7036618E+002
3	0	7.841673867159261E+002	3.4477934E-001	-2.7035913E+002
3	0	7.846673867032951E+002	3.4485286E-001	-2.7037326E+002
3	0	7.851673866906640E+002	3.4483844E-001	-2.7036972E+002
3	0	7.856673866780329E+002	3.4478024E-001	-2.7037677E+002
3	0	7.861673866654019E+002	3.4461880E-001	-2.7039801E+002
3	0	7.866673866527708E+002	3.4438506E-001	-2.7036972E+002
3	0	7.871673866401397E+002	3.4421536E-001	-2.7036618E+002
3	0	7.876673866275087E+002	3.4425679E-001	-2.7034851E+002
3	0	7.881673866148776E+002	3.4423777E-001	-2.7038385E+002
3	0	7.886673866022466E+002	3.4417206E-001	-2.7037326E+002
3	0	7.891673865896155E+002	3.4401974E-001	-2.7039801E+002
3	0	7.896673865769844E+002	3.4384403E-001	-2.7036618E+002
3	0	7.901673865643534E+002	3.4357223E-001	-2.7037326E+002
3	0	7.906673865517223E+002	3.4323990E-001	-2.7038031E+002
3	0	7.911673865390912E+002	3.4300712E-001	-2.7038385E+002
3	0	7.916673865264602E+002	3.4295100E-001	-2.7037326E+002
3	0	7.921673865138291E+002	3.4284148E-001	-2.7037677E+002
3	0	7.926673865011981E+002	3.4268659E-001	-2.7040155E+002
3	0	7.931673864885670E+002	3.4248823E-001	-2.7040860E+002
3	0	7.936673864759359E+002	3.4226421E-001	-2.7037677E+002
3	0	7.941673864633049E+002	3.4195778E-001	-2.7035205E+002
3	0	7.946673864506738E+002	3.4159294E-001	-2.7039093E+002
3	0	7.951673864380427E+002	3.4134829E-001	-2.7039093E+002
3	0	7.956673864254117E+002	3.4130710E-001	-2.7036618E+002
3	0	7.961673864127806E+002	3.4119523E-001	-2.7037677E+002
3	0	7.966673864001496E+002	3.4103292E-001	-2.7037677E+002
3	0	7.971673863875185E+002	3.4082696E-001	-2.7037677E+002
3	0	7.976673863748874E+002	3.4061128E-001	-2.7038031E+002
3	0	7.981673863622564E+002	3.4031346E-001	-2.7038385E+002
3	0	7.986673863496253E+002	3.3996025E-001	-2.7035913E+002
3	0	7.991673863369942E+002	3.3969876E-001	-2.7037326E+002
3	0	7.996673863243632E+002	3.3967429E-001	-2.7038385E+002
3	0	8.001673863117321E+002	3.3964789E-001	-2.7040155E+002
3	0	8.006673862991011E+002	3.3963567E-001	-2.7037677E+002
3	0	8.011673862864700E+002	3.3962330E-001	-2.7038031E+002
3	0	8.016673862738389E+002	3.3967915E-001	-2.7037326E+002
3	0	8.021673862612079E+002	3.3966351E-001	-2.7039447E+002
3	0	8.026673862485768E+002	3.3963335E-001	-2.7036972E+002
3	0	8.031673862359457E+002	3.3969519E-001	-2.7035559E+002
3	0	8.036673862233147E+002	3.3993247E-001	-2.7038031E+002
3	0	8.041673862106836E+002	3.4009179E-001	-2.7037326E+002
3	0	8.046673861980526E+002	3.4018147E-001	-2.7038742E+002
3	0	8.051673861854215E+002	3.4016937E-001	-2.7039093E+002
3	0	8.056673861727904E+002	3.4013817E-001	-2.7037326E+002
3	0	8.061673861601594E+002	3.3999953E-001	-2.7037326E+002
3	0	8.066673861475283E+002	3.3972621E-001	-2.7038031E+002
3	0	8.071673861348972E+002	3.3955082E-001	-2.7034851E+002
3	0	8.076673861222662E+002	3.3955121E-001	-2.7039801E+002
3	0	8.081673861096351E+002	3.3949816E-001	-2.7034851E+002
3	0	8.086673860970041E+002	3.3938971E-001	-2.7036267E+002
3	0	8.091673860843730E+002	3.3920768E-001	-2.7037677E+002
3	0	8.096673860717419E+002	3.3902732E-001	-2.7036972E+002
3	0	8.101673860591109E+002	3.3874041E-001	-2.7039801E+002
3	0	8.106673860464798E+002	3.3837238E-001	-2.7036618E+002
3	0	8.111673860338487E+002	3.3809248E-001	-2.7035205E+002
3	0	8.116673860212177E+002	3.3800566E-001	-2.7038385E+002
3	0	8.121673860085866E+002	3.3789441E-001	-2.7039093E+002
3	0	8.126673859959556E+002	3.3775797E-001	-2.7036618E+002
3	0	8.131673859833245E+002	3.3754793E-001	-2.7040155E+002
3	0	8.136673859706934E+002	3.3731490E-001	-2.7037677E+002
3	0	8.141673859580624E+002	3.3699989E-001	-2.7036618E+002
3	0	8.146673859454313E+002	3.3663699E-001	-2.7035205E+002
3	0	8.151673859328002E+002	3.3635741E-001	-2.7038031E+002
3	0	8.156673859201692E+002	3.3627057E-001	-2.7037677E+002
3	0	8.161673859075381E+002	3.3615547E-001	-2.7039093E+002
3	0	8.166673858949071E+002	3.3598149E-001	-2.7038742E+002
3	0	8.171673858822760E+002	3.3577931E-001	-2.7037326E+002
3	0	8.176673858696449E+002	3.3555162E-001	-2.7036267E+002
3	0	8.181673858570139E+002	3.3524963E-001	-2.7039093E+002
3	0	8.186673858443828E+002	3.3488318E-001	-2.7038031E+002
3	0	8.191673858317517E+002	3.3459890E-001	-2.7037677E+002
3	0	8.196673858191207E+002	3.3453494E-001	-2.7037677E+002
3	0	8.201673858064896E+002	3.3450040E-001	-2.7038031E+002
3	0	8.206673857938586E+002	3.3448085E-001	-2.7036972E+002
3	0	8.211673857812275E+002	3.3445436E-001	-2.7038385E+002
3	0	8.216673857685964E+002	3.3446503E-001	-2.7038031E+002
3	0	8.221673857559654E+002	3.3447406E-001	-2.7038742E+002
3	0	8.226673857433343E+002	3.3443481E-001	-2.7035559E+002
3	0	8.231673857307032E+002	3.3446252E-001	-2.7037326E+002
3	0	8.236673857180722E+002	3.3468539E-001	-2.7039447E+002
3	0	8.241673857054411E+002	3.3484185E-001	-2.7037326E+002
3	0	8.246673856928101E+002	3.3493197E-001	-2.7036972E+002
3	0	8.251673856801790E+002	3.3493900E-001	-2.7037677E+002
3	0	8.256673856675479E+002	3.3487710E-001	-2.7039801E+002
3	0	8.261673856549169E+002	3.3472064E-001	-2.7039093E+002
3	0	8.266673856422858E+002	3.3445153E-001	-2.7038385E+002
3	0	8.271673856296547E+002	3.3425358E-001	-2.7037326E+002
3	0	8.276673856170237E+002	3.3422387E-001	-2.7036972E+002
3	0	8.281673856043926E+002	3.3414608E-001	-2.7039801E+002
3	0	8.286673855917616E+002	3.3402011E-001	-2.7038031E+002
3	0	8.291673855791305E+002	3.3384481E-001	-2.7038031E+002
3	0	8.296673855664994E+002	3.3365282E-001	-2.7035205E+002
3	0	8.301673855538684E+002	3.3338308E-001	-2.7036267E+002
3	0	8.306673855412373E+002	3.3300987E-001	-2.7040506E+002
3	0	8.311673855286062E+002	3.3271515E-001	-2.7038385E+002
3	0	8.316673855159752E+002	3.3260819E-001	-2.7038031E+002
3	0	8.321673855033441E+002	3.3247226E-001	-2.7037677E+002
3	0	8.326673854907131E+002	3.3230516E-001	-2.7036267E+002
3	0	8.331673854780820E+002	3.3209383E-001	-2.7039447E+002
3	0	8.336673854654509E+002	3.3185992E-001	-2.7037677E+002
3	0	8.341673854528199E+002	3.3157787E-001	-2.7037677E+002
3	0	8.346673854401888E+002	3.3122858E-001	-2.7038385E+002
3	0	8.351673854275577E+002	3.3093661E-001	-2.7036972E+002
3	0	8.356673854149267E+002	3.3081484E-001	-2.7039093E+002
3	0	8.361673854022956E+002	3.3066854E-001	-2.7037677E+002
3	0	8.366673853896646E+002	3.3051407E-001	-2.7037677E+002
3	0	8.371673853770335E+002	3.3030257E-001	-2.7039093E+002
3	0	8.376673853644024E+002	3.3006680E-001	-2.7036618E+002
3	0	8.381673853517714E+002	3.2978660E-001	-2.7037326E+002
3	0	8.386673853391403E+002	3.2944331E-001	-2.7040155E+002
3	0	8.391673853265092E+002	3.2916072E-001	-2.7038742E+002
3	0	8.396673853138782E+002	3.2908005E-001	-2.7039093E+002
3	0	8.401673853012471E+002	3.2900172E-001	-2.7036972E+002
3	0	8.406673852886161E+002	3.2895622E-001	-2.7038742E+002
3	0	8.411673852759850E+002	3.2892245E-001	-2.7039447E+002
3	0	8.416673852633539E+002	3.2892537E-001	-2.7039447E+002
3	0	8.421673852507229E+002	3.2890746E-001	-2.7035559E+002
3	0	8.426673852380918E+002	3.2886845E-001	-2.7036267E+002
3	0	8.431673852254607E+002	3.2889506E-001	-2.7038385E+002
3	0	8.436673852128297E+002	3.2909340E-001	-2.7037326E+002
3	0	8.441673852001986E+002	3.2924831E-001	-2.7039093E+002
3	0	8.446673851875676E+002	3.2936171E-001	-2.7037326E+002
3	0	8.451673851749365E+002	3.2936949E-001	-2.7036618E+002
3	0	8.456673851623054E+002	3.2933763E-001	-2.7038742E+002
3	0	8.461673851496744E+002	3.2921195E-001	-2.7038385E+002
3	0	8.466673851370433E+002	3.2898313E-001	-2.7038742E+002
3	0	8.471673851244122E+002	3.2878074E-001	-2.7037326E+002
3	0	8.476673851117812E+002	3.2874286E-001	-2.7038385E+002
3	0	8.481673850991501E+002	3.2866976E-001	-2.7037677E+002
3	0	8.486673850865191E+002	3.2858083E-001	-2.7038031E+002
3	0	8.491673850738880E+002	3.2841229E-001	-2.7035913E+002
3	0	8.496673850612569E+002	3.2812980E-001	-2.7039447E+002
3	0	8.501673850486259E+002	3.2789439E-001	-2.7038742E+002
3	0	8.506673850359948E+002	3.2767177E-001	-2.7040506E+002
3	0	8.511673850233638E+002	3.2746232E-001	-2.7036267E+002
3	0	8.516673850107327E+002	3.2740432E-001	-2.7039447E+002
3	0	8.521673849981016E+002	3.2724175E-001	-2.7036618E+002
3	0	8.526673849854706E+002	3.2706398E-001	-2.7039447E+002
3	0	8.531673849728395E+002	3.2687578E-001	-2.7038031E+002
3	0	8.536673849602084E+002	3.2667249E-001	-2.7036618E+002
3	0	8.541673849475774E+002	3.2638684E-001	-2.7039093E+002
3	0	8.546673849349463E+002	3.2602343E-001	-2.7036618E+002
3	0	8.551673849223153E+002	3.2571796E-001	-2.7038385E+002
3	0	8.556673849096842E+002	3.2561034E-001	-2.7035205E+002
3	0	8.561673848970531E+002	3.2542685E-001	-2.7039447E+002
3	0	8.566673848844221E+002	3.2524037E-001	-2.7039447E+002
3	0	8.571673848717910E+002	3.2503721E-001	-2.7038031E+002
3	0	8.576673848591599E+002	3.2482201E-001	-2.7038031E+002
3	0	8.581673848465289E+002	3.2454351E-001	-2.7038031E+002
3	0	8.586673848338978E+002	3.2421479E-001	-2.7038385E+002
3	0	8.591673848212668E+002	3.2392982E-001	-2.7042273E+002
3	0	8.596673848086357E+002	3.2384628E-001	-2.7038031E+002
3	0	8.601673847960046E+002	3.2372954E-001	-2.7039093E+002
3	0	8.606673847833736E+002	3.2365087E-001	-2.7039093E+002
3	0	8.611673847707425E+002	3.2359919E-001	-2.7037326E+002
3	0	8.616673847581114E+002	3.2357243E-001	-2.7039093E+002
3	0	8.621673847454804E+002	3.2352948E-001	-2.7038742E+002
3	0	8.626673847328493E+002	3.2346666E-001	-2.7036267E+002
3	0	8.631673847202183E+002	3.2350525E-001	-2.7036267E+002
3	0	8.636673847075872E+002	3.2372934E-001	-2.7035559E+002
3	0	8.641673846949561E+002	3.2386672E-001	-2.7038742E+002
3	0	8.646673846823251E+002	3.2396892E-001	-2.7036972E+002
3	0	8.651673846696940E+002	3.2400736E-001	-2.7035913E+002
3	0	8.656673846570629E+002	3.2399952E-001	-2.7035559E+002
3	0	8.661673846444319E+002	3.2388449E-001	-2.7038031E+002
3	0	8.666673846318008E+002	3.2366318E-001	-2.7037326E+002
3	0	8.671673846191698E+002	3.2347277E-001	-2.7039093E+002
3	0	8.676673846065387E+002	3.2346144E-001	-2.7039447E+002
3	0	8.681673845939076E+002	3.2336357E-001	-2.7039093E+002
3	0	8.686673845812766E+002	3.2324025E-001	-2.7035559E+002
3	0	8.691673845686455E+002	3.2309994E-001	-2.7038031E+002
3	0	8.696673845560144E+002	3.2292265E-001	-2.7037677E+002
3	0	8.701673845433834E+002	3.2267827E-001	-2.7038031E+002
3	0	8.706673845307523E+002	3.2234949E-001	-2.7037677E+002
3	0	8.711673845181213E+002	3.2207772E-001	-2.7041214E+002
3	0	8.716673845054902E+002	3.2198563E-001	-2.7037677E+002
3	0	8.721673844928591E+002	3.2184237E-001	-2.7038385E+002
3	0	8.726673844802281E+002	3.2166594E-001	-2.7037326E+002
3	0	8.731673844675970E+002	3.2147884E-001	-2.7037677E+002
3	0	8.736673844549659E+002	3.2125121E-001	-2.7040155E+002
3	0	8.741673844423349E+002	3.2096991E-001	-2.7038031E+002
3	0	8.746673844297038E+002	3.2058766E-001	-2.7038031E+002
3	0	8.751673844170728E+002	3.2028815E-001	-2.7036972E+002
3	0	8.756673844044417E+002	3.2017630E-001	-2.7037677E+002
3	0	8.761673843918106E+002	3.2000500E-001	-2.7038742E+002
3	0	8.766673843791796E+002	3.1984431E-001	-2.7039801E+002
3	0	8.771673843665485E+002	3.1965229E-001	-2.7036972E+002
3	0	8.776673843539174E+002	3.1943643E-001	-2.7038031E+002
3	0	8.781673843412864E+002	3.1916994E-001	-2.7038031E+002
3	0	8.786673843286553E+002	3.1883892E-001	-2.7039093E+002
3	0	8.791673843160243E+002	3.1857583E-001	-2.7035913E+002
3	0	8.796673843033932E+002	3.1848940E-001	-2.7038385E+002
3	0	8.801673842907621E+002	3.1836185E-001	-2.7037677E+002
3	0	8.806673842781311E+002	3.1826165E-001	-2.7038742E+002
3	0	8.811673842655000E+002	3.1817713E-001	-2.7038031E+002
3	0	8.816673842528689E+002	3.1812173E-001	-2.7036618E+002
3	0	8.821673842402379E+002	3.1806529E-001	-2.7040155E+002
3	0	8.826673842276068E+002	3.1798339E-001	-2.7039447E+002
3	0	8.831673842149758E+002	3.1800467E-001	-2.7036972E+002
3	0	8.836673842023447E+002	3.1821334E-001	-2.7036267E+002
3	0	8.841673841897136E+002	3.1836429E-001	-2.7036267E+002
3	0	8.846673841770826E+002	3.1849405E-001	-2.7037326E+002
3	0	8.851673841644515E+002	3.1855842E-001	-2.7038742E+002
3	0	8.856673841518204E+002	3.1855977E-001	-2.7035559E+002
3	0	8.861673841391894E+002	3.1843805E-001	-2.7037677E+002
3	0	8.866673841265583E+002	3.1823066E-001	-2.7037326E+002
3	0	8.871673841139273E+002	3.1806242E-001	-2.7035913E+002
3	0	8.876673841012962E+002	3.1804338E-001	-2.7038385E+002
3	0	8.881673840886651E+002	3.1795207E-001	-2.7037326E+002
3	0	8.886673840760341E+002	3.1784475E-001	-2.7036618E+002
3	0	8.891673840634030E+002	3.1769732E-001	-2.7035559E+002
3	0	8.896673840507719E+002	3.1754225E-001	-2.7036972E+002
3	0	8.901673840381409E+002	3.1729126E-001	-2.7036267E+002
3	0	8.906673840255098E+002	3.1696388E-001	-2.7038742E+002
3	0	8.911673840128788E+002	3.1668368E-001	-2.7036267E+002
3	0	8.916673840002477E+002	3.1659329E-001	-2.7035913E+002
3	0	8.921673839876166E+002	3.1643990E-001	-2.7036618E+002
3	0	8.926673839749856E+002	3.1628722E-001	-2.7038031E+002
3	0	8.931673839623545E+002	3.1609982E-001	-2.7037677E+002
3	0	8.936673839497234E+002	3.1587759E-001	-2.7038031E+002
3	0	8.941673839370924E+002	3.1559816E-001	-2.7038742E+002
3	0	8.946673839244613E+002	3.1525090E-001	-2.7035559E+002
3	0	8.951673839118303E+002	3.1495327E-001	-2.7036618E+002
3	0	8.956673838991992E+002	3.1483144E-001	-2.7036267E+002
3	0	8.961673838865681E+002	3.1468382E-001	-2.7035559E+002
3	0	8.966673838739371E+002	3.1453061E-001	-2.7035559E+002
3	0	8.971673838613060E+002	3.1436333E-001	-2.7039447E+002
3	0	8.976673838486749E+002	3.1416953E-001	-2.7038385E+002
3	0	8.981673838360439E+002	3.1391475E-001	-2.7038385E+002
3	0	8.986673838234128E+002	3.1356198E-001	-2.7037326E+002
3	0	8.991673838107818E+002	3.1327981E-001	-2.7037326E+002
3	0	8.996673837981507E+002	3.1316850E-001	-2.7035913E+002
3	0	8.996907837975596E+002	3.1308851E-001	-2.7038385E+002