EC-Lab ASCII FILE
Nb header lines : 55                          

Open Circuit Voltage

Run on channel : 1 (SN 81504)
User : 
CE vs. WE compliance from -10 V to 10 V
Electrode connection : standard
Potential control : Ewe
Ewe ctrl range : min = -2.50 V, max = 2.50 V
Safety Limits :
	Do not start on E overload
Acquisition started on : 05/10/2026 09:44:17.042
Loaded Setting File :  C:\PEM-WE_measurements\2026\372_IV_IV IrOx, 5 min Pt, 30 min C, etched cathode\new station\Loopeis new\1,46 V different time gaps closed cell\Loopeis 1,46V_180s_4_PEIS from 650Hz to 100Hz.mps
Saved on :
	File : L_29_Loopeis 1,46V_180s_4_PEIS from 650Hz to 100Hz_02_OCV_C01.mpr
	Directory : C:\PEM-WE_measurements\2026\372_IV_IV IrOx, 5 min Pt, 30 min C, etched cathode\new station\Loopeis new\1,46 V different time gaps closed cell\
	Host : 192.168.0.2
Device : SP-150e (SN .005491)
Address : 192.168.0.91
EC-LAB for windows v11.71 (software)
Internet server v28.00 (firmware)
Command interpretor v14.01 (firmware)
Electrode material : 
Initial state : 
Electrolyte : 
Comments : 
Current amplifier : SP-150eB-20A
Electrode surface area : 0.001 cm²
Characteristic mass : 0.001 g
Equivalent Weight : 0.000 g/eq.
Density : 0.000 g/cm3
Volume (V) : 0.001 cm³
Record Analogic IN 1
Text export
   Mode : Standard
   Time format : Elapsed
Cycle Definition : Charge/Discharge alternance
External device configuration :
   device type : Temperature Probe
   device name : Other
   Analog IN 1 : 
      unit : T/Â°C
      max : 100.000 at 2.000 V
      min : 0.000 at 1.460 V
tR (h:m:s)          0:03:0.0000         
dER/dt (mV/h)       1.0                 
record              <Ewe>               
dER (mV)            10.00               
dtR (s)             0.5000              
E range min (V)     -2.500              
E range max (V)     2.500               

mode	error	time/s	<Ewe/V>	Analog IN 1/V	
3	0	4.549979885057837E+001	1.2913297E+000	-2.7035913E+002
3	0	4.599979883794731E+001	1.2972929E+000	-2.7038742E+002
3	0	4.649979882531625E+001	1.2860872E+000	-2.7035205E+002
3	0	4.699979881268519E+001	1.2641554E+000	-2.7035559E+002
3	0	4.749979880005412E+001	1.2266024E+000	-2.7036267E+002
3	0	4.799979878742306E+001	1.1601067E+000	-2.7036267E+002
3	0	4.849979877479200E+001	9.5609087E-001	-2.7036267E+002
3	0	4.899979876216094E+001	5.3113085E-001	-2.7038031E+002
3	0	4.949979874952987E+001	3.9387384E-001	-2.7037326E+002
3	0	4.999979873689881E+001	3.6694255E-001	-2.7039447E+002
3	0	5.049979872426775E+001	3.6279884E-001	-2.7036267E+002
3	0	5.099979871163669E+001	3.6261237E-001	-2.7039801E+002
3	0	5.149979869900562E+001	3.6307040E-001	-2.7038742E+002
3	0	5.199979868637456E+001	3.6369014E-001	-2.7038742E+002
3	0	5.249979867374350E+001	3.6413887E-001	-2.7038031E+002
3	0	5.299979866111244E+001	3.6435238E-001	-2.7036618E+002
3	0	5.349979864848137E+001	3.6445072E-001	-2.7036972E+002
3	0	5.399979863585031E+001	3.6454555E-001	-2.7035559E+002
3	0	5.449979862321925E+001	3.6462793E-001	-2.7038031E+002
3	0	5.499979861058819E+001	3.6463571E-001	-2.7039801E+002
3	0	5.549979859795712E+001	3.6465383E-001	-2.7038031E+002
3	0	5.599979858532606E+001	3.6493263E-001	-2.7038385E+002
3	0	5.649979857269500E+001	3.6535889E-001	-2.7039801E+002
3	0	5.699979856006394E+001	3.6574495E-001	-2.7037677E+002
3	0	5.749979854743287E+001	3.6611363E-001	-2.7037326E+002
3	0	5.799979853480181E+001	3.6649632E-001	-2.7036267E+002
3	0	5.849979852217075E+001	3.6692375E-001	-2.7037677E+002
3	0	5.899979850953969E+001	3.6723742E-001	-2.7036972E+002
3	0	5.949979849690862E+001	3.6753282E-001	-2.7038742E+002
3	0	5.999979848427756E+001	3.6802164E-001	-2.7038742E+002
3	0	6.049979847164650E+001	3.6853057E-001	-2.7039093E+002
3	0	6.099979845901544E+001	3.6894637E-001	-2.7035205E+002
3	0	6.149979844638438E+001	3.6923620E-001	-2.7041568E+002
3	0	6.199979843375331E+001	3.6948881E-001	-2.7036972E+002
3	0	6.249979842112225E+001	3.6970815E-001	-2.7039093E+002
3	0	6.299979840849119E+001	3.6980358E-001	-2.7038031E+002
3	0	6.349979839586013E+001	3.6983922E-001	-2.7038385E+002
3	0	6.399979838322906E+001	3.7010592E-001	-2.7037326E+002
3	0	6.449979837059800E+001	3.7043110E-001	-2.7037326E+002
3	0	6.499979835796694E+001	3.7068412E-001	-2.7038742E+002
3	0	6.549979834533588E+001	3.7082571E-001	-2.7038031E+002
3	0	6.599979833270481E+001	3.7092891E-001	-2.7036267E+002
3	0	6.649979832007375E+001	3.7100738E-001	-2.7038742E+002
3	0	6.699979830744269E+001	3.7099659E-001	-2.7039093E+002
3	0	6.749979829481163E+001	3.7093696E-001	-2.7038031E+002
3	0	6.799979828218056E+001	3.7109289E-001	-2.7037326E+002
3	0	6.849979826954950E+001	3.7132764E-001	-2.7038742E+002
3	0	6.899979825691844E+001	3.7146220E-001	-2.7040155E+002
3	0	6.949979824428738E+001	3.7151322E-001	-2.7038385E+002
3	0	6.999979823165631E+001	3.7155205E-001	-2.7038385E+002
3	0	7.049979821902525E+001	3.7155530E-001	-2.7037677E+002
3	0	7.099979820639419E+001	3.7145418E-001	-2.7039447E+002
3	0	7.149979819376313E+001	3.7132812E-001	-2.7038742E+002
3	0	7.199979818113206E+001	3.7143061E-001	-2.7036618E+002
3	0	7.249979816850100E+001	3.7161374E-001	-2.7038031E+002
3	0	7.299979815586994E+001	3.7170786E-001	-2.7037326E+002
3	0	7.349979814323888E+001	3.7172341E-001	-2.7037326E+002
3	0	7.399979813060781E+001	3.7174076E-001	-2.7039801E+002
3	0	7.449979811797675E+001	3.7172088E-001	-2.7040155E+002
3	0	7.499979810534569E+001	3.7159207E-001	-2.7035913E+002
3	0	7.549979809271463E+001	3.7143686E-001	-2.7037326E+002
3	0	7.599979808008356E+001	3.7154156E-001	-2.7038385E+002
3	0	7.649979806745250E+001	3.7179935E-001	-2.7037677E+002
3	0	7.699979805482144E+001	3.7202203E-001	-2.7039801E+002
3	0	7.749979804219038E+001	3.7221798E-001	-2.7037677E+002
3	0	7.799979802955932E+001	3.7246263E-001	-2.7038742E+002
3	0	7.849979801692825E+001	3.7270397E-001	-2.7039447E+002
3	0	7.899979800429719E+001	3.7288254E-001	-2.7038742E+002
3	0	7.949979799166613E+001	3.7300298E-001	-2.7037326E+002
3	0	7.999979797903507E+001	3.7324706E-001	-2.7038385E+002
3	0	8.049979796640400E+001	3.7356529E-001	-2.7037677E+002
3	0	8.099979795377294E+001	3.7377885E-001	-2.7037677E+002
3	0	8.149979794114188E+001	3.7387127E-001	-2.7038385E+002
3	0	8.199979792851082E+001	3.7392479E-001	-2.7036618E+002
3	0	8.249979791587975E+001	3.7390709E-001	-2.7038742E+002
3	0	8.299979790324869E+001	3.7377280E-001	-2.7038385E+002
3	0	8.349979789061763E+001	3.7358400E-001	-2.7035913E+002
3	0	8.399979787798657E+001	3.7360302E-001	-2.7036618E+002
3	0	8.449979786535550E+001	3.7373611E-001	-2.7036267E+002
3	0	8.499979785272444E+001	3.7377855E-001	-2.7038385E+002
3	0	8.549979784009338E+001	3.7374496E-001	-2.7038742E+002
3	0	8.599979782746232E+001	3.7370425E-001	-2.7037326E+002
3	0	8.649979781483125E+001	3.7360525E-001	-2.7035913E+002
3	0	8.699979780220019E+001	3.7339887E-001	-2.7037326E+002
3	0	8.749979778956913E+001	3.7313500E-001	-2.7037677E+002
3	0	8.799979777693807E+001	3.7307987E-001	-2.7039093E+002
3	0	8.849979776430700E+001	3.7313437E-001	-2.7039093E+002
3	0	8.899979775167594E+001	3.7310976E-001	-2.7037677E+002
3	0	8.949979773904488E+001	3.7299791E-001	-2.7039093E+002
3	0	8.999979772641382E+001	3.7284493E-001	-2.7036618E+002
3	0	9.049979771378275E+001	3.7266994E-001	-2.7039093E+002
3	0	9.099979770115169E+001	3.7239361E-001	-2.7037677E+002
3	0	9.149979768852063E+001	3.7208042E-001	-2.7038385E+002
3	0	9.199979767588957E+001	3.7197560E-001	-2.7039093E+002
3	0	9.249979766325851E+001	3.7198883E-001	-2.7038742E+002
3	0	9.299979765062744E+001	3.7193102E-001	-2.7038385E+002
3	0	9.349979763799638E+001	3.7180963E-001	-2.7039093E+002
3	0	9.399979762536532E+001	3.7166345E-001	-2.7038385E+002
3	0	9.449979761273426E+001	3.7149113E-001	-2.7037677E+002
3	0	9.499979760010319E+001	3.7118676E-001	-2.7038742E+002
3	0	9.549979758747213E+001	3.7086722E-001	-2.7038385E+002
3	0	9.599979757484107E+001	3.7078857E-001	-2.7038031E+002
3	0	9.649979756221001E+001	3.7087908E-001	-2.7036618E+002
3	0	9.699979754957894E+001	3.7096867E-001	-2.7040860E+002
3	0	9.749979753694788E+001	3.7103820E-001	-2.7038385E+002
3	0	9.799979752431682E+001	3.7113851E-001	-2.7037326E+002
3	0	9.849979751168576E+001	3.7126449E-001	-2.7036267E+002
3	0	9.899979749905469E+001	3.7130812E-001	-2.7037677E+002
3	0	9.949979748642363E+001	3.7128302E-001	-2.7040860E+002
3	0	9.999979747379257E+001	3.7143525E-001	-2.7038385E+002
3	0	1.004997974611615E+002	3.7167463E-001	-2.7036267E+002
3	0	1.009997974485304E+002	3.7180898E-001	-2.7037326E+002
3	0	1.014997974358994E+002	3.7184182E-001	-2.7036618E+002
3	0	1.019997974232683E+002	3.7179938E-001	-2.7037677E+002
3	0	1.024997974106373E+002	3.7172076E-001	-2.7037677E+002
3	0	1.029997973980062E+002	3.7155482E-001	-2.7036972E+002
3	0	1.034997973853751E+002	3.7129989E-001	-2.7037326E+002
3	0	1.039997973727441E+002	3.7119654E-001	-2.7037677E+002
3	0	1.044997973601130E+002	3.7122163E-001	-2.7038385E+002
3	0	1.049997973474819E+002	3.7118730E-001	-2.7036972E+002
3	0	1.054997973348509E+002	3.7106550E-001	-2.7035913E+002
3	0	1.059997973222198E+002	3.7093192E-001	-2.7038031E+002
3	0	1.064997973095888E+002	3.7074471E-001	-2.7036267E+002
3	0	1.069997972969577E+002	3.7044796E-001	-2.7037677E+002
3	0	1.074997972843266E+002	3.7009242E-001	-2.7034851E+002
3	0	1.079997972716956E+002	3.6995757E-001	-2.7039447E+002
3	0	1.084997972590645E+002	3.6991987E-001	-2.7040155E+002
3	0	1.089997972464334E+002	3.6981884E-001	-2.7038742E+002
3	0	1.094997972338024E+002	3.6965489E-001	-2.7038031E+002
3	0	1.099997972211713E+002	3.6944038E-001	-2.7037326E+002
3	0	1.104997972085403E+002	3.6919868E-001	-2.7037326E+002
3	0	1.109997971959092E+002	3.6888796E-001	-2.7037677E+002
3	0	1.114997971832781E+002	3.6849767E-001	-2.7036972E+002
3	0	1.119997971706471E+002	3.6830500E-001	-2.7036618E+002
3	0	1.124997971580160E+002	3.6824998E-001	-2.7038031E+002
3	0	1.129997971453849E+002	3.6814484E-001	-2.7038742E+002
3	0	1.134997971327539E+002	3.6798829E-001	-2.7036972E+002
3	0	1.139997971201228E+002	3.6780915E-001	-2.7038031E+002
3	0	1.144997971074918E+002	3.6759707E-001	-2.7038031E+002
3	0	1.149997970948607E+002	3.6729005E-001	-2.7040860E+002
3	0	1.154997970822296E+002	3.6694694E-001	-2.7039093E+002
3	0	1.159997970695986E+002	3.6679313E-001	-2.7041214E+002
3	0	1.164997970569675E+002	3.6680934E-001	-2.7036972E+002
3	0	1.169997970443364E+002	3.6683664E-001	-2.7037326E+002
3	0	1.174997970317054E+002	3.6686477E-001	-2.7036972E+002
3	0	1.179997970190743E+002	3.6689183E-001	-2.7039093E+002
3	0	1.184997970064433E+002	3.6695141E-001	-2.7036972E+002
3	0	1.189997969938122E+002	3.6694956E-001	-2.7035559E+002
3	0	1.194997969811811E+002	3.6689374E-001	-2.7041568E+002
3	0	1.199997969685501E+002	3.6700258E-001	-2.7039093E+002
3	0	1.204997969559190E+002	3.6717746E-001	-2.7041568E+002
3	0	1.209997969432879E+002	3.6728007E-001	-2.7042627E+002
3	0	1.214997969306569E+002	3.6731049E-001	-2.7038031E+002
3	0	1.219997969180258E+002	3.6725715E-001	-2.7036618E+002
3	0	1.224997969053948E+002	3.6715248E-001	-2.7038742E+002
3	0	1.229997968927637E+002	3.6694029E-001	-2.7037326E+002
3	0	1.234997968801326E+002	3.6663902E-001	-2.7037326E+002
3	0	1.239997968675016E+002	3.6650988E-001	-2.7037326E+002
3	0	1.244997968548705E+002	3.6648932E-001	-2.7036618E+002
3	0	1.249997968422394E+002	3.6641684E-001	-2.7038385E+002
3	0	1.254997968296084E+002	3.6626855E-001	-2.7036618E+002
3	0	1.259997968169773E+002	3.6607313E-001	-2.7036972E+002
3	0	1.264997968043463E+002	3.6584088E-001	-2.7036267E+002
3	0	1.269997967917152E+002	3.6553568E-001	-2.7036618E+002
3	0	1.274997967790841E+002	3.6515993E-001	-2.7036618E+002
3	0	1.279997967664531E+002	3.6495188E-001	-2.7037677E+002
3	0	1.284997967538220E+002	3.6487579E-001	-2.7036267E+002
3	0	1.289997967411909E+002	3.6474237E-001	-2.7038385E+002
3	0	1.294997967285599E+002	3.6454982E-001	-2.7038031E+002
3	0	1.299997967159288E+002	3.6432749E-001	-2.7038031E+002
3	0	1.304997967032978E+002	3.6406371E-001	-2.7040506E+002
3	0	1.309997966906667E+002	3.6372709E-001	-2.7039447E+002
3	0	1.314997966780356E+002	3.6333355E-001	-2.7037677E+002
3	0	1.319997966654046E+002	3.6311451E-001	-2.7037677E+002
3	0	1.324997966527735E+002	3.6304080E-001	-2.7037326E+002
3	0	1.329997966401424E+002	3.6293247E-001	-2.7035913E+002
3	0	1.334997966275114E+002	3.6277488E-001	-2.7038742E+002
3	0	1.339997966148803E+002	3.6256042E-001	-2.7038742E+002
3	0	1.344997966022493E+002	3.6235869E-001	-2.7037677E+002
3	0	1.349997965896182E+002	3.6203808E-001	-2.7037677E+002
3	0	1.354997965769871E+002	3.6167699E-001	-2.7035205E+002
3	0	1.359997965643561E+002	3.6149955E-001	-2.7038385E+002
3	0	1.364997965517250E+002	3.6149237E-001	-2.7038742E+002
3	0	1.369997965390940E+002	3.6149284E-001	-2.7039093E+002
3	0	1.374997965264629E+002	3.6149299E-001	-2.7038031E+002
3	0	1.379997965138318E+002	3.6150348E-001	-2.7038742E+002
3	0	1.384997965012008E+002	3.6155888E-001	-2.7037677E+002
3	0	1.389997964885697E+002	3.6152360E-001	-2.7036972E+002
3	0	1.394997964759386E+002	3.6148930E-001	-2.7036618E+002
3	0	1.399997964633076E+002	3.6157325E-001	-2.7038385E+002
3	0	1.404997964506765E+002	3.6176777E-001	-2.7036267E+002
3	0	1.409997964380455E+002	3.6189133E-001	-2.7036972E+002
3	0	1.414997964254144E+002	3.6193264E-001	-2.7039447E+002
3	0	1.419997964127833E+002	3.6187848E-001	-2.7036972E+002
3	0	1.424997964001523E+002	3.6177561E-001	-2.7036972E+002
3	0	1.429997963875212E+002	3.6155936E-001	-2.7034851E+002
3	0	1.434997963748901E+002	3.6128256E-001	-2.7036618E+002
3	0	1.439997963622591E+002	3.6116347E-001	-2.7036267E+002
3	0	1.444997963496280E+002	3.6112574E-001	-2.7035559E+002
3	0	1.449997963369970E+002	3.6106032E-001	-2.7038031E+002
3	0	1.454997963243659E+002	3.6092001E-001	-2.7037677E+002
3	0	1.459997963117348E+002	3.6072102E-001	-2.7035913E+002
3	0	1.464997962991038E+002	3.6052638E-001	-2.7035913E+002
3	0	1.469997962864727E+002	3.6021471E-001	-2.7038385E+002
3	0	1.474997962738416E+002	3.5982966E-001	-2.7037326E+002
3	0	1.479997962612106E+002	3.5960910E-001	-2.7038385E+002
3	0	1.484997962485795E+002	3.5949415E-001	-2.7036972E+002
3	0	1.489997962359485E+002	3.5936463E-001	-2.7036972E+002
3	0	1.494997962233174E+002	3.5917649E-001	-2.7037677E+002
3	0	1.499997962106863E+002	3.5895500E-001	-2.7034851E+002
3	0	1.504997961980553E+002	3.5870358E-001	-2.7036972E+002
3	0	1.509997961854242E+002	3.5837865E-001	-2.7038031E+002
3	0	1.514997961727931E+002	3.5798573E-001	-2.7039093E+002
3	0	1.519997961601621E+002	3.5775757E-001	-2.7036267E+002
3	0	1.524997961475310E+002	3.5765567E-001	-2.7036267E+002
3	0	1.529997961349000E+002	3.5752302E-001	-2.7038385E+002
3	0	1.534997961222689E+002	3.5733694E-001	-2.7035913E+002
3	0	1.539997961096378E+002	3.5711151E-001	-2.7039801E+002
3	0	1.544997960970068E+002	3.5685593E-001	-2.7038031E+002
3	0	1.549997960843757E+002	3.5651740E-001	-2.7035559E+002
3	0	1.554997960717446E+002	3.5612538E-001	-2.7038742E+002
3	0	1.559997960591136E+002	3.5591954E-001	-2.7037326E+002
3	0	1.564997960464825E+002	3.5586292E-001	-2.7040155E+002
3	0	1.569997960338515E+002	3.5583827E-001	-2.7039093E+002
3	0	1.574997960212204E+002	3.5583225E-001	-2.7036267E+002
3	0	1.579997960085893E+002	3.5584733E-001	-2.7038031E+002
3	0	1.584997959959583E+002	3.5588518E-001	-2.7037677E+002
3	0	1.589997959833272E+002	3.5587648E-001	-2.7040155E+002
3	0	1.594997959706961E+002	3.5581201E-001	-2.7036972E+002
3	0	1.599997959580651E+002	3.5590258E-001	-2.7035559E+002
3	0	1.604997959454340E+002	3.5609379E-001	-2.7037677E+002
3	0	1.609997959328030E+002	3.5622823E-001	-2.7037677E+002
3	0	1.614997959201719E+002	3.5626796E-001	-2.7035913E+002
3	0	1.619997959075408E+002	3.5623524E-001	-2.7035913E+002
3	0	1.624997958949098E+002	3.5615465E-001	-2.7036618E+002
3	0	1.629997958822787E+002	3.5595927E-001	-2.7038742E+002
3	0	1.634997958696476E+002	3.5567668E-001	-2.7038742E+002
3	0	1.639997958570166E+002	3.5552350E-001	-2.7040155E+002
3	0	1.644997958443855E+002	3.5547918E-001	-2.7038385E+002
3	0	1.649997958317545E+002	3.5539070E-001	-2.7038031E+002
3	0	1.654997958191234E+002	3.5524189E-001	-2.7039447E+002
3	0	1.659997958064923E+002	3.5505179E-001	-2.7035913E+002
3	0	1.664997957938613E+002	3.5483852E-001	-2.7037677E+002
3	0	1.669997957812302E+002	3.5451326E-001	-2.7035913E+002
3	0	1.674997957685991E+002	3.5412422E-001	-2.7038031E+002
3	0	1.679997957559681E+002	3.5389540E-001	-2.7039447E+002
3	0	1.684997957433370E+002	3.5378733E-001	-2.7037326E+002
3	0	1.689997957307060E+002	3.5365894E-001	-2.7036267E+002
3	0	1.694997957180749E+002	3.5348898E-001	-2.7035913E+002
3	0	1.699997957054438E+002	3.5327250E-001	-2.7037677E+002
3	0	1.704997956928128E+002	3.5303423E-001	-2.7038385E+002
3	0	1.709997956801817E+002	3.5271883E-001	-2.7038031E+002
3	0	1.714997956675506E+002	3.5235074E-001	-2.7039093E+002
3	0	1.719997956549196E+002	3.5211298E-001	-2.7037326E+002
3	0	1.724997956422885E+002	3.5199913E-001	-2.7036267E+002
3	0	1.729997956296575E+002	3.5187232E-001	-2.7036618E+002
3	0	1.734997956170264E+002	3.5169646E-001	-2.7038385E+002
3	0	1.739997956043953E+002	3.5148495E-001	-2.7040155E+002
3	0	1.744997955917643E+002	3.5125083E-001	-2.7035913E+002
3	0	1.749997955791332E+002	3.5094652E-001	-2.7036972E+002
3	0	1.754997955665021E+002	3.5058570E-001	-2.7038385E+002
3	0	1.759997955538711E+002	3.5034946E-001	-2.7037677E+002
3	0	1.764997955412400E+002	3.5026905E-001	-2.7039801E+002
3	0	1.769997955286090E+002	3.5022762E-001	-2.7038742E+002
3	0	1.774997955159779E+002	3.5020643E-001	-2.7038031E+002
3	0	1.779997955033468E+002	3.5020179E-001	-2.7037326E+002
3	0	1.784997954907158E+002	3.5020575E-001	-2.7038742E+002
3	0	1.789997954780847E+002	3.5018179E-001	-2.7039801E+002
3	0	1.794997954654536E+002	3.5010204E-001	-2.7035559E+002
3	0	1.799997954528226E+002	3.5016370E-001	-2.7039447E+002
3	0	1.804997954401915E+002	3.5032696E-001	-2.7036972E+002
3	0	1.809997954275605E+002	3.5046694E-001	-2.7038385E+002
3	0	1.814997954149294E+002	3.5054198E-001	-2.7036618E+002
3	0	1.819997954022983E+002	3.5052761E-001	-2.7038385E+002
3	0	1.824997953896673E+002	3.5045907E-001	-2.7039801E+002
3	0	1.829997953770362E+002	3.5028961E-001	-2.7038385E+002
3	0	1.834997953644051E+002	3.5000119E-001	-2.7038031E+002
3	0	1.839997953517741E+002	3.4981728E-001	-2.7036618E+002
3	0	1.844997953391430E+002	3.4976295E-001	-2.7037326E+002
3	0	1.849997953265120E+002	3.4967998E-001	-2.7035913E+002
3	0	1.854997953138809E+002	3.4955788E-001	-2.7037326E+002
3	0	1.859997953012498E+002	3.4937620E-001	-2.7036267E+002
3	0	1.864997952886188E+002	3.4914964E-001	-2.7035559E+002
3	0	1.869997952759877E+002	3.4886426E-001	-2.7038742E+002
3	0	1.874997952633566E+002	3.4849903E-001	-2.7038031E+002
3	0	1.879997952507256E+002	3.4826124E-001	-2.7036972E+002
3	0	1.884997952380945E+002	3.4815761E-001	-2.7038031E+002
3	0	1.889997952254635E+002	3.4802336E-001	-2.7035913E+002
3	0	1.894997952128324E+002	3.4787413E-001	-2.7039093E+002
3	0	1.899997952002013E+002	3.4767100E-001	-2.7036972E+002
3	0	1.904997951875703E+002	3.4733981E-001	-2.7036618E+002
3	0	1.909997951749392E+002	3.4710720E-001	-2.7036972E+002
3	0	1.914997951623081E+002	3.4681708E-001	-2.7038742E+002
3	0	1.919997951496771E+002	3.4660345E-001	-2.7037677E+002
3	0	1.924997951370460E+002	3.4649375E-001	-2.7037326E+002
3	0	1.929997951244150E+002	3.4631810E-001	-2.7038742E+002
3	0	1.934997951117839E+002	3.4612924E-001	-2.7036618E+002
3	0	1.939997950991528E+002	3.4592816E-001	-2.7036972E+002
3	0	1.944997950865218E+002	3.4570023E-001	-2.7034851E+002
3	0	1.949997950738907E+002	3.4540480E-001	-2.7038742E+002
3	0	1.954997950612596E+002	3.4504437E-001	-2.7038742E+002
3	0	1.959997950486286E+002	3.4480318E-001	-2.7036972E+002
3	0	1.964997950359975E+002	3.4472385E-001	-2.7038031E+002
3	0	1.969997950233665E+002	3.4461552E-001	-2.7038385E+002
3	0	1.974997950107354E+002	3.4455189E-001	-2.7038385E+002
3	0	1.979997949981043E+002	3.4453240E-001	-2.7037326E+002
3	0	1.984997949854733E+002	3.4452692E-001	-2.7035913E+002
3	0	1.989997949728422E+002	3.4450018E-001	-2.7036972E+002
3	0	1.994997949602111E+002	3.4444660E-001	-2.7037677E+002
3	0	1.999997949475801E+002	3.4453130E-001	-2.7037326E+002
3	0	2.004997949349490E+002	3.4476578E-001	-2.7036267E+002
3	0	2.009997949223180E+002	3.4492260E-001	-2.7037326E+002
3	0	2.014997949096869E+002	3.4504440E-001	-2.7038742E+002
3	0	2.019997948970558E+002	3.4509373E-001	-2.7038031E+002
3	0	2.024997948844248E+002	3.4507924E-001	-2.7038385E+002
3	0	2.029997948717937E+002	3.4492797E-001	-2.7039093E+002
3	0	2.034997948591626E+002	3.4469083E-001	-2.7038031E+002
3	0	2.039997948465316E+002	3.4455693E-001	-2.7038385E+002
3	0	2.044997948339005E+002	3.4451750E-001	-2.7038742E+002
3	0	2.049997948212695E+002	3.4441239E-001	-2.7039093E+002
3	0	2.054997948086384E+002	3.4428301E-001	-2.7038385E+002
3	0	2.059997947960073E+002	3.4411305E-001	-2.7035913E+002
3	0	2.064997947833763E+002	3.4391952E-001	-2.7036618E+002
3	0	2.069997947707452E+002	3.4364146E-001	-2.7036267E+002
3	0	2.074997947581141E+002	3.4328446E-001	-2.7037326E+002
3	0	2.079997947454831E+002	3.4303614E-001	-2.7040506E+002
3	0	2.084997947328520E+002	3.4290665E-001	-2.7039801E+002
3	0	2.089997947202210E+002	3.4272167E-001	-2.7039093E+002
3	0	2.094997947075899E+002	3.4252125E-001	-2.7037326E+002
3	0	2.099997946949588E+002	3.4230831E-001	-2.7038385E+002
3	0	2.104997946823278E+002	3.4208447E-001	-2.7037677E+002
3	0	2.109997946696967E+002	3.4178683E-001	-2.7037677E+002
3	0	2.114997946570657E+002	3.4143263E-001	-2.7037677E+002
3	0	2.119997946444346E+002	3.4117690E-001	-2.7039093E+002
3	0	2.124997946318035E+002	3.4106049E-001	-2.7040506E+002
3	0	2.129997946191725E+002	3.4088749E-001	-2.7036618E+002
3	0	2.134997946065414E+002	3.4069949E-001	-2.7038742E+002
3	0	2.139997945939103E+002	3.4050030E-001	-2.7039093E+002
3	0	2.144997945812793E+002	3.4029078E-001	-2.7035559E+002
3	0	2.149997945686482E+002	3.3999687E-001	-2.7038742E+002
3	0	2.154997945560172E+002	3.3963615E-001	-2.7037326E+002
3	0	2.159997945433861E+002	3.3940175E-001	-2.7039447E+002
3	0	2.164997945307550E+002	3.3929950E-001	-2.7040155E+002
3	0	2.169997945181240E+002	3.3918649E-001	-2.7037326E+002
3	0	2.174997945054929E+002	3.3913356E-001	-2.7037677E+002
3	0	2.179997944928618E+002	3.3909842E-001	-2.7035913E+002
3	0	2.184997944802308E+002	3.3910009E-001	-2.7037677E+002
3	0	2.189997944675997E+002	3.3907178E-001	-2.7038385E+002
3	0	2.194997944549687E+002	3.3901578E-001	-2.7038742E+002
3	0	2.199997944423376E+002	3.3908865E-001	-2.7036618E+002
3	0	2.204997944297065E+002	3.3927691E-001	-2.7036618E+002
3	0	2.209997944170755E+002	3.3939204E-001	-2.7038385E+002
3	0	2.214997944044444E+002	3.3946690E-001	-2.7035559E+002
3	0	2.219997943918133E+002	3.3948922E-001	-2.7038031E+002
3	0	2.224997943791823E+002	3.3942586E-001	-2.7037326E+002
3	0	2.229997943665512E+002	3.3925250E-001	-2.7037677E+002
3	0	2.234997943539202E+002	3.3902845E-001	-2.7035913E+002
3	0	2.239997943412891E+002	3.3889452E-001	-2.7038742E+002
3	0	2.244997943286580E+002	3.3883917E-001	-2.7037326E+002
3	0	2.249997943160270E+002	3.3873242E-001	-2.7039093E+002
3	0	2.250001943160169E+002	3.3870810E-001	-2.7039447E+002