EC-Lab ASCII FILE
Nb header lines : 55                          

Open Circuit Voltage

Run on channel : 1 (SN 81504)
User : 
CE vs. WE compliance from -10 V to 10 V
Electrode connection : standard
Potential control : Ewe
Ewe ctrl range : min = -2.50 V, max = 2.50 V
Safety Limits :
	Do not start on E overload
Acquisition started on : 05/10/2026 09:44:17.042
Loaded Setting File :  C:\PEM-WE_measurements\2026\372_IV_IV IrOx, 5 min Pt, 30 min C, etched cathode\new station\Loopeis new\1,46 V different time gaps closed cell\Loopeis 1,46V_180s_4_PEIS from 650Hz to 100Hz.mps
Saved on :
	File : L_29_Loopeis 1,46V_180s_4_PEIS from 650Hz to 100Hz_12_OCV_C01.mpr
	Directory : C:\PEM-WE_measurements\2026\372_IV_IV IrOx, 5 min Pt, 30 min C, etched cathode\new station\Loopeis new\1,46 V different time gaps closed cell\
	Host : 192.168.0.2
Device : SP-150e (SN .005491)
Address : 192.168.0.91
EC-LAB for windows v11.71 (software)
Internet server v28.00 (firmware)
Command interpretor v14.01 (firmware)
Electrode material : 
Initial state : 
Electrolyte : 
Comments : 
Current amplifier : SP-150eB-20A
Electrode surface area : 0.001 cm²
Characteristic mass : 0.001 g
Equivalent Weight : 0.000 g/eq.
Density : 0.000 g/cm3
Volume (V) : 0.001 cm³
Record Analogic IN 1
Text export
   Mode : Standard
   Time format : Elapsed
Cycle Definition : Charge/Discharge alternance
External device configuration :
   device type : Temperature Probe
   device name : Other
   Analog IN 1 : 
      unit : T/Â°C
      max : 100.000 at 2.000 V
      min : 0.000 at 1.460 V
tR (h:m:s)          0:03:0.0000         
dER/dt (mV/h)       1.0                 
record              <Ewe>               
dER (mV)            10.00               
dtR (s)             0.5000              
E range min (V)     -2.500              
E range max (V)     2.500               

mode	error	time/s	<Ewe/V>	Analog IN 1/V	
3	0	1.172367980343406E+003	1.1076179E+000	-2.7036972E+002
3	0	1.172867980330775E+003	1.2552898E+000	-2.7036618E+002
3	0	1.173367980318144E+003	1.2446200E+000	-2.7038385E+002
3	0	1.173867980305513E+003	1.2209907E+000	-2.7039093E+002
3	0	1.174367980292882E+003	1.1786518E+000	-2.7036618E+002
3	0	1.174867980280251E+003	1.1005976E+000	-2.7039447E+002
3	0	1.175367980267620E+003	8.4115034E-001	-2.7037677E+002
3	0	1.175867980254989E+003	4.6902156E-001	-2.7039093E+002
3	0	1.176367980242358E+003	3.5260564E-001	-2.7039801E+002
3	0	1.176867980229727E+003	3.3122104E-001	-2.7039447E+002
3	0	1.177367980217095E+003	3.2924804E-001	-2.7039801E+002
3	0	1.177867980204464E+003	3.3068457E-001	-2.7037677E+002
3	0	1.178367980191833E+003	3.3240280E-001	-2.7036972E+002
3	0	1.178867980179202E+003	3.3375773E-001	-2.7038742E+002
3	0	1.179367980166571E+003	3.3497849E-001	-2.7038031E+002
3	0	1.179867980153940E+003	3.3578295E-001	-2.7037326E+002
3	0	1.180367980141309E+003	3.3625150E-001	-2.7038031E+002
3	0	1.180867980128678E+003	3.3658600E-001	-2.7035559E+002
3	0	1.181367980116047E+003	3.3688655E-001	-2.7038031E+002
3	0	1.181867980103416E+003	3.3714914E-001	-2.7035205E+002
3	0	1.182367980090785E+003	3.3730444E-001	-2.7038385E+002
3	0	1.182867980078154E+003	3.3755434E-001	-2.7037677E+002
3	0	1.183367980065523E+003	3.3817005E-001	-2.7035913E+002
3	0	1.183867980052892E+003	3.3883202E-001	-2.7035205E+002
3	0	1.184367980040261E+003	3.3938143E-001	-2.7039447E+002
3	0	1.184867980027630E+003	3.3990201E-001	-2.7038031E+002
3	0	1.185367980014998E+003	3.4046027E-001	-2.7036618E+002
3	0	1.185867980002367E+003	3.4092036E-001	-2.7036972E+002
3	0	1.186367979989736E+003	3.4121642E-001	-2.7036267E+002
3	0	1.186867979977105E+003	3.4151426E-001	-2.7037326E+002
3	0	1.187367979964474E+003	3.4210709E-001	-2.7035205E+002
3	0	1.187867979951843E+003	3.4263429E-001	-2.7036972E+002
3	0	1.188367979939212E+003	3.4301445E-001	-2.7035913E+002
3	0	1.188867979926581E+003	3.4333062E-001	-2.7038385E+002
3	0	1.189367979913950E+003	3.4364149E-001	-2.7038031E+002
3	0	1.189867979901319E+003	3.4385389E-001	-2.7038031E+002
3	0	1.190367979888688E+003	3.4393400E-001	-2.7037326E+002
3	0	1.190867979876057E+003	3.4405643E-001	-2.7036267E+002
3	0	1.191367979863426E+003	3.4447417E-001	-2.7035913E+002
3	0	1.191867979850795E+003	3.4483555E-001	-2.7039093E+002
3	0	1.192367979838164E+003	3.4506953E-001	-2.7036618E+002
3	0	1.192867979825533E+003	3.4522811E-001	-2.7037677E+002
3	0	1.193367979812901E+003	3.4537303E-001	-2.7038385E+002
3	0	1.193867979800270E+003	3.4547529E-001	-2.7035913E+002
3	0	1.194367979787639E+003	3.4548321E-001	-2.7036618E+002
3	0	1.194867979775008E+003	3.4546632E-001	-2.7038385E+002
3	0	1.195367979762377E+003	3.4575054E-001	-2.7038385E+002
3	0	1.195867979749746E+003	3.4604406E-001	-2.7035559E+002
3	0	1.196367979737115E+003	3.4617692E-001	-2.7034497E+002
3	0	1.196867979724484E+003	3.4624746E-001	-2.7036618E+002
3	0	1.197367979711853E+003	3.4632835E-001	-2.7037326E+002
3	0	1.197867979699222E+003	3.4630275E-001	-2.7037677E+002
3	0	1.198367979686591E+003	3.4621078E-001	-2.7035205E+002
3	0	1.198867979673960E+003	3.4614059E-001	-2.7035913E+002
3	0	1.199367979661329E+003	3.4637576E-001	-2.7038742E+002
3	0	1.199867979648698E+003	3.4658280E-001	-2.7038031E+002
3	0	1.200367979636067E+003	3.4666175E-001	-2.7038742E+002
3	0	1.200867979623436E+003	3.4667769E-001	-2.7039801E+002
3	0	1.201367979610804E+003	3.4670088E-001	-2.7038385E+002
3	0	1.201867979598173E+003	3.4668282E-001	-2.7036972E+002
3	0	1.202367979585542E+003	3.4657380E-001	-2.7038385E+002
3	0	1.202867979572911E+003	3.4654769E-001	-2.7038742E+002
3	0	1.203367979560280E+003	3.4692219E-001	-2.7038385E+002
3	0	1.203867979547649E+003	3.4732968E-001	-2.7036972E+002
3	0	1.204367979535018E+003	3.4764206E-001	-2.7039093E+002
3	0	1.204867979522387E+003	3.4793526E-001	-2.7036972E+002
3	0	1.205367979509756E+003	3.4826452E-001	-2.7037326E+002
3	0	1.205867979497125E+003	3.4854233E-001	-2.7038385E+002
3	0	1.206367979484494E+003	3.4870446E-001	-2.7037326E+002
3	0	1.206867979471863E+003	3.4882787E-001	-2.7036618E+002
3	0	1.207367979459232E+003	3.4918341E-001	-2.7036618E+002
3	0	1.207867979446601E+003	3.4952542E-001	-2.7037677E+002
3	0	1.208367979433970E+003	3.4970969E-001	-2.7039447E+002
3	0	1.208867979421339E+003	3.4981197E-001	-2.7036972E+002
3	0	1.209367979408707E+003	3.4989265E-001	-2.7038742E+002
3	0	1.209867979396076E+003	3.4986177E-001	-2.7039093E+002
3	0	1.210367979383445E+003	3.4968337E-001	-2.7038742E+002
3	0	1.210867979370814E+003	3.4953263E-001	-2.7036972E+002
3	0	1.211367979358183E+003	3.4966210E-001	-2.7038385E+002
3	0	1.211867979345552E+003	3.4978914E-001	-2.7040506E+002
3	0	1.212367979332921E+003	3.4976593E-001	-2.7039093E+002
3	0	1.212867979320290E+003	3.4971729E-001	-2.7038742E+002
3	0	1.213367979307659E+003	3.4961990E-001	-2.7036972E+002
3	0	1.213867979295028E+003	3.4947747E-001	-2.7035913E+002
3	0	1.214367979282397E+003	3.4919181E-001	-2.7037326E+002
3	0	1.214867979269766E+003	3.4893849E-001	-2.7038031E+002
3	0	1.215367979257135E+003	3.4899947E-001	-2.7038385E+002
3	0	1.215867979244504E+003	3.4906012E-001	-2.7039801E+002
3	0	1.216367979231873E+003	3.4899658E-001	-2.7039801E+002
3	0	1.216867979219242E+003	3.4886634E-001	-2.7036267E+002
3	0	1.217367979206610E+003	3.4874064E-001	-2.7038742E+002
3	0	1.217867979193979E+003	3.4853789E-001	-2.7037326E+002
3	0	1.218367979181348E+003	3.4826830E-001	-2.7037326E+002
3	0	1.218867979168717E+003	3.4797782E-001	-2.7038031E+002
3	0	1.219367979156086E+003	3.4796461E-001	-2.7038385E+002
3	0	1.219867979143455E+003	3.4799445E-001	-2.7038031E+002
3	0	1.220367979130824E+003	3.4792241E-001	-2.7038031E+002
3	0	1.220867979118193E+003	3.4778160E-001	-2.7036972E+002
3	0	1.221367979105562E+003	3.4764722E-001	-2.7036618E+002
3	0	1.221867979092931E+003	3.4744358E-001	-2.7039447E+002
3	0	1.222367979080300E+003	3.4716731E-001	-2.7040155E+002
3	0	1.222867979067669E+003	3.4697953E-001	-2.7035913E+002
3	0	1.223367979055038E+003	3.4713951E-001	-2.7036267E+002
3	0	1.223867979042407E+003	3.4736291E-001	-2.7038385E+002
3	0	1.224367979029776E+003	3.4752664E-001	-2.7039801E+002
3	0	1.224867979017145E+003	3.4767798E-001	-2.7037326E+002
3	0	1.225367979004513E+003	3.4783390E-001	-2.7036972E+002
3	0	1.225867978991882E+003	3.4794232E-001	-2.7037326E+002
3	0	1.226367978979251E+003	3.4790599E-001	-2.7037677E+002
3	0	1.226867978966620E+003	3.4783408E-001	-2.7041214E+002
3	0	1.227367978953989E+003	3.4799957E-001	-2.7035205E+002
3	0	1.227867978941358E+003	3.4815985E-001	-2.7037677E+002
3	0	1.228367978928727E+003	3.4816882E-001	-2.7038031E+002
3	0	1.228867978916096E+003	3.4809372E-001	-2.7036267E+002
3	0	1.229367978903465E+003	3.4798905E-001	-2.7036972E+002
3	0	1.229867978890834E+003	3.4785333E-001	-2.7036618E+002
3	0	1.230367978878203E+003	3.4761265E-001	-2.7038031E+002
3	0	1.230867978865572E+003	3.4734857E-001	-2.7037677E+002
3	0	1.231367978852941E+003	3.4734839E-001	-2.7035205E+002
3	0	1.231867978840310E+003	3.4737456E-001	-2.7036972E+002
3	0	1.232367978827679E+003	3.4727639E-001	-2.7038031E+002
3	0	1.232867978815048E+003	3.4710166E-001	-2.7038031E+002
3	0	1.233367978802416E+003	3.4692940E-001	-2.7037326E+002
3	0	1.233867978789785E+003	3.4667936E-001	-2.7035913E+002
3	0	1.234367978777154E+003	3.4635448E-001	-2.7040860E+002
3	0	1.234867978764523E+003	3.4604874E-001	-2.7039801E+002
3	0	1.235367978751892E+003	3.4601286E-001	-2.7039801E+002
3	0	1.235867978739261E+003	3.4599900E-001	-2.7035913E+002
3	0	1.236367978726630E+003	3.4587279E-001	-2.7038742E+002
3	0	1.236867978713999E+003	3.4567997E-001	-2.7037677E+002
3	0	1.237367978701368E+003	3.4549338E-001	-2.7039093E+002
3	0	1.237867978688737E+003	3.4525579E-001	-2.7038385E+002
3	0	1.238367978676106E+003	3.4492040E-001	-2.7036267E+002
3	0	1.238867978663475E+003	3.4456030E-001	-2.7037326E+002
3	0	1.239367978650844E+003	3.4449071E-001	-2.7038742E+002
3	0	1.239867978638213E+003	3.4445354E-001	-2.7037326E+002
3	0	1.240367978625582E+003	3.4429708E-001	-2.7038742E+002
3	0	1.240867978612951E+003	3.4407341E-001	-2.7037326E+002
3	0	1.241367978600319E+003	3.4380382E-001	-2.7036972E+002
3	0	1.241867978587688E+003	3.4355971E-001	-2.7036618E+002
3	0	1.242367978575057E+003	3.4328362E-001	-2.7037677E+002
3	0	1.242867978562426E+003	3.4308901E-001	-2.7036972E+002
3	0	1.243367978549795E+003	3.4319681E-001	-2.7039801E+002
3	0	1.243867978537164E+003	3.4335214E-001	-2.7036267E+002
3	0	1.244367978524533E+003	3.4347391E-001	-2.7038742E+002
3	0	1.244867978511902E+003	3.4360027E-001	-2.7037677E+002
3	0	1.245367978499271E+003	3.4374684E-001	-2.7039447E+002
3	0	1.245867978486640E+003	3.4383649E-001	-2.7037677E+002
3	0	1.246367978474009E+003	3.4381416E-001	-2.7037326E+002
3	0	1.246867978461378E+003	3.4380978E-001	-2.7037677E+002
3	0	1.247367978448747E+003	3.4397608E-001	-2.7038031E+002
3	0	1.247867978436116E+003	3.4408668E-001	-2.7039093E+002
3	0	1.248367978423485E+003	3.4406880E-001	-2.7038031E+002
3	0	1.248867978410854E+003	3.4399506E-001	-2.7036972E+002
3	0	1.249367978398222E+003	3.4388915E-001	-2.7038031E+002
3	0	1.249867978385591E+003	3.4373003E-001	-2.7038385E+002
3	0	1.250367978372960E+003	3.4345379E-001	-2.7039447E+002
3	0	1.250867978360329E+003	3.4319207E-001	-2.7040506E+002
3	0	1.251367978347698E+003	3.4316957E-001	-2.7037326E+002
3	0	1.251867978335067E+003	3.4312469E-001	-2.7038385E+002
3	0	1.252367978322436E+003	3.4299433E-001	-2.7036618E+002
3	0	1.252867978309805E+003	3.4279600E-001	-2.7040155E+002
3	0	1.253367978297174E+003	3.4261289E-001	-2.7038385E+002
3	0	1.253867978284543E+003	3.4237084E-001	-2.7039093E+002
3	0	1.254367978271912E+003	3.4202844E-001	-2.7037326E+002
3	0	1.254867978259281E+003	3.4170115E-001	-2.7037677E+002
3	0	1.255367978246650E+003	3.4162438E-001	-2.7040155E+002
3	0	1.255867978234019E+003	3.4155780E-001	-2.7036618E+002
3	0	1.256367978221388E+003	3.4139770E-001	-2.7038742E+002
3	0	1.256867978208757E+003	3.4119329E-001	-2.7036267E+002
3	0	1.257367978196125E+003	3.4099698E-001	-2.7040155E+002
3	0	1.257867978183494E+003	3.4071395E-001	-2.7038742E+002
3	0	1.258367978170863E+003	3.4034407E-001	-2.7038385E+002
3	0	1.258867978158232E+003	3.4002575E-001	-2.7034497E+002
3	0	1.259367978145601E+003	3.3994213E-001	-2.7038385E+002
3	0	1.259867978132970E+003	3.3984920E-001	-2.7037677E+002
3	0	1.260367978120339E+003	3.3968031E-001	-2.7039093E+002
3	0	1.260867978107708E+003	3.3945394E-001	-2.7036972E+002
3	0	1.261367978095077E+003	3.3922514E-001	-2.7036972E+002
3	0	1.261867978082446E+003	3.3898580E-001	-2.7039093E+002
3	0	1.262367978069815E+003	3.3865502E-001	-2.7036267E+002
3	0	1.262867978057184E+003	3.3840626E-001	-2.7036972E+002
3	0	1.263367978044553E+003	3.3843839E-001	-2.7036267E+002
3	0	1.263867978031922E+003	3.3855206E-001	-2.7039447E+002
3	0	1.264367978019291E+003	3.3863941E-001	-2.7038031E+002
3	0	1.264867978006660E+003	3.3873838E-001	-2.7038742E+002
3	0	1.265367977994028E+003	3.3882898E-001	-2.7037677E+002
3	0	1.265867977981397E+003	3.3890033E-001	-2.7036618E+002
3	0	1.266367977968766E+003	3.3886603E-001	-2.7039093E+002
3	0	1.266867977956135E+003	3.3879331E-001	-2.7034851E+002
3	0	1.267367977943504E+003	3.3890703E-001	-2.7036972E+002
3	0	1.267867977930873E+003	3.3901319E-001	-2.7037677E+002
3	0	1.268367977918242E+003	3.3904347E-001	-2.7037677E+002
3	0	1.268867977905611E+003	3.3896840E-001	-2.7036267E+002
3	0	1.269367977892980E+003	3.3883053E-001	-2.7041568E+002
3	0	1.269867977880349E+003	3.3866122E-001	-2.7035205E+002
3	0	1.270367977867718E+003	3.3837533E-001	-2.7037677E+002
3	0	1.270867977855087E+003	3.3807179E-001	-2.7039447E+002
3	0	1.271367977842456E+003	3.3801749E-001	-2.7037326E+002
3	0	1.271867977829825E+003	3.3796620E-001	-2.7038742E+002
3	0	1.272367977817194E+003	3.3783048E-001	-2.7038385E+002
3	0	1.272867977804563E+003	3.3762586E-001	-2.7040155E+002
3	0	1.273367977791931E+003	3.3734566E-001	-2.7038385E+002
3	0	1.273867977779300E+003	3.3712605E-001	-2.7035559E+002
3	0	1.274367977766669E+003	3.3683151E-001	-2.7036618E+002
3	0	1.274867977754038E+003	3.3650890E-001	-2.7039093E+002
3	0	1.275367977741407E+003	3.3641735E-001	-2.7038742E+002
3	0	1.275867977728776E+003	3.3628041E-001	-2.7037326E+002
3	0	1.276367977716145E+003	3.3607674E-001	-2.7038031E+002
3	0	1.276867977703514E+003	3.3585978E-001	-2.7039447E+002
3	0	1.277367977690883E+003	3.3562657E-001	-2.7039447E+002
3	0	1.277867977678252E+003	3.3535734E-001	-2.7039093E+002
3	0	1.278367977665621E+003	3.3500877E-001	-2.7039093E+002
3	0	1.278867977652990E+003	3.3466217E-001	-2.7038385E+002
3	0	1.279367977640359E+003	3.3453974E-001	-2.7036267E+002
3	0	1.279867977627728E+003	3.3440942E-001	-2.7036972E+002
3	0	1.280367977615097E+003	3.3421135E-001	-2.7037677E+002
3	0	1.280867977602466E+003	3.3401668E-001	-2.7037677E+002
3	0	1.281367977589834E+003	3.3381346E-001	-2.7038031E+002
3	0	1.281867977577203E+003	3.3355057E-001	-2.7037677E+002
3	0	1.282367977564572E+003	3.3322865E-001	-2.7038742E+002
3	0	1.282867977551941E+003	3.3293751E-001	-2.7039093E+002
3	0	1.283367977539310E+003	3.3293045E-001	-2.7039447E+002
3	0	1.283867977526679E+003	3.3294579E-001	-2.7040506E+002
3	0	1.284367977514048E+003	3.3296788E-001	-2.7038385E+002
3	0	1.284867977501417E+003	3.3303824E-001	-2.7037677E+002
3	0	1.285367977488786E+003	3.3315480E-001	-2.7039093E+002
3	0	1.285867977476155E+003	3.3325943E-001	-2.7039447E+002
3	0	1.286367977463524E+003	3.3323503E-001	-2.7039093E+002
3	0	1.286867977450893E+003	3.3317706E-001	-2.7038385E+002
3	0	1.287367977438262E+003	3.3332694E-001	-2.7037677E+002
3	0	1.287867977425631E+003	3.3341220E-001	-2.7037326E+002
3	0	1.288367977413000E+003	3.3339882E-001	-2.7038031E+002
3	0	1.288867977400369E+003	3.3335203E-001	-2.7036267E+002
3	0	1.289367977387737E+003	3.3327010E-001	-2.7036618E+002
3	0	1.289867977375106E+003	3.3311200E-001	-2.7038742E+002
3	0	1.290367977362475E+003	3.3286443E-001	-2.7039093E+002
3	0	1.290867977349844E+003	3.3259374E-001	-2.7038742E+002
3	0	1.291367977337213E+003	3.3253172E-001	-2.7038385E+002
3	0	1.291867977324582E+003	3.3245164E-001	-2.7038385E+002
3	0	1.292367977311951E+003	3.3229396E-001	-2.7037326E+002
3	0	1.292867977299320E+003	3.3213666E-001	-2.7037326E+002
3	0	1.293367977286689E+003	3.3195135E-001	-2.7036618E+002
3	0	1.293867977274058E+003	3.3172083E-001	-2.7036267E+002
3	0	1.294367977261427E+003	3.3138105E-001	-2.7037677E+002
3	0	1.294867977248796E+003	3.3103108E-001	-2.7038385E+002
3	0	1.295367977236165E+003	3.3090484E-001	-2.7038742E+002
3	0	1.295867977223534E+003	3.3075809E-001	-2.7036972E+002
3	0	1.296367977210903E+003	3.3056468E-001	-2.7038385E+002
3	0	1.296867977198272E+003	3.3035806E-001	-2.7036972E+002
3	0	1.297367977185640E+003	3.3016354E-001	-2.7038742E+002
3	0	1.297867977173009E+003	3.2991928E-001	-2.7040506E+002
3	0	1.298367977160378E+003	3.2960990E-001	-2.7038031E+002
3	0	1.298867977147747E+003	3.2926017E-001	-2.7037326E+002
3	0	1.299367977135116E+003	3.2913476E-001	-2.7040155E+002
3	0	1.299867977122485E+003	3.2900062E-001	-2.7039801E+002
3	0	1.300367977109854E+003	3.2880944E-001	-2.7038742E+002
3	0	1.300867977097223E+003	3.2859600E-001	-2.7037677E+002
3	0	1.301367977084592E+003	3.2837442E-001	-2.7037677E+002
3	0	1.301867977071961E+003	3.2813418E-001	-2.7039801E+002
3	0	1.302367977059330E+003	3.2783091E-001	-2.7039801E+002
3	0	1.302867977046699E+003	3.2754207E-001	-2.7035913E+002
3	0	1.303367977034068E+003	3.2749748E-001	-2.7040860E+002
3	0	1.303867977021437E+003	3.2751134E-001	-2.7036618E+002
3	0	1.304367977008806E+003	3.2750803E-001	-2.7038742E+002
3	0	1.304867976996175E+003	3.2754996E-001	-2.7039801E+002
3	0	1.305367976983543E+003	3.2762489E-001	-2.7035913E+002
3	0	1.305867976970912E+003	3.2769418E-001	-2.7037677E+002
3	0	1.306367976958281E+003	3.2768586E-001	-2.7039093E+002
3	0	1.306867976945650E+003	3.2765177E-001	-2.7037677E+002
3	0	1.307367976933019E+003	3.2780248E-001	-2.7036972E+002
3	0	1.307867976920388E+003	3.2790610E-001	-2.7036618E+002
3	0	1.308367976907757E+003	3.2791206E-001	-2.7038385E+002
3	0	1.308867976895126E+003	3.2786369E-001	-2.7037326E+002
3	0	1.309367976882495E+003	3.2780623E-001	-2.7038385E+002
3	0	1.309867976869864E+003	3.2766613E-001	-2.7038385E+002
3	0	1.310367976857233E+003	3.2743567E-001	-2.7038385E+002
3	0	1.310867976844602E+003	3.2715744E-001	-2.7039801E+002
3	0	1.311367976831971E+003	3.2708260E-001	-2.7035913E+002
3	0	1.311867976819340E+003	3.2699606E-001	-2.7038031E+002
3	0	1.312367976806709E+003	3.2684210E-001	-2.7039447E+002
3	0	1.312867976794078E+003	3.2665482E-001	-2.7038742E+002
3	0	1.313367976781446E+003	3.2646003E-001	-2.7035559E+002
3	0	1.313867976768815E+003	3.2622051E-001	-2.7038031E+002
3	0	1.314367976756184E+003	3.2589334E-001	-2.7038385E+002
3	0	1.314867976743553E+003	3.2556283E-001	-2.7039093E+002
3	0	1.315367976730922E+003	3.2541937E-001	-2.7037677E+002
3	0	1.315867976718291E+003	3.2530022E-001	-2.7037326E+002
3	0	1.316367976705660E+003	3.2512334E-001	-2.7037326E+002
3	0	1.316867976693029E+003	3.2494363E-001	-2.7037677E+002
3	0	1.317367976680398E+003	3.2475248E-001	-2.7035913E+002
3	0	1.317867976667767E+003	3.2452229E-001	-2.7036972E+002
3	0	1.318367976655136E+003	3.2419646E-001	-2.7036267E+002
3	0	1.318867976642505E+003	3.2386300E-001	-2.7037677E+002
3	0	1.319367976629874E+003	3.2374537E-001	-2.7039093E+002
3	0	1.319867976617243E+003	3.2361931E-001	-2.7037326E+002
3	0	1.320367976604612E+003	3.2342586E-001	-2.7037677E+002
3	0	1.320867976591981E+003	3.2325181E-001	-2.7038385E+002
3	0	1.321367976579349E+003	3.2305035E-001	-2.7037677E+002
3	0	1.321867976566718E+003	3.2282853E-001	-2.7035205E+002
3	0	1.322367976554087E+003	3.2252550E-001	-2.7035559E+002
3	0	1.322867976541456E+003	3.2222155E-001	-2.7038031E+002
3	0	1.323367976528825E+003	3.2214758E-001	-2.7038031E+002
3	0	1.323867976516194E+003	3.2212445E-001	-2.7039447E+002
3	0	1.324367976503563E+003	3.2210168E-001	-2.7036972E+002
3	0	1.324867976490932E+003	3.2212222E-001	-2.7040155E+002
3	0	1.325367976478301E+003	3.2218638E-001	-2.7036972E+002
3	0	1.325867976465670E+003	3.2224819E-001	-2.7039093E+002
3	0	1.326367976453039E+003	3.2225606E-001	-2.7036618E+002
3	0	1.326867976440408E+003	3.2224017E-001	-2.7039093E+002
3	0	1.327367976427777E+003	3.2237297E-001	-2.7036618E+002
3	0	1.327867976415146E+003	3.2248804E-001	-2.7038742E+002
3	0	1.328367976402515E+003	3.2249525E-001	-2.7039093E+002
3	0	1.328867976389884E+003	3.2247362E-001	-2.7038031E+002
3	0	1.329367976377252E+003	3.2241848E-001	-2.7039801E+002
3	0	1.329867976364621E+003	3.2228228E-001	-2.7038742E+002
3	0	1.330367976351990E+003	3.2205194E-001	-2.7037326E+002
3	0	1.330867976339359E+003	3.2178530E-001	-2.7038742E+002
3	0	1.331367976326728E+003	3.2170394E-001	-2.7038385E+002
3	0	1.331867976314097E+003	3.2162067E-001	-2.7037677E+002
3	0	1.332367976301466E+003	3.2147312E-001	-2.7038742E+002
3	0	1.332867976288835E+003	3.2131642E-001	-2.7036267E+002
3	0	1.333367976276204E+003	3.2115009E-001	-2.7038742E+002
3	0	1.333867976263573E+003	3.2093942E-001	-2.7039093E+002
3	0	1.334367976250942E+003	3.2064268E-001	-2.7040155E+002
3	0	1.334867976238311E+003	3.2030046E-001	-2.7038385E+002
3	0	1.335367976225680E+003	3.2014215E-001	-2.7035205E+002
3	0	1.335867976213049E+003	3.2001284E-001	-2.7039801E+002
3	0	1.336367976200418E+003	3.1983098E-001	-2.7037326E+002
3	0	1.336867976187787E+003	3.1962672E-001	-2.7037326E+002
3	0	1.337367976175155E+003	3.1942394E-001	-2.7035913E+002
3	0	1.337867976162524E+003	3.1919393E-001	-2.7036618E+002
3	0	1.338367976149893E+003	3.1888434E-001	-2.7039093E+002
3	0	1.338867976137262E+003	3.1855401E-001	-2.7038031E+002
3	0	1.339367976124631E+003	3.1840071E-001	-2.7036618E+002
3	0	1.339867976112000E+003	3.1827730E-001	-2.7037326E+002
3	0	1.340367976099369E+003	3.1808910E-001	-2.7035205E+002
3	0	1.340867976086738E+003	3.1789964E-001	-2.7039093E+002
3	0	1.341367976074107E+003	3.1769523E-001	-2.7039447E+002
3	0	1.341867976061476E+003	3.1746870E-001	-2.7038031E+002
3	0	1.342367976048845E+003	3.1717533E-001	-2.7037677E+002
3	0	1.342867976036214E+003	3.1686556E-001	-2.7039447E+002
3	0	1.343367976023583E+003	3.1675875E-001	-2.7039801E+002
3	0	1.343867976010952E+003	3.1672794E-001	-2.7037326E+002
3	0	1.344367975998321E+003	3.1669110E-001	-2.7039093E+002
3	0	1.344867975985690E+003	3.1670782E-001	-2.7037677E+002
3	0	1.345367975973058E+003	3.1676161E-001	-2.7038031E+002
3	0	1.345867975960427E+003	3.1682903E-001	-2.7039093E+002
3	0	1.346367975947796E+003	3.1682003E-001	-2.7036972E+002
3	0	1.346867975935165E+003	3.1677112E-001	-2.7037677E+002
3	0	1.347367975922534E+003	3.1688979E-001	-2.7037677E+002
3	0	1.347867975909903E+003	3.1699488E-001	-2.7040860E+002
3	0	1.348367975897272E+003	3.1704584E-001	-2.7038385E+002
3	0	1.348867975884641E+003	3.1705028E-001	-2.7034143E+002
3	0	1.349367975872010E+003	3.1700325E-001	-2.7036618E+002
3	0	1.349867975859379E+003	3.1689650E-001	-2.7038031E+002
3	0	1.350367975846748E+003	3.1667840E-001	-2.7038385E+002
3	0	1.350867975834117E+003	3.1641969E-001	-2.7035559E+002
3	0	1.351367975821486E+003	3.1632155E-001	-2.7037677E+002
3	0	1.351867975808855E+003	3.1623781E-001	-2.7039801E+002
3	0	1.351892575808233E+003	3.1615692E-001	-2.7038031E+002