EC-Lab ASCII FILE
Nb header lines : 55                          

Open Circuit Voltage

Run on channel : 1 (SN 81504)
User : 
CE vs. WE compliance from -10 V to 10 V
Electrode connection : standard
Potential control : Ewe
Ewe ctrl range : min = -2.50 V, max = 2.50 V
Safety Limits :
	Do not start on E overload
Acquisition started on : 05/10/2026 10:21:59.442
Loaded Setting File :  C:\PEM-WE_measurements\2026\372_IV_IV IrOx, 5 min Pt, 30 min C, etched cathode\new station\Loopeis new\1,46 V different time gaps closed cell\Loopeis 1,46V_180s_5_PEIS from 65Hz to 10Hz.mps
Saved on :
	File : L_30_Loopeis 1,46V_180s_5_PEIS from 65Hz to 10Hz_10_OCV_C01.mpr
	Directory : C:\PEM-WE_measurements\2026\372_IV_IV IrOx, 5 min Pt, 30 min C, etched cathode\new station\Loopeis new\1,46 V different time gaps closed cell\
	Host : 192.168.0.2
Device : SP-150e (SN .005491)
Address : 192.168.0.91
EC-LAB for windows v11.71 (software)
Internet server v28.00 (firmware)
Command interpretor v14.01 (firmware)
Electrode material : 
Initial state : 
Electrolyte : 
Comments : 
Current amplifier : SP-150eB-20A
Electrode surface area : 0.001 cm²
Characteristic mass : 0.001 g
Equivalent Weight : 0.000 g/eq.
Density : 0.000 g/cm3
Volume (V) : 0.001 cm³
Record Analogic IN 1
Text export
   Mode : Standard
   Time format : Elapsed
Cycle Definition : Charge/Discharge alternance
External device configuration :
   device type : Temperature Probe
   device name : Other
   Analog IN 1 : 
      unit : T/Â°C
      max : 100.000 at 2.000 V
      min : 0.000 at 1.460 V
tR (h:m:s)          0:03:0.0000         
dER/dt (mV/h)       1.0                 
record              <Ewe>               
dER (mV)            10.00               
dtR (s)             0.5000              
E range min (V)     -2.500              
E range max (V)     2.500               

mode	error	time/s	<Ewe/V>	Analog IN 1/V	
3	0	1.168084393234967E+003	1.2922333E+000	-2.7038031E+002
3	0	1.168584393222336E+003	1.2989416E+000	-2.7040860E+002
3	0	1.169084393209705E+003	1.2948742E+000	-2.7038031E+002
3	0	1.169584393197074E+003	1.2849010E+000	-2.7036618E+002
3	0	1.170084393184443E+003	1.2667898E+000	-2.7034851E+002
3	0	1.170584393171812E+003	1.2364051E+000	-2.7037677E+002
3	0	1.171084393159181E+003	1.1843191E+000	-2.7038742E+002
3	0	1.171584393146550E+003	1.0675889E+000	-2.7036618E+002
3	0	1.172084393133919E+003	6.9037294E-001	-2.7036972E+002
3	0	1.172584393121288E+003	4.6816242E-001	-2.7039447E+002
3	0	1.173084393108657E+003	4.0745425E-001	-2.7035559E+002
3	0	1.173584393096025E+003	3.9223373E-001	-2.7038385E+002
3	0	1.174084393083394E+003	3.8850775E-001	-2.7038031E+002
3	0	1.174584393070763E+003	3.8747844E-001	-2.7039093E+002
3	0	1.175084393058132E+003	3.8696608E-001	-2.7036972E+002
3	0	1.175584393045501E+003	3.8649708E-001	-2.7038385E+002
3	0	1.176084393032870E+003	3.8608155E-001	-2.7037677E+002
3	0	1.176584393020239E+003	3.8619110E-001	-2.7039093E+002
3	0	1.177084393007608E+003	3.8662612E-001	-2.7038385E+002
3	0	1.177584392994977E+003	3.8682738E-001	-2.7037326E+002
3	0	1.178084392982346E+003	3.8706559E-001	-2.7039447E+002
3	0	1.178584392969715E+003	3.8722390E-001	-2.7036618E+002
3	0	1.179084392957084E+003	3.8746464E-001	-2.7037677E+002
3	0	1.179584392944453E+003	3.8753456E-001	-2.7039447E+002
3	0	1.180084392931822E+003	3.8753670E-001	-2.7037677E+002
3	0	1.180584392919191E+003	3.8787624E-001	-2.7035559E+002
3	0	1.181084392906560E+003	3.8837355E-001	-2.7038742E+002
3	0	1.181584392893928E+003	3.8863483E-001	-2.7037326E+002
3	0	1.182084392881297E+003	3.8889906E-001	-2.7037326E+002
3	0	1.182584392868666E+003	3.8915104E-001	-2.7035559E+002
3	0	1.183084392856035E+003	3.8938451E-001	-2.7036618E+002
3	0	1.183584392843404E+003	3.8940018E-001	-2.7036267E+002
3	0	1.184084392830773E+003	3.8934427E-001	-2.7040155E+002
3	0	1.184584392818142E+003	3.8960838E-001	-2.7037326E+002
3	0	1.185084392805511E+003	3.9003071E-001	-2.7036618E+002
3	0	1.185584392792880E+003	3.9019802E-001	-2.7038385E+002
3	0	1.186084392780249E+003	3.9038375E-001	-2.7038385E+002
3	0	1.186584392767618E+003	3.9050663E-001	-2.7035913E+002
3	0	1.187084392754987E+003	3.9063114E-001	-2.7037677E+002
3	0	1.187584392742356E+003	3.9058957E-001	-2.7038385E+002
3	0	1.188084392729725E+003	3.9043999E-001	-2.7036972E+002
3	0	1.188584392717094E+003	3.9062482E-001	-2.7038031E+002
3	0	1.189084392704463E+003	3.9098874E-001	-2.7037677E+002
3	0	1.189584392691831E+003	3.9112681E-001	-2.7036267E+002
3	0	1.190084392679200E+003	3.9122003E-001	-2.7037677E+002
3	0	1.190584392666569E+003	3.9131439E-001	-2.7038031E+002
3	0	1.191084392653938E+003	3.9138246E-001	-2.7037326E+002
3	0	1.191584392641307E+003	3.9130935E-001	-2.7037326E+002
3	0	1.192084392628676E+003	3.9112937E-001	-2.7038031E+002
3	0	1.192584392616045E+003	3.9124936E-001	-2.7038742E+002
3	0	1.193084392603414E+003	3.9154163E-001	-2.7037677E+002
3	0	1.193584392590783E+003	3.9163655E-001	-2.7038385E+002
3	0	1.194084392578152E+003	3.9175853E-001	-2.7039093E+002
3	0	1.194584392565521E+003	3.9193052E-001	-2.7037677E+002
3	0	1.195084392552890E+003	3.9215440E-001	-2.7038031E+002
3	0	1.195584392540259E+003	3.9236373E-001	-2.7036618E+002
3	0	1.196084392527628E+003	3.9254627E-001	-2.7035913E+002
3	0	1.196584392514997E+003	3.9306888E-001	-2.7037677E+002
3	0	1.197084392502366E+003	3.9383143E-001	-2.7037677E+002
3	0	1.197584392489734E+003	3.9439863E-001	-2.7037326E+002
3	0	1.198084392477103E+003	3.9490524E-001	-2.7035205E+002
3	0	1.198584392464472E+003	3.9535710E-001	-2.7037677E+002
3	0	1.199084392451841E+003	3.9569736E-001	-2.7038742E+002
3	0	1.199584392439210E+003	3.9587399E-001	-2.7036972E+002
3	0	1.200084392426579E+003	3.9591280E-001	-2.7036267E+002
3	0	1.200584392413948E+003	3.9615315E-001	-2.7037677E+002
3	0	1.201084392401317E+003	3.9657965E-001	-2.7038385E+002
3	0	1.201584392388686E+003	3.9675394E-001	-2.7037677E+002
3	0	1.202084392376055E+003	3.9689839E-001	-2.7037326E+002
3	0	1.202584392363424E+003	3.9699340E-001	-2.7038031E+002
3	0	1.203084392350793E+003	3.9704141E-001	-2.7036972E+002
3	0	1.203584392338162E+003	3.9690793E-001	-2.7039093E+002
3	0	1.204084392325531E+003	3.9663798E-001	-2.7037677E+002
3	0	1.204584392312900E+003	3.9664918E-001	-2.7035913E+002
3	0	1.205084392300269E+003	3.9684013E-001	-2.7039093E+002
3	0	1.205584392287637E+003	3.9680466E-001	-2.7039447E+002
3	0	1.206084392275006E+003	3.9673746E-001	-2.7038742E+002
3	0	1.206584392262375E+003	3.9663821E-001	-2.7037326E+002
3	0	1.207084392249744E+003	3.9650446E-001	-2.7036972E+002
3	0	1.207584392237113E+003	3.9623752E-001	-2.7038031E+002
3	0	1.208084392224482E+003	3.9585114E-001	-2.7038031E+002
3	0	1.208584392211851E+003	3.9572185E-001	-2.7036618E+002
3	0	1.209084392199220E+003	3.9580408E-001	-2.7036972E+002
3	0	1.209584392186589E+003	3.9566815E-001	-2.7035913E+002
3	0	1.210084392173958E+003	3.9551315E-001	-2.7036618E+002
3	0	1.210584392161327E+003	3.9533827E-001	-2.7037326E+002
3	0	1.211084392148696E+003	3.9512137E-001	-2.7038031E+002
3	0	1.211584392136065E+003	3.9478663E-001	-2.7038742E+002
3	0	1.212084392123434E+003	3.9434439E-001	-2.7038031E+002
3	0	1.212584392110803E+003	3.9414161E-001	-2.7036972E+002
3	0	1.213084392098172E+003	3.9416522E-001	-2.7038385E+002
3	0	1.213584392085540E+003	3.9398992E-001	-2.7040860E+002
3	0	1.214084392072909E+003	3.9382604E-001	-2.7038031E+002
3	0	1.214584392060278E+003	3.9368412E-001	-2.7037677E+002
3	0	1.215084392047647E+003	3.9361039E-001	-2.7039801E+002
3	0	1.215584392035016E+003	3.9347884E-001	-2.7035913E+002
3	0	1.216084392022385E+003	3.9336878E-001	-2.7037677E+002
3	0	1.216584392009754E+003	3.9362335E-001	-2.7038742E+002
3	0	1.217084391997123E+003	3.9414501E-001	-2.7038031E+002
3	0	1.217584391984492E+003	3.9448851E-001	-2.7037677E+002
3	0	1.218084391971861E+003	3.9478776E-001	-2.7039447E+002
3	0	1.218584391959230E+003	3.9502108E-001	-2.7037677E+002
3	0	1.219084391946599E+003	3.9519507E-001	-2.7037677E+002
3	0	1.219584391933968E+003	3.9518604E-001	-2.7035205E+002
3	0	1.220084391921337E+003	3.9498472E-001	-2.7038742E+002
3	0	1.220584391908706E+003	3.9500278E-001	-2.7038031E+002
3	0	1.221084391896075E+003	3.9520511E-001	-2.7038031E+002
3	0	1.221584391883443E+003	3.9519158E-001	-2.7036267E+002
3	0	1.222084391870812E+003	3.9515346E-001	-2.7036618E+002
3	0	1.222584391858181E+003	3.9504895E-001	-2.7037677E+002
3	0	1.223084391845550E+003	3.9490762E-001	-2.7036618E+002
3	0	1.223584391832919E+003	3.9464876E-001	-2.7038031E+002
3	0	1.224084391820288E+003	3.9425588E-001	-2.7037677E+002
3	0	1.224584391807657E+003	3.9406654E-001	-2.7039093E+002
3	0	1.225084391795026E+003	3.9409596E-001	-2.7037677E+002
3	0	1.225584391782395E+003	3.9390674E-001	-2.7037326E+002
3	0	1.226084391769764E+003	3.9369112E-001	-2.7035913E+002
3	0	1.226584391757133E+003	3.9344808E-001	-2.7036972E+002
3	0	1.227084391744502E+003	3.9316821E-001	-2.7038031E+002
3	0	1.227584391731871E+003	3.9276516E-001	-2.7038742E+002
3	0	1.228084391719240E+003	3.9226255E-001	-2.7038742E+002
3	0	1.228584391706609E+003	3.9197966E-001	-2.7038742E+002
3	0	1.229084391693978E+003	3.9189547E-001	-2.7038742E+002
3	0	1.229584391681346E+003	3.9163667E-001	-2.7036618E+002
3	0	1.230084391668715E+003	3.9138284E-001	-2.7038742E+002
3	0	1.230584391656084E+003	3.9111719E-001	-2.7037326E+002
3	0	1.231084391643453E+003	3.9081192E-001	-2.7037326E+002
3	0	1.231584391630822E+003	3.9037332E-001	-2.7038031E+002
3	0	1.232084391618191E+003	3.8981244E-001	-2.7037677E+002
3	0	1.232584391605560E+003	3.8952038E-001	-2.7036972E+002
3	0	1.233084391592929E+003	3.8944951E-001	-2.7037326E+002
3	0	1.233584391580298E+003	3.8921145E-001	-2.7038385E+002
3	0	1.234084391567667E+003	3.8900807E-001	-2.7038031E+002
3	0	1.234584391555036E+003	3.8880113E-001	-2.7037677E+002
3	0	1.235084391542405E+003	3.8867268E-001	-2.7036267E+002
3	0	1.235584391529774E+003	3.8850614E-001	-2.7036972E+002
3	0	1.236084391517143E+003	3.8835636E-001	-2.7037677E+002
3	0	1.236584391504512E+003	3.8847899E-001	-2.7036972E+002
3	0	1.237084391491881E+003	3.8888007E-001	-2.7036972E+002
3	0	1.237584391479249E+003	3.8914102E-001	-2.7038385E+002
3	0	1.238084391466618E+003	3.8938844E-001	-2.7037677E+002
3	0	1.238584391453987E+003	3.8955343E-001	-2.7039093E+002
3	0	1.239084391441356E+003	3.8961828E-001	-2.7036267E+002
3	0	1.239584391428725E+003	3.8950863E-001	-2.7038031E+002
3	0	1.240084391416094E+003	3.8930297E-001	-2.7036618E+002
3	0	1.240584391403463E+003	3.8928387E-001	-2.7037677E+002
3	0	1.241084391390832E+003	3.8943189E-001	-2.7036618E+002
3	0	1.241584391378201E+003	3.8937870E-001	-2.7038385E+002
3	0	1.242084391365570E+003	3.8928106E-001	-2.7038742E+002
3	0	1.242584391352939E+003	3.8913795E-001	-2.7038385E+002
3	0	1.243084391340308E+003	3.8897517E-001	-2.7037326E+002
3	0	1.243584391327677E+003	3.8865581E-001	-2.7037326E+002
3	0	1.244084391315046E+003	3.8822791E-001	-2.7036267E+002
3	0	1.244584391302415E+003	3.8801676E-001	-2.7038031E+002
3	0	1.245084391289784E+003	3.8800016E-001	-2.7037677E+002
3	0	1.245584391277152E+003	3.8780966E-001	-2.7038031E+002
3	0	1.246084391264521E+003	3.8761431E-001	-2.7039447E+002
3	0	1.246584391251890E+003	3.8735580E-001	-2.7036972E+002
3	0	1.247084391239259E+003	3.8708547E-001	-2.7039801E+002
3	0	1.247584391226628E+003	3.8668367E-001	-2.7040155E+002
3	0	1.248084391213997E+003	3.8620156E-001	-2.7038742E+002
3	0	1.248584391201366E+003	3.8589194E-001	-2.7039801E+002
3	0	1.249084391188735E+003	3.8579503E-001	-2.7038742E+002
3	0	1.249584391176104E+003	3.8551375E-001	-2.7038385E+002
3	0	1.250084391163473E+003	3.8523766E-001	-2.7040506E+002
3	0	1.250584391150842E+003	3.8493830E-001	-2.7039801E+002
3	0	1.251084391138211E+003	3.8461074E-001	-2.7036972E+002
3	0	1.251584391125580E+003	3.8416642E-001	-2.7037677E+002
3	0	1.252084391112949E+003	3.8362843E-001	-2.7037326E+002
3	0	1.252584391100318E+003	3.8331732E-001	-2.7036618E+002
3	0	1.253084391087687E+003	3.8320470E-001	-2.7039447E+002
3	0	1.253584391075055E+003	3.8294080E-001	-2.7036972E+002
3	0	1.254084391062424E+003	3.8270167E-001	-2.7037326E+002
3	0	1.254584391049793E+003	3.8247612E-001	-2.7037326E+002
3	0	1.255084391037162E+003	3.8233146E-001	-2.7038385E+002
3	0	1.255584391024531E+003	3.8215092E-001	-2.7042627E+002
3	0	1.256084391011900E+003	3.8194200E-001	-2.7035559E+002
3	0	1.256584390999269E+003	3.8201758E-001	-2.7041214E+002
3	0	1.257084390986638E+003	3.8233715E-001	-2.7036618E+002
3	0	1.257584390974007E+003	3.8255855E-001	-2.7037326E+002
3	0	1.258084390961376E+003	3.8276783E-001	-2.7038742E+002
3	0	1.258584390948745E+003	3.8293323E-001	-2.7038385E+002
3	0	1.259084390936114E+003	3.8300100E-001	-2.7040860E+002
3	0	1.259584390923483E+003	3.8290226E-001	-2.7037326E+002
3	0	1.260084390910852E+003	3.8266128E-001	-2.7037677E+002
3	0	1.260584390898221E+003	3.8259119E-001	-2.7035913E+002
3	0	1.261084390885590E+003	3.8271394E-001	-2.7036267E+002
3	0	1.261584390872958E+003	3.8267741E-001	-2.7039093E+002
3	0	1.262084390860327E+003	3.8261813E-001	-2.7037677E+002
3	0	1.262584390847696E+003	3.8245118E-001	-2.7036972E+002
3	0	1.263084390835065E+003	3.8224986E-001	-2.7038742E+002
3	0	1.263584390822434E+003	3.8191473E-001	-2.7036618E+002
3	0	1.264084390809803E+003	3.8147491E-001	-2.7039093E+002
3	0	1.264584390797172E+003	3.8124365E-001	-2.7035559E+002
3	0	1.265084390784541E+003	3.8118559E-001	-2.7039447E+002
3	0	1.265584390771910E+003	3.8097957E-001	-2.7037677E+002
3	0	1.266084390759279E+003	3.8077226E-001	-2.7038385E+002
3	0	1.266584390746648E+003	3.8051340E-001	-2.7036618E+002
3	0	1.267084390734017E+003	3.8023078E-001	-2.7036267E+002
3	0	1.267584390721386E+003	3.7984639E-001	-2.7036267E+002
3	0	1.268084390708755E+003	3.7935722E-001	-2.7035559E+002
3	0	1.268584390696124E+003	3.7905341E-001	-2.7038031E+002
3	0	1.269084390683493E+003	3.7894365E-001	-2.7038742E+002
3	0	1.269584390670861E+003	3.7869605E-001	-2.7036618E+002
3	0	1.270084390658230E+003	3.7845761E-001	-2.7035913E+002
3	0	1.270584390645599E+003	3.7816769E-001	-2.7037677E+002
3	0	1.271084390632968E+003	3.7785092E-001	-2.7036972E+002
3	0	1.271584390620337E+003	3.7743133E-001	-2.7037326E+002
3	0	1.272084390607706E+003	3.7692556E-001	-2.7038385E+002
3	0	1.272584390595075E+003	3.7659767E-001	-2.7038031E+002
3	0	1.273084390582444E+003	3.7648493E-001	-2.7037326E+002
3	0	1.273584390569813E+003	3.7626588E-001	-2.7036972E+002
3	0	1.274084390557182E+003	3.7603864E-001	-2.7036972E+002
3	0	1.274584390544551E+003	3.7583032E-001	-2.7036972E+002
3	0	1.275084390531920E+003	3.7560916E-001	-2.7039447E+002
3	0	1.275584390519289E+003	3.7538382E-001	-2.7038385E+002
3	0	1.276084390506658E+003	3.7513614E-001	-2.7036972E+002
3	0	1.276584390494027E+003	3.7515125E-001	-2.7036267E+002
3	0	1.277084390481396E+003	3.7540144E-001	-2.7036618E+002
3	0	1.277584390468764E+003	3.7559533E-001	-2.7041568E+002
3	0	1.278084390456133E+003	3.7581030E-001	-2.7035559E+002
3	0	1.278584390443502E+003	3.7600458E-001	-2.7036267E+002
3	0	1.279084390430871E+003	3.7615088E-001	-2.7036267E+002
3	0	1.279584390418240E+003	3.7615043E-001	-2.7036618E+002
3	0	1.280084390405609E+003	3.7600440E-001	-2.7036972E+002
3	0	1.280584390392978E+003	3.7598836E-001	-2.7037326E+002
3	0	1.281084390380347E+003	3.7612900E-001	-2.7034497E+002
3	0	1.281584390367716E+003	3.7612253E-001	-2.7035559E+002
3	0	1.282084390355085E+003	3.7609681E-001	-2.7039801E+002
3	0	1.282584390342454E+003	3.7598100E-001	-2.7038031E+002
3	0	1.283084390329823E+003	3.7581936E-001	-2.7038031E+002
3	0	1.283584390317192E+003	3.7551752E-001	-2.7039447E+002
3	0	1.284084390304561E+003	3.7513027E-001	-2.7040506E+002
3	0	1.284584390291930E+003	3.7487638E-001	-2.7039093E+002
3	0	1.285084390279299E+003	3.7480479E-001	-2.7039801E+002
3	0	1.285584390266667E+003	3.7461847E-001	-2.7038742E+002
3	0	1.286084390254036E+003	3.7442738E-001	-2.7038385E+002
3	0	1.286584390241405E+003	3.7418324E-001	-2.7037326E+002
3	0	1.287084390228774E+003	3.7389839E-001	-2.7038742E+002
3	0	1.287584390216143E+003	3.7351435E-001	-2.7037677E+002
3	0	1.288084390203512E+003	3.7304330E-001	-2.7035205E+002
3	0	1.288584390190881E+003	3.7274432E-001	-2.7040155E+002
3	0	1.289084390178250E+003	3.7261668E-001	-2.7035913E+002
3	0	1.289584390165619E+003	3.7239087E-001	-2.7037677E+002
3	0	1.290084390152988E+003	3.7215865E-001	-2.7038385E+002
3	0	1.290584390140357E+003	3.7189010E-001	-2.7036618E+002
3	0	1.291084390127726E+003	3.7158668E-001	-2.7039801E+002
3	0	1.291584390115095E+003	3.7115094E-001	-2.7040155E+002
3	0	1.292084390102464E+003	3.7064371E-001	-2.7035205E+002
3	0	1.292584390089833E+003	3.7031063E-001	-2.7037677E+002
3	0	1.293084390077202E+003	3.7017003E-001	-2.7037326E+002
3	0	1.293584390064570E+003	3.6994594E-001	-2.7037677E+002
3	0	1.294084390051939E+003	3.6971432E-001	-2.7037326E+002
3	0	1.294584390039308E+003	3.6948505E-001	-2.7037326E+002
3	0	1.295084390026677E+003	3.6925814E-001	-2.7038742E+002
3	0	1.295584390014046E+003	3.6900041E-001	-2.7039093E+002
3	0	1.296084390001415E+003	3.6868921E-001	-2.7036972E+002
3	0	1.296584389988784E+003	3.6857247E-001	-2.7037326E+002
3	0	1.297084389976153E+003	3.6864927E-001	-2.7038031E+002
3	0	1.297584389963522E+003	3.6861998E-001	-2.7038031E+002
3	0	1.298084389950891E+003	3.6856627E-001	-2.7039093E+002
3	0	1.298584389938260E+003	3.6845416E-001	-2.7039447E+002
3	0	1.299084389925629E+003	3.6827669E-001	-2.7039801E+002
3	0	1.299584389912998E+003	3.6798453E-001	-2.7039447E+002
3	0	1.300084389900367E+003	3.6761257E-001	-2.7037677E+002
3	0	1.300584389887736E+003	3.6738187E-001	-2.7035559E+002
3	0	1.301084389875105E+003	3.6731234E-001	-2.7037326E+002
3	0	1.301584389862473E+003	3.6714590E-001	-2.7036972E+002
3	0	1.302084389849842E+003	3.6698347E-001	-2.7039093E+002
3	0	1.302584389837211E+003	3.6677572E-001	-2.7036267E+002
3	0	1.303084389824580E+003	3.6655545E-001	-2.7040155E+002
3	0	1.303584389811949E+003	3.6620262E-001	-2.7037326E+002
3	0	1.304084389799318E+003	3.6576498E-001	-2.7038385E+002
3	0	1.304584389786687E+003	3.6549303E-001	-2.7039093E+002
3	0	1.305084389774056E+003	3.6539313E-001	-2.7034851E+002
3	0	1.305584389761425E+003	3.6521870E-001	-2.7037326E+002
3	0	1.306084389748794E+003	3.6504987E-001	-2.7039093E+002
3	0	1.306584389736163E+003	3.6483827E-001	-2.7038385E+002
3	0	1.307084389723532E+003	3.6458838E-001	-2.7038385E+002
3	0	1.307584389710901E+003	3.6426413E-001	-2.7036972E+002
3	0	1.308084389698270E+003	3.6384907E-001	-2.7038031E+002
3	0	1.308584389685639E+003	3.6359268E-001	-2.7036618E+002
3	0	1.309084389673008E+003	3.6350283E-001	-2.7035559E+002
3	0	1.309584389660376E+003	3.6331892E-001	-2.7038031E+002
3	0	1.310084389647745E+003	3.6314958E-001	-2.7038031E+002
3	0	1.310584389635114E+003	3.6293441E-001	-2.7035205E+002
3	0	1.311084389622483E+003	3.6268276E-001	-2.7039447E+002
3	0	1.311584389609852E+003	3.6231622E-001	-2.7036267E+002
3	0	1.312084389597221E+003	3.6188021E-001	-2.7036618E+002
3	0	1.312584389584590E+003	3.6160663E-001	-2.7038385E+002
3	0	1.313084389571959E+003	3.6149222E-001	-2.7039093E+002
3	0	1.313584389559328E+003	3.6132380E-001	-2.7037326E+002
3	0	1.314084389546697E+003	3.6115956E-001	-2.7038385E+002
3	0	1.314584389534066E+003	3.6096007E-001	-2.7038385E+002
3	0	1.315084389521435E+003	3.6079049E-001	-2.7036267E+002
3	0	1.315584389508804E+003	3.6058471E-001	-2.7036618E+002
3	0	1.316084389496173E+003	3.6039767E-001	-2.7037677E+002
3	0	1.316584389483542E+003	3.6041832E-001	-2.7038031E+002
3	0	1.317084389470911E+003	3.6064669E-001	-2.7038385E+002
3	0	1.317584389458279E+003	3.6084938E-001	-2.7035913E+002
3	0	1.318084389445648E+003	3.6109933E-001	-2.7040506E+002
3	0	1.318584389433017E+003	3.6132076E-001	-2.7036618E+002
3	0	1.319084389420386E+003	3.6151925E-001	-2.7036267E+002
3	0	1.319584389407755E+003	3.6160585E-001	-2.7033789E+002
3	0	1.320084389395124E+003	3.6159340E-001	-2.7039447E+002
3	0	1.320584389382493E+003	3.6165485E-001	-2.7037677E+002
3	0	1.321084389369862E+003	3.6183187E-001	-2.7037677E+002
3	0	1.321584389357231E+003	3.6189124E-001	-2.7038742E+002
3	0	1.322084389344600E+003	3.6192620E-001	-2.7037677E+002
3	0	1.322584389331969E+003	3.6189455E-001	-2.7038385E+002
3	0	1.323084389319338E+003	3.6180165E-001	-2.7039447E+002
3	0	1.323584389306707E+003	3.6158097E-001	-2.7038031E+002
3	0	1.324084389294076E+003	3.6125445E-001	-2.7038385E+002
3	0	1.324584389281445E+003	3.6105880E-001	-2.7036267E+002
3	0	1.325084389268814E+003	3.6101162E-001	-2.7040506E+002
3	0	1.325584389256182E+003	3.6088845E-001	-2.7036618E+002
3	0	1.326084389243551E+003	3.6075562E-001	-2.7038031E+002
3	0	1.326584389230920E+003	3.6057302E-001	-2.7039801E+002
3	0	1.327084389218289E+003	3.6036670E-001	-2.7037326E+002
3	0	1.327584389205658E+003	3.6008549E-001	-2.7038031E+002
3	0	1.328084389193027E+003	3.5966533E-001	-2.7036618E+002
3	0	1.328584389180396E+003	3.5938168E-001	-2.7040860E+002
3	0	1.329084389167765E+003	3.5926598E-001	-2.7039447E+002
3	0	1.329584389155134E+003	3.5908303E-001	-2.7040155E+002
3	0	1.330084389142503E+003	3.5890281E-001	-2.7036618E+002
3	0	1.330584389129872E+003	3.5867774E-001	-2.7036267E+002
3	0	1.331084389117241E+003	3.5841632E-001	-2.7038031E+002
3	0	1.331584389104610E+003	3.5808459E-001	-2.7038385E+002
3	0	1.332084389091979E+003	3.5768297E-001	-2.7039801E+002
3	0	1.332584389079348E+003	3.5738778E-001	-2.7038031E+002
3	0	1.333084389066717E+003	3.5727206E-001	-2.7036972E+002
3	0	1.333584389054085E+003	3.5710692E-001	-2.7038385E+002
3	0	1.334084389041454E+003	3.5694835E-001	-2.7036618E+002
3	0	1.334584389028823E+003	3.5673949E-001	-2.7037326E+002
3	0	1.335084389016192E+003	3.5651100E-001	-2.7037677E+002
3	0	1.335584389003561E+003	3.5626313E-001	-2.7036972E+002
3	0	1.336084388990930E+003	3.5600525E-001	-2.7035913E+002
3	0	1.336584388978299E+003	3.5591829E-001	-2.7039801E+002
3	0	1.337084388965668E+003	3.5604829E-001	-2.7037677E+002
3	0	1.337584388953037E+003	3.5618463E-001	-2.7036618E+002
3	0	1.338084388940406E+003	3.5637128E-001	-2.7038742E+002
3	0	1.338584388927775E+003	3.5654747E-001	-2.7036267E+002
3	0	1.339084388915144E+003	3.5667875E-001	-2.7037677E+002
3	0	1.339584388902513E+003	3.5670567E-001	-2.7040155E+002
3	0	1.340084388889882E+003	3.5659540E-001	-2.7038385E+002
3	0	1.340584388877251E+003	3.5655326E-001	-2.7036267E+002
3	0	1.341084388864620E+003	3.5663646E-001	-2.7038031E+002
3	0	1.341584388851988E+003	3.5662887E-001	-2.7037326E+002
3	0	1.342084388839357E+003	3.5659930E-001	-2.7035205E+002
3	0	1.342584388826726E+003	3.5651138E-001	-2.7036267E+002
3	0	1.343084388814095E+003	3.5637641E-001	-2.7037326E+002
3	0	1.343584388801464E+003	3.5611600E-001	-2.7039447E+002
3	0	1.344084388788833E+003	3.5575742E-001	-2.7037326E+002
3	0	1.344584388776202E+003	3.5550728E-001	-2.7033084E+002
3	0	1.345084388763571E+003	3.5541955E-001	-2.7036972E+002
3	0	1.345584388750940E+003	3.5527518E-001	-2.7039093E+002
3	0	1.346084388738309E+003	3.5509732E-001	-2.7036267E+002
3	0	1.346584388725678E+003	3.5488862E-001	-2.7038385E+002
3	0	1.347084388713047E+003	3.5460261E-001	-2.7036618E+002
3	0	1.347584388700416E+003	3.5415563E-001	-2.7036972E+002
3	0	1.347584788700406E+003	3.5401955E-001	-2.7039447E+002