EC-Lab ASCII FILE
Nb header lines : 55                          

Open Circuit Voltage

Run on channel : 1 (SN 81504)
User : 
CE vs. WE compliance from -10 V to 10 V
Electrode connection : standard
Potential control : Ewe
Ewe ctrl range : min = -2.50 V, max = 2.50 V
Safety Limits :
	Do not start on E overload
Acquisition started on : 05/10/2026 10:21:59.442
Loaded Setting File :  C:\PEM-WE_measurements\2026\372_IV_IV IrOx, 5 min Pt, 30 min C, etched cathode\new station\Loopeis new\1,46 V different time gaps closed cell\Loopeis 1,46V_180s_5_PEIS from 65Hz to 10Hz.mps
Saved on :
	File : L_30_Loopeis 1,46V_180s_5_PEIS from 65Hz to 10Hz_02_OCV_C01.mpr
	Directory : C:\PEM-WE_measurements\2026\372_IV_IV IrOx, 5 min Pt, 30 min C, etched cathode\new station\Loopeis new\1,46 V different time gaps closed cell\
	Host : 192.168.0.2
Device : SP-150e (SN .005491)
Address : 192.168.0.91
EC-LAB for windows v11.71 (software)
Internet server v28.00 (firmware)
Command interpretor v14.01 (firmware)
Electrode material : 
Initial state : 
Electrolyte : 
Comments : 
Current amplifier : SP-150eB-20A
Electrode surface area : 0.001 cm²
Characteristic mass : 0.001 g
Equivalent Weight : 0.000 g/eq.
Density : 0.000 g/cm3
Volume (V) : 0.001 cm³
Record Analogic IN 1
Text export
   Mode : Standard
   Time format : Elapsed
Cycle Definition : Charge/Discharge alternance
External device configuration :
   device type : Temperature Probe
   device name : Other
   Analog IN 1 : 
      unit : T/Â°C
      max : 100.000 at 2.000 V
      min : 0.000 at 1.460 V
tR (h:m:s)          0:03:0.0000         
dER/dt (mV/h)       1.0                 
record              <Ewe>               
dER (mV)            10.00               
dtR (s)             0.5000              
E range min (V)     -2.500              
E range max (V)     2.500               

mode	error	time/s	<Ewe/V>	Analog IN 1/V	
3	0	4.549979885057837E+001	1.2904851E+000	-2.7038031E+002
3	0	4.599979883794731E+001	1.2957828E+000	-2.7038031E+002
3	0	4.649979882531625E+001	1.2820848E+000	-2.7037326E+002
3	0	4.699979881268519E+001	1.2559452E+000	-2.7036972E+002
3	0	4.749979880005412E+001	1.2111824E+000	-2.7037326E+002
3	0	4.799979878742306E+001	1.1286054E+000	-2.7037677E+002
3	0	4.849979877479200E+001	8.4395015E-001	-2.7036267E+002
3	0	4.899979876216094E+001	4.7831070E-001	-2.7038385E+002
3	0	4.949979874952987E+001	3.7378508E-001	-2.7038031E+002
3	0	4.999979873689881E+001	3.5486126E-001	-2.7037677E+002
3	0	5.049979872426775E+001	3.5291189E-001	-2.7037326E+002
3	0	5.099979871163669E+001	3.5398796E-001	-2.7035559E+002
3	0	5.149979869900562E+001	3.5537419E-001	-2.7039093E+002
3	0	5.199979868637456E+001	3.5639307E-001	-2.7040506E+002
3	0	5.249979867374350E+001	3.5700995E-001	-2.7037326E+002
3	0	5.299979866111244E+001	3.5744959E-001	-2.7037677E+002
3	0	5.349979864848137E+001	3.5805956E-001	-2.7038385E+002
3	0	5.399979863585031E+001	3.5855889E-001	-2.7038031E+002
3	0	5.449979862321925E+001	3.5889623E-001	-2.7037677E+002
3	0	5.499979861058819E+001	3.5914770E-001	-2.7037677E+002
3	0	5.549979859795712E+001	3.5941905E-001	-2.7036972E+002
3	0	5.599979858532606E+001	3.5962799E-001	-2.7038742E+002
3	0	5.649979857269500E+001	3.5969150E-001	-2.7036972E+002
3	0	5.699979856006394E+001	3.5977563E-001	-2.7036267E+002
3	0	5.749979854743287E+001	3.6017838E-001	-2.7040155E+002
3	0	5.799979853480181E+001	3.6053380E-001	-2.7039447E+002
3	0	5.849979852217075E+001	3.6075833E-001	-2.7035559E+002
3	0	5.899979850953969E+001	3.6094409E-001	-2.7035913E+002
3	0	5.949979849690862E+001	3.6111507E-001	-2.7036267E+002
3	0	5.999979848427756E+001	3.6124122E-001	-2.7037677E+002
3	0	6.049979847164650E+001	3.6124778E-001	-2.7039801E+002
3	0	6.099979845901544E+001	3.6128926E-001	-2.7038385E+002
3	0	6.149979844638438E+001	3.6162916E-001	-2.7038031E+002
3	0	6.199979843375331E+001	3.6196434E-001	-2.7037677E+002
3	0	6.249979842112225E+001	3.6216938E-001	-2.7035913E+002
3	0	6.299979840849119E+001	3.6226815E-001	-2.7038742E+002
3	0	6.349979839586013E+001	3.6242262E-001	-2.7038031E+002
3	0	6.399979838322906E+001	3.6253071E-001	-2.7038031E+002
3	0	6.449979837059800E+001	3.6248705E-001	-2.7035913E+002
3	0	6.499979835796694E+001	3.6248678E-001	-2.7037677E+002
3	0	6.549979834533588E+001	3.6278656E-001	-2.7038385E+002
3	0	6.599979833270481E+001	3.6304191E-001	-2.7037677E+002
3	0	6.649979832007375E+001	3.6318323E-001	-2.7036618E+002
3	0	6.699979830744269E+001	3.6328754E-001	-2.7036972E+002
3	0	6.749979829481163E+001	3.6341333E-001	-2.7038742E+002
3	0	6.799979828218056E+001	3.6352479E-001	-2.7038742E+002
3	0	6.849979826954950E+001	3.6357805E-001	-2.7034851E+002
3	0	6.899979825691844E+001	3.6374098E-001	-2.7038031E+002
3	0	6.949979824428738E+001	3.6421525E-001	-2.7038031E+002
3	0	6.999979823165631E+001	3.6471158E-001	-2.7038385E+002
3	0	7.049979821902525E+001	3.6513844E-001	-2.7038742E+002
3	0	7.099979820639419E+001	3.6542875E-001	-2.7035559E+002
3	0	7.149979819376313E+001	3.6572474E-001	-2.7037326E+002
3	0	7.199979818113206E+001	3.6600861E-001	-2.7038031E+002
3	0	7.249979816850100E+001	3.6610422E-001	-2.7037677E+002
3	0	7.299979815586994E+001	3.6619386E-001	-2.7039801E+002
3	0	7.349979814323888E+001	3.6653551E-001	-2.7038385E+002
3	0	7.399979813060781E+001	3.6677438E-001	-2.7038742E+002
3	0	7.449979811797675E+001	3.6690685E-001	-2.7039447E+002
3	0	7.499979810534569E+001	3.6701226E-001	-2.7035913E+002
3	0	7.549979809271463E+001	3.6708212E-001	-2.7036972E+002
3	0	7.599979808008356E+001	3.6707106E-001	-2.7035913E+002
3	0	7.649979806745250E+001	3.6693412E-001	-2.7038385E+002
3	0	7.699979805482144E+001	3.6682037E-001	-2.7038031E+002
3	0	7.749979804219038E+001	3.6700696E-001	-2.7039801E+002
3	0	7.799979802955932E+001	3.6707863E-001	-2.7037326E+002
3	0	7.849979801692825E+001	3.6708063E-001	-2.7037326E+002
3	0	7.899979800429719E+001	3.6706901E-001	-2.7038742E+002
3	0	7.949979799166613E+001	3.6702356E-001	-2.7041214E+002
3	0	7.999979797903507E+001	3.6690232E-001	-2.7039093E+002
3	0	8.049979796640400E+001	3.6668807E-001	-2.7037326E+002
3	0	8.099979795377294E+001	3.6651590E-001	-2.7037326E+002
3	0	8.149979794114188E+001	3.6664248E-001	-2.7038031E+002
3	0	8.199979792851082E+001	3.6664808E-001	-2.7036618E+002
3	0	8.249979791587975E+001	3.6659020E-001	-2.7039093E+002
3	0	8.299979790324869E+001	3.6652124E-001	-2.7037677E+002
3	0	8.349979789061763E+001	3.6642948E-001	-2.7037326E+002
3	0	8.399979787798657E+001	3.6630329E-001	-2.7039447E+002
3	0	8.449979786535550E+001	3.6608449E-001	-2.7037677E+002
3	0	8.499979785272444E+001	3.6586556E-001	-2.7036618E+002
3	0	8.549979784009338E+001	3.6594146E-001	-2.7039093E+002
3	0	8.599979782746232E+001	3.6593875E-001	-2.7039447E+002
3	0	8.649979781483125E+001	3.6584625E-001	-2.7038385E+002
3	0	8.699979780220019E+001	3.6575171E-001	-2.7036618E+002
3	0	8.749979778956913E+001	3.6568323E-001	-2.7038385E+002
3	0	8.799979777693807E+001	3.6558029E-001	-2.7038031E+002
3	0	8.849979776430700E+001	3.6545700E-001	-2.7037677E+002
3	0	8.899979775167594E+001	3.6543143E-001	-2.7041214E+002
3	0	8.949979773904488E+001	3.6574754E-001	-2.7041214E+002
3	0	8.999979772641382E+001	3.6602494E-001	-2.7035559E+002
3	0	9.049979771378275E+001	3.6627781E-001	-2.7036618E+002
3	0	9.099979770115169E+001	3.6654410E-001	-2.7037677E+002
3	0	9.149979768852063E+001	3.6677828E-001	-2.7038031E+002
3	0	9.199979767588957E+001	3.6695072E-001	-2.7038742E+002
3	0	9.249979766325851E+001	3.6697564E-001	-2.7038742E+002
3	0	9.299979765062744E+001	3.6691868E-001	-2.7038742E+002
3	0	9.349979763799638E+001	3.6713362E-001	-2.7037326E+002
3	0	9.399979762536532E+001	3.6722353E-001	-2.7038742E+002
3	0	9.449979761273426E+001	3.6722639E-001	-2.7038385E+002
3	0	9.499979760010319E+001	3.6718857E-001	-2.7038385E+002
3	0	9.549979758747213E+001	3.6713329E-001	-2.7040506E+002
3	0	9.599979757484107E+001	3.6700019E-001	-2.7034851E+002
3	0	9.649979756221001E+001	3.6677015E-001	-2.7037677E+002
3	0	9.699979754957894E+001	3.6651248E-001	-2.7038031E+002
3	0	9.749979753694788E+001	3.6654004E-001	-2.7039447E+002
3	0	9.799979752431682E+001	3.6651808E-001	-2.7039093E+002
3	0	9.849979751168576E+001	3.6640427E-001	-2.7039447E+002
3	0	9.899979749905469E+001	3.6626869E-001	-2.7040860E+002
3	0	9.949979748642363E+001	3.6609495E-001	-2.7038742E+002
3	0	9.999979747379257E+001	3.6590075E-001	-2.7039447E+002
3	0	1.004997974611615E+002	3.6561090E-001	-2.7038385E+002
3	0	1.009997974485304E+002	3.6530000E-001	-2.7037326E+002
3	0	1.014997974358994E+002	3.6524478E-001	-2.7038031E+002
3	0	1.019997974232683E+002	3.6513394E-001	-2.7037326E+002
3	0	1.024997974106373E+002	3.6496559E-001	-2.7038385E+002
3	0	1.029997973980062E+002	3.6479250E-001	-2.7035559E+002
3	0	1.034997973853751E+002	3.6457652E-001	-2.7036618E+002
3	0	1.039997973727441E+002	3.6434174E-001	-2.7037326E+002
3	0	1.044997973601130E+002	3.6402166E-001	-2.7036618E+002
3	0	1.049997973474819E+002	3.6366588E-001	-2.7036267E+002
3	0	1.054997973348509E+002	3.6359811E-001	-2.7038385E+002
3	0	1.059997973222198E+002	3.6346683E-001	-2.7038385E+002
3	0	1.064997973095888E+002	3.6328140E-001	-2.7037677E+002
3	0	1.069997972969577E+002	3.6312270E-001	-2.7036972E+002
3	0	1.074997972843266E+002	3.6294338E-001	-2.7037677E+002
3	0	1.079997972716956E+002	3.6278778E-001	-2.7036972E+002
3	0	1.084997972590645E+002	3.6258984E-001	-2.7035205E+002
3	0	1.089997972464334E+002	3.6242202E-001	-2.7037677E+002
3	0	1.094997972338024E+002	3.6251852E-001	-2.7039447E+002
3	0	1.099997972211713E+002	3.6257902E-001	-2.7035205E+002
3	0	1.104997972085403E+002	3.6255470E-001	-2.7035913E+002
3	0	1.109997971959092E+002	3.6249760E-001	-2.7039801E+002
3	0	1.114997971832781E+002	3.6239874E-001	-2.7036267E+002
3	0	1.119997971706471E+002	3.6221999E-001	-2.7036618E+002
3	0	1.124997971580160E+002	3.6191821E-001	-2.7037326E+002
3	0	1.129997971453849E+002	3.6164215E-001	-2.7036618E+002
3	0	1.134997971327539E+002	3.6162618E-001	-2.7036267E+002
3	0	1.139997971201228E+002	3.6155814E-001	-2.7037326E+002
3	0	1.144997971074918E+002	3.6140910E-001	-2.7037677E+002
3	0	1.149997970948607E+002	3.6125550E-001	-2.7039093E+002
3	0	1.154997970822296E+002	3.6111188E-001	-2.7038031E+002
3	0	1.159997970695986E+002	3.6092803E-001	-2.7039447E+002
3	0	1.164997970569675E+002	3.6063144E-001	-2.7037326E+002
3	0	1.169997970443364E+002	3.6029670E-001	-2.7037677E+002
3	0	1.174997970317054E+002	3.6022228E-001	-2.7038385E+002
3	0	1.179997970190743E+002	3.6012515E-001	-2.7037677E+002
3	0	1.184997970064433E+002	3.5997042E-001	-2.7037677E+002
3	0	1.189997969938122E+002	3.5980260E-001	-2.7039447E+002
3	0	1.194997969811811E+002	3.5961303E-001	-2.7038742E+002
3	0	1.199997969685501E+002	3.5939175E-001	-2.7038742E+002
3	0	1.204997969559190E+002	3.5908160E-001	-2.7036972E+002
3	0	1.209997969432879E+002	3.5876158E-001	-2.7037326E+002
3	0	1.214997969306569E+002	3.5869208E-001	-2.7036618E+002
3	0	1.219997969180258E+002	3.5861993E-001	-2.7038385E+002
3	0	1.224997969053948E+002	3.5846519E-001	-2.7037677E+002
3	0	1.229997968927637E+002	3.5830045E-001	-2.7040506E+002
3	0	1.234997968801326E+002	3.5810429E-001	-2.7036618E+002
3	0	1.239997968675016E+002	3.5789856E-001	-2.7039093E+002
3	0	1.244997968548705E+002	3.5757518E-001	-2.7037326E+002
3	0	1.249997968422394E+002	3.5727009E-001	-2.7039093E+002
3	0	1.254997968296084E+002	3.5721615E-001	-2.7038385E+002
3	0	1.259997968169773E+002	3.5713717E-001	-2.7036618E+002
3	0	1.264997968043463E+002	3.5699922E-001	-2.7039801E+002
3	0	1.269997967917152E+002	3.5685292E-001	-2.7035913E+002
3	0	1.274997967790841E+002	3.5670096E-001	-2.7039093E+002
3	0	1.279997967664531E+002	3.5652635E-001	-2.7036618E+002
3	0	1.284997967538220E+002	3.5627875E-001	-2.7040506E+002
3	0	1.289997967411909E+002	3.5612306E-001	-2.7037677E+002
3	0	1.294997967285599E+002	3.5625747E-001	-2.7038031E+002
3	0	1.299997967159288E+002	3.5641819E-001	-2.7037677E+002
3	0	1.304997967032978E+002	3.5655904E-001	-2.7035913E+002
3	0	1.309997966906667E+002	3.5673311E-001	-2.7038742E+002
3	0	1.314997966780356E+002	3.5690376E-001	-2.7037677E+002
3	0	1.319997966654046E+002	3.5701090E-001	-2.7037326E+002
3	0	1.324997966527735E+002	3.5697433E-001	-2.7038031E+002
3	0	1.329997966401424E+002	3.5689265E-001	-2.7037326E+002
3	0	1.334997966275114E+002	3.5697740E-001	-2.7039447E+002
3	0	1.339997966148803E+002	3.5703552E-001	-2.7040155E+002
3	0	1.344997966022493E+002	3.5700953E-001	-2.7036267E+002
3	0	1.349997965896182E+002	3.5695726E-001	-2.7035559E+002
3	0	1.354997965769871E+002	3.5684559E-001	-2.7037677E+002
3	0	1.359997965643561E+002	3.5670128E-001	-2.7040155E+002
3	0	1.364997965517250E+002	3.5644022E-001	-2.7037677E+002
3	0	1.369997965390940E+002	3.5615855E-001	-2.7039801E+002
3	0	1.374997965264629E+002	3.5610300E-001	-2.7038742E+002
3	0	1.379997965138318E+002	3.5602540E-001	-2.7036618E+002
3	0	1.384997965012008E+002	3.5588798E-001	-2.7039801E+002
3	0	1.389997964885697E+002	3.5572401E-001	-2.7036618E+002
3	0	1.394997964759386E+002	3.5552770E-001	-2.7038385E+002
3	0	1.399997964633076E+002	3.5528511E-001	-2.7039447E+002
3	0	1.404997964506765E+002	3.5494635E-001	-2.7035913E+002
3	0	1.409997964380455E+002	3.5460719E-001	-2.7036972E+002
3	0	1.414997964254144E+002	3.5449859E-001	-2.7040155E+002
3	0	1.419997964127833E+002	3.5438246E-001	-2.7036972E+002
3	0	1.424997964001523E+002	3.5422254E-001	-2.7036972E+002
3	0	1.429997963875212E+002	3.5403246E-001	-2.7036618E+002
3	0	1.434997963748901E+002	3.5384098E-001	-2.7038742E+002
3	0	1.439997963622591E+002	3.5357744E-001	-2.7037326E+002
3	0	1.444997963496280E+002	3.5325098E-001	-2.7037326E+002
3	0	1.449997963369970E+002	3.5292152E-001	-2.7038031E+002
3	0	1.454997963243659E+002	3.5281357E-001	-2.7036972E+002
3	0	1.459997963117348E+002	3.5271272E-001	-2.7037326E+002
3	0	1.464997962991038E+002	3.5254374E-001	-2.7036618E+002
3	0	1.469997962864727E+002	3.5237154E-001	-2.7038385E+002
3	0	1.474997962738416E+002	3.5219058E-001	-2.7036618E+002
3	0	1.479997962612106E+002	3.5198927E-001	-2.7036972E+002
3	0	1.484997962485795E+002	3.5171470E-001	-2.7038385E+002
3	0	1.489997962359485E+002	3.5149959E-001	-2.7037677E+002
3	0	1.494997962233174E+002	3.5157877E-001	-2.7038385E+002
3	0	1.499997962106863E+002	3.5171300E-001	-2.7036618E+002
3	0	1.504997961980553E+002	3.5185274E-001	-2.7036972E+002
3	0	1.509997961854242E+002	3.5200068E-001	-2.7038742E+002
3	0	1.514997961727931E+002	3.5215423E-001	-2.7037677E+002
3	0	1.519997961601621E+002	3.5225874E-001	-2.7036267E+002
3	0	1.524997961475310E+002	3.5224184E-001	-2.7036267E+002
3	0	1.529997961349000E+002	3.5215712E-001	-2.7038031E+002
3	0	1.534997961222689E+002	3.5224572E-001	-2.7037326E+002
3	0	1.539997961096378E+002	3.5230339E-001	-2.7038742E+002
3	0	1.544997960970068E+002	3.5228562E-001	-2.7038385E+002
3	0	1.549997960843757E+002	3.5221788E-001	-2.7038031E+002
3	0	1.554997960717446E+002	3.5211891E-001	-2.7038031E+002
3	0	1.559997960591136E+002	3.5195571E-001	-2.7039093E+002
3	0	1.564997960464825E+002	3.5169506E-001	-2.7035205E+002
3	0	1.569997960338515E+002	3.5139549E-001	-2.7038031E+002
3	0	1.574997960212204E+002	3.5130388E-001	-2.7038031E+002
3	0	1.579997960085893E+002	3.5122031E-001	-2.7037677E+002
3	0	1.584997959959583E+002	3.5108355E-001	-2.7037326E+002
3	0	1.589997959833272E+002	3.5093465E-001	-2.7038031E+002
3	0	1.594997959706961E+002	3.5075036E-001	-2.7038031E+002
3	0	1.599997959580651E+002	3.5050809E-001	-2.7038742E+002
3	0	1.604997959454340E+002	3.5016769E-001	-2.7036618E+002
3	0	1.609997959328030E+002	3.4980118E-001	-2.7035913E+002
3	0	1.614997959201719E+002	3.4966266E-001	-2.7039447E+002
3	0	1.619997959075408E+002	3.4952384E-001	-2.7038031E+002
3	0	1.624997958949098E+002	3.4934470E-001	-2.7035559E+002
3	0	1.629997958822787E+002	3.4913585E-001	-2.7039447E+002
3	0	1.634997958696476E+002	3.4890482E-001	-2.7036618E+002
3	0	1.639997958570166E+002	3.4864631E-001	-2.7039093E+002
3	0	1.644997958443855E+002	3.4830216E-001	-2.7038742E+002
3	0	1.649997958317545E+002	3.4795275E-001	-2.7038031E+002
3	0	1.654997958191234E+002	3.4779629E-001	-2.7038385E+002
3	0	1.659997958064923E+002	3.4765625E-001	-2.7036618E+002
3	0	1.664997957938613E+002	3.4747308E-001	-2.7038031E+002
3	0	1.669997957812302E+002	3.4726351E-001	-2.7038031E+002
3	0	1.674997957685991E+002	3.4704557E-001	-2.7038031E+002
3	0	1.679997957559681E+002	3.4681809E-001	-2.7036972E+002
3	0	1.684997957433370E+002	3.4655246E-001	-2.7038385E+002
3	0	1.689997957307060E+002	3.4635520E-001	-2.7037677E+002
3	0	1.694997957180749E+002	3.4639537E-001	-2.7038385E+002
3	0	1.699997957054438E+002	3.4650856E-001	-2.7039447E+002
3	0	1.704997956928128E+002	3.4663498E-001	-2.7038385E+002
3	0	1.709997956801817E+002	3.4677836E-001	-2.7036972E+002
3	0	1.714997956675506E+002	3.4691599E-001	-2.7037677E+002
3	0	1.719997956549196E+002	3.4699208E-001	-2.7038385E+002
3	0	1.724997956422885E+002	3.4695441E-001	-2.7038385E+002
3	0	1.729997956296575E+002	3.4686944E-001	-2.7036267E+002
3	0	1.734997956170264E+002	3.4694511E-001	-2.7036267E+002
3	0	1.739997956043953E+002	3.4698525E-001	-2.7036267E+002
3	0	1.744997955917643E+002	3.4695503E-001	-2.7038031E+002
3	0	1.749997955791332E+002	3.4689245E-001	-2.7040155E+002
3	0	1.754997955665021E+002	3.4677103E-001	-2.7038742E+002
3	0	1.759997955538711E+002	3.4659529E-001	-2.7036972E+002
3	0	1.764997955412400E+002	3.4629562E-001	-2.7039801E+002
3	0	1.769997955286090E+002	3.4596503E-001	-2.7037326E+002
3	0	1.774997955159779E+002	3.4583837E-001	-2.7038031E+002
3	0	1.779997955033468E+002	3.4572959E-001	-2.7038385E+002
3	0	1.784997954907158E+002	3.4557658E-001	-2.7037677E+002
3	0	1.789997954780847E+002	3.4539315E-001	-2.7036972E+002
3	0	1.794997954654536E+002	3.4518212E-001	-2.7034851E+002
3	0	1.799997954528226E+002	3.4492919E-001	-2.7038385E+002
3	0	1.804997954401915E+002	3.4459582E-001	-2.7038385E+002
3	0	1.809997954275605E+002	3.4424809E-001	-2.7036972E+002
3	0	1.814997954149294E+002	3.4408417E-001	-2.7039447E+002
3	0	1.819997954022983E+002	3.4395897E-001	-2.7039093E+002
3	0	1.824997953896673E+002	3.4379363E-001	-2.7036972E+002
3	0	1.829997953770362E+002	3.4361705E-001	-2.7038031E+002
3	0	1.834997953644051E+002	3.4340438E-001	-2.7039447E+002
3	0	1.839997953517741E+002	3.4315532E-001	-2.7038031E+002
3	0	1.844997953391430E+002	3.4281093E-001	-2.7038385E+002
3	0	1.849997953265120E+002	3.4244925E-001	-2.7036618E+002
3	0	1.854997953138809E+002	3.4227937E-001	-2.7036972E+002
3	0	1.859997953012498E+002	3.4213790E-001	-2.7038742E+002
3	0	1.864997952886188E+002	3.4195986E-001	-2.7039093E+002
3	0	1.869997952759877E+002	3.4177116E-001	-2.7038031E+002
3	0	1.874997952633566E+002	3.4155437E-001	-2.7038031E+002
3	0	1.879997952507256E+002	3.4132406E-001	-2.7038031E+002
3	0	1.884997952380945E+002	3.4104556E-001	-2.7035913E+002
3	0	1.889997952254635E+002	3.4079781E-001	-2.7036972E+002
3	0	1.894997952128324E+002	3.4080693E-001	-2.7038385E+002
3	0	1.899997952002013E+002	3.4088743E-001	-2.7035913E+002
3	0	1.904997951875703E+002	3.4099498E-001	-2.7039801E+002
3	0	1.909997951749392E+002	3.4111694E-001	-2.7040155E+002
3	0	1.914997951623081E+002	3.4124482E-001	-2.7036267E+002
3	0	1.919997951496771E+002	3.4133810E-001	-2.7039093E+002
3	0	1.924997951370460E+002	3.4133431E-001	-2.7038385E+002
3	0	1.929997951244150E+002	3.4127170E-001	-2.7037326E+002
3	0	1.934997951117839E+002	3.4133515E-001	-2.7038742E+002
3	0	1.939997950991528E+002	3.4138089E-001	-2.7039801E+002
3	0	1.944997950865218E+002	3.4135810E-001	-2.7039801E+002
3	0	1.949997950738907E+002	3.4128669E-001	-2.7038385E+002
3	0	1.954997950612596E+002	3.4116599E-001	-2.7038385E+002
3	0	1.959997950486286E+002	3.4098697E-001	-2.7038385E+002
3	0	1.964997950359975E+002	3.4072074E-001	-2.7039801E+002
3	0	1.969997950233665E+002	3.4042159E-001	-2.7035913E+002
3	0	1.974997950107354E+002	3.4029803E-001	-2.7036972E+002
3	0	1.979997949981043E+002	3.4019434E-001	-2.7036618E+002
3	0	1.984997949854733E+002	3.4005326E-001	-2.7038742E+002
3	0	1.989997949728422E+002	3.3988604E-001	-2.7040506E+002
3	0	1.994997949602111E+002	3.3968213E-001	-2.7038031E+002
3	0	1.999997949475801E+002	3.3943129E-001	-2.7038385E+002
3	0	2.004997949349490E+002	3.3910853E-001	-2.7036267E+002
3	0	2.009997949223180E+002	3.3876073E-001	-2.7036618E+002
3	0	2.014997949096869E+002	3.3859259E-001	-2.7039093E+002
3	0	2.019997948970558E+002	3.3844432E-001	-2.7038385E+002
3	0	2.024997948844248E+002	3.3826885E-001	-2.7035913E+002
3	0	2.029997948717937E+002	3.3808729E-001	-2.7038031E+002
3	0	2.034997948591626E+002	3.3788106E-001	-2.7037326E+002
3	0	2.039997948465316E+002	3.3763319E-001	-2.7039093E+002
3	0	2.044997948339005E+002	3.3731681E-001	-2.7038742E+002
3	0	2.049997948212695E+002	3.3697882E-001	-2.7039801E+002
3	0	2.054997948086384E+002	3.3679658E-001	-2.7036618E+002
3	0	2.059997947960073E+002	3.3665338E-001	-2.7038031E+002
3	0	2.064997947833763E+002	3.3647665E-001	-2.7037677E+002
3	0	2.069997947707452E+002	3.3629540E-001	-2.7036267E+002
3	0	2.074997947581141E+002	3.3607841E-001	-2.7038385E+002
3	0	2.079997947454831E+002	3.3584371E-001	-2.7038742E+002
3	0	2.084997947328520E+002	3.3554304E-001	-2.7039801E+002
3	0	2.089997947202210E+002	3.3528090E-001	-2.7038385E+002
3	0	2.094997947075899E+002	3.3525485E-001	-2.7037326E+002
3	0	2.099997946949588E+002	3.3529887E-001	-2.7039093E+002
3	0	2.104997946823278E+002	3.3536679E-001	-2.7038385E+002
3	0	2.109997946696967E+002	3.3546183E-001	-2.7040506E+002
3	0	2.114997946570657E+002	3.3558545E-001	-2.7038385E+002
3	0	2.119997946444346E+002	3.3569396E-001	-2.7036267E+002
3	0	2.124997946318035E+002	3.3569410E-001	-2.7039447E+002
3	0	2.129997946191725E+002	3.3562592E-001	-2.7037677E+002
3	0	2.134997946065414E+002	3.3570129E-001	-2.7039093E+002
3	0	2.139997945939103E+002	3.3576682E-001	-2.7033789E+002
3	0	2.144997945812793E+002	3.3577588E-001	-2.7036972E+002
3	0	2.149997945686482E+002	3.3573931E-001	-2.7038031E+002
3	0	2.154997945560172E+002	3.3563334E-001	-2.7037677E+002
3	0	2.159997945433861E+002	3.3547586E-001	-2.7039801E+002
3	0	2.164997945307550E+002	3.3523446E-001	-2.7037677E+002
3	0	2.169997945181240E+002	3.3494893E-001	-2.7038742E+002
3	0	2.174997945054929E+002	3.3481207E-001	-2.7037677E+002
3	0	2.179997944928618E+002	3.3470488E-001	-2.7038385E+002
3	0	2.184997944802308E+002	3.3455551E-001	-2.7035913E+002
3	0	2.189997944675997E+002	3.3439410E-001	-2.7035205E+002
3	0	2.194997944549687E+002	3.3417788E-001	-2.7038031E+002
3	0	2.199997944423376E+002	3.3393881E-001	-2.7035913E+002
3	0	2.204997944297065E+002	3.3362541E-001	-2.7038031E+002
3	0	2.209997944170755E+002	3.3328560E-001	-2.7037326E+002
3	0	2.214997944044444E+002	3.3310255E-001	-2.7039093E+002
3	0	2.219997943918133E+002	3.3295873E-001	-2.7039447E+002
3	0	2.224997943791823E+002	3.3277911E-001	-2.7038031E+002
3	0	2.229997943665512E+002	3.3259878E-001	-2.7037677E+002
3	0	2.234997943539202E+002	3.3238840E-001	-2.7036972E+002
3	0	2.239997943412891E+002	3.3215427E-001	-2.7039447E+002
3	0	2.244997943286580E+002	3.3182919E-001	-2.7037326E+002
3	0	2.249997943160270E+002	3.3146438E-001	-2.7035913E+002
3	0	2.250001943160169E+002	3.3135128E-001	-2.7038031E+002