EC-Lab ASCII FILE
Nb header lines : 55                          

Open Circuit Voltage

Run on channel : 1 (SN 81504)
User : 
CE vs. WE compliance from -10 V to 10 V
Electrode connection : standard
Potential control : Ewe
Ewe ctrl range : min = -2.50 V, max = 2.50 V
Safety Limits :
	Do not start on E overload
Acquisition started on : 05/10/2026 10:21:59.442
Loaded Setting File :  C:\PEM-WE_measurements\2026\372_IV_IV IrOx, 5 min Pt, 30 min C, etched cathode\new station\Loopeis new\1,46 V different time gaps closed cell\Loopeis 1,46V_180s_5_PEIS from 65Hz to 10Hz.mps
Saved on :
	File : L_30_Loopeis 1,46V_180s_5_PEIS from 65Hz to 10Hz_14_OCV_C01.mpr
	Directory : C:\PEM-WE_measurements\2026\372_IV_IV IrOx, 5 min Pt, 30 min C, etched cathode\new station\Loopeis new\1,46 V different time gaps closed cell\
	Host : 192.168.0.2
Device : SP-150e (SN .005491)
Address : 192.168.0.91
EC-LAB for windows v11.71 (software)
Internet server v28.00 (firmware)
Command interpretor v14.01 (firmware)
Electrode material : 
Initial state : 
Electrolyte : 
Comments : 
Current amplifier : SP-150eB-20A
Electrode surface area : 0.001 cm²
Characteristic mass : 0.001 g
Equivalent Weight : 0.000 g/eq.
Density : 0.000 g/cm3
Volume (V) : 0.001 cm³
Record Analogic IN 1
Text export
   Mode : Standard
   Time format : Elapsed
Cycle Definition : Charge/Discharge alternance
External device configuration :
   device type : Temperature Probe
   device name : Other
   Analog IN 1 : 
      unit : T/Â°C
      max : 100.000 at 2.000 V
      min : 0.000 at 1.460 V
tR (h:m:s)          0:03:0.0000         
dER/dt (mV/h)       1.0                 
record              <Ewe>               
dER (mV)            10.00               
dtR (s)             0.5000              
E range min (V)     -2.500              
E range max (V)     2.500               

mode	error	time/s	<Ewe/V>	Analog IN 1/V	
3	0	1.619732185219327E+003	1.2926437E+000	-2.7035205E+002
3	0	1.620232185206696E+003	1.2995749E+000	-2.7036267E+002
3	0	1.620732185194065E+003	1.2947880E+000	-2.7040506E+002
3	0	1.621232185181434E+003	1.2840627E+000	-2.7041214E+002
3	0	1.621732185168803E+003	1.2656069E+000	-2.7038385E+002
3	0	1.622232185156172E+003	1.2355545E+000	-2.7038031E+002
3	0	1.622732185143541E+003	1.1845838E+000	-2.7038742E+002
3	0	1.623232185130910E+003	1.0633757E+000	-2.7036267E+002
3	0	1.623732185118279E+003	6.6737086E-001	-2.7038742E+002
3	0	1.624232185105648E+003	4.6023503E-001	-2.7036972E+002
3	0	1.624732185093017E+003	4.1037786E-001	-2.7038742E+002
3	0	1.625232185080386E+003	3.9891225E-001	-2.7036972E+002
3	0	1.625732185067754E+003	3.9564472E-001	-2.7038031E+002
3	0	1.626232185055123E+003	3.9426979E-001	-2.7037326E+002
3	0	1.626732185042492E+003	3.9342237E-001	-2.7034851E+002
3	0	1.627232185029861E+003	3.9266446E-001	-2.7039093E+002
3	0	1.627732185017230E+003	3.9190274E-001	-2.7037677E+002
3	0	1.628232185004599E+003	3.9139247E-001	-2.7039093E+002
3	0	1.628732184991968E+003	3.9143619E-001	-2.7036972E+002
3	0	1.629232184979337E+003	3.9138678E-001	-2.7036618E+002
3	0	1.629732184966706E+003	3.9123055E-001	-2.7035559E+002
3	0	1.630232184954075E+003	3.9106107E-001	-2.7036267E+002
3	0	1.630732184941444E+003	3.9094892E-001	-2.7036972E+002
3	0	1.631232184928813E+003	3.9078838E-001	-2.7038385E+002
3	0	1.631732184916182E+003	3.9058438E-001	-2.7037326E+002
3	0	1.632232184903551E+003	3.9045340E-001	-2.7036618E+002
3	0	1.632732184890920E+003	3.9073312E-001	-2.7038031E+002
3	0	1.633232184878289E+003	3.9094117E-001	-2.7036618E+002
3	0	1.633732184865657E+003	3.9105436E-001	-2.7036972E+002
3	0	1.634232184853026E+003	3.9112255E-001	-2.7036618E+002
3	0	1.634732184840395E+003	3.9118835E-001	-2.7037677E+002
3	0	1.635232184827764E+003	3.9112380E-001	-2.7036972E+002
3	0	1.635732184815133E+003	3.9096862E-001	-2.7036618E+002
3	0	1.636232184802502E+003	3.9092538E-001	-2.7037326E+002
3	0	1.636732184789871E+003	3.9131337E-001	-2.7039093E+002
3	0	1.637232184777240E+003	3.9168441E-001	-2.7036972E+002
3	0	1.637732184764609E+003	3.9200646E-001	-2.7036972E+002
3	0	1.638232184751978E+003	3.9236835E-001	-2.7039093E+002
3	0	1.638732184739347E+003	3.9282268E-001	-2.7037326E+002
3	0	1.639232184726716E+003	3.9322215E-001	-2.7038031E+002
3	0	1.639732184714085E+003	3.9353746E-001	-2.7039447E+002
3	0	1.640232184701454E+003	3.9389622E-001	-2.7037326E+002
3	0	1.640732184688823E+003	3.9459872E-001	-2.7039093E+002
3	0	1.641232184676192E+003	3.9517277E-001	-2.7036972E+002
3	0	1.641732184663560E+003	3.9558274E-001	-2.7036972E+002
3	0	1.642232184650929E+003	3.9588317E-001	-2.7035913E+002
3	0	1.642732184638298E+003	3.9614111E-001	-2.7036972E+002
3	0	1.643232184625667E+003	3.9628077E-001	-2.7036618E+002
3	0	1.643732184613036E+003	3.9626044E-001	-2.7037677E+002
3	0	1.644232184600405E+003	3.9630789E-001	-2.7036972E+002
3	0	1.644732184587774E+003	3.9668593E-001	-2.7036972E+002
3	0	1.645232184575143E+003	3.9698860E-001	-2.7038031E+002
3	0	1.645732184562512E+003	3.9711905E-001	-2.7037677E+002
3	0	1.646232184549881E+003	3.9721429E-001	-2.7036267E+002
3	0	1.646732184537250E+003	3.9725244E-001	-2.7037677E+002
3	0	1.647232184524619E+003	3.9719695E-001	-2.7038385E+002
3	0	1.647732184511988E+003	3.9701653E-001	-2.7038385E+002
3	0	1.648232184499357E+003	3.9687294E-001	-2.7039447E+002
3	0	1.648732184486726E+003	3.9706516E-001	-2.7038385E+002
3	0	1.649232184474095E+003	3.9719865E-001	-2.7034143E+002
3	0	1.649732184461463E+003	3.9721844E-001	-2.7037326E+002
3	0	1.650232184448832E+003	3.9718935E-001	-2.7038385E+002
3	0	1.650732184436201E+003	3.9715317E-001	-2.7037677E+002
3	0	1.651232184423570E+003	3.9705753E-001	-2.7038031E+002
3	0	1.651732184410939E+003	3.9679801E-001	-2.7036972E+002
3	0	1.652232184398308E+003	3.9659342E-001	-2.7036267E+002
3	0	1.652732184385677E+003	3.9670634E-001	-2.7039447E+002
3	0	1.653232184373046E+003	3.9674026E-001	-2.7038385E+002
3	0	1.653732184360415E+003	3.9665267E-001	-2.7039801E+002
3	0	1.654232184347784E+003	3.9651713E-001	-2.7038385E+002
3	0	1.654732184335153E+003	3.9639610E-001	-2.7037326E+002
3	0	1.655232184322522E+003	3.9618206E-001	-2.7035559E+002
3	0	1.655732184309891E+003	3.9586759E-001	-2.7035205E+002
3	0	1.656232184297260E+003	3.9562985E-001	-2.7037326E+002
3	0	1.656732184284629E+003	3.9573339E-001	-2.7036267E+002
3	0	1.657232184271998E+003	3.9583620E-001	-2.7037677E+002
3	0	1.657732184259366E+003	3.9590663E-001	-2.7037326E+002
3	0	1.658232184246735E+003	3.9602816E-001	-2.7039447E+002
3	0	1.658732184234104E+003	3.9621255E-001	-2.7036972E+002
3	0	1.659232184221473E+003	3.9640397E-001	-2.7040506E+002
3	0	1.659732184208842E+003	3.9652380E-001	-2.7037677E+002
3	0	1.660232184196211E+003	3.9671740E-001	-2.7038742E+002
3	0	1.660732184183580E+003	3.9722741E-001	-2.7037677E+002
3	0	1.661232184170949E+003	3.9760491E-001	-2.7040506E+002
3	0	1.661732184158318E+003	3.9783803E-001	-2.7035913E+002
3	0	1.662232184145687E+003	3.9795977E-001	-2.7039093E+002
3	0	1.662732184133056E+003	3.9805731E-001	-2.7038742E+002
3	0	1.663232184120425E+003	3.9803132E-001	-2.7037677E+002
3	0	1.663732184107794E+003	3.9783660E-001	-2.7039801E+002
3	0	1.664232184095163E+003	3.9766964E-001	-2.7036618E+002
3	0	1.664732184082532E+003	3.9783803E-001	-2.7038031E+002
3	0	1.665232184069901E+003	3.9792684E-001	-2.7035205E+002
3	0	1.665732184057269E+003	3.9789969E-001	-2.7038742E+002
3	0	1.666232184044638E+003	3.9781502E-001	-2.7034851E+002
3	0	1.666732184032007E+003	3.9768884E-001	-2.7038031E+002
3	0	1.667232184019376E+003	3.9748034E-001	-2.7039093E+002
3	0	1.667732184006745E+003	3.9714473E-001	-2.7036267E+002
3	0	1.668232183994114E+003	3.9684209E-001	-2.7035913E+002
3	0	1.668732183981483E+003	3.9685550E-001	-2.7036972E+002
3	0	1.669232183968852E+003	3.9680824E-001	-2.7038385E+002
3	0	1.669732183956221E+003	3.9664522E-001	-2.7039093E+002
3	0	1.670232183943590E+003	3.9641479E-001	-2.7039447E+002
3	0	1.670732183930959E+003	3.9617035E-001	-2.7036972E+002
3	0	1.671232183918328E+003	3.9585847E-001	-2.7039447E+002
3	0	1.671732183905697E+003	3.9542708E-001	-2.7036618E+002
3	0	1.672232183893066E+003	3.9505437E-001	-2.7039447E+002
3	0	1.672732183880435E+003	3.9501110E-001	-2.7038031E+002
3	0	1.673232183867804E+003	3.9491886E-001	-2.7037326E+002
3	0	1.673732183855172E+003	3.9473590E-001	-2.7039447E+002
3	0	1.674232183842541E+003	3.9449352E-001	-2.7038742E+002
3	0	1.674732183829910E+003	3.9425802E-001	-2.7036618E+002
3	0	1.675232183817279E+003	3.9391962E-001	-2.7039093E+002
3	0	1.675732183804648E+003	3.9350840E-001	-2.7038385E+002
3	0	1.676232183792017E+003	3.9311868E-001	-2.7038031E+002
3	0	1.676732183779386E+003	3.9308482E-001	-2.7038031E+002
3	0	1.677232183766755E+003	3.9304894E-001	-2.7037677E+002
3	0	1.677732183754124E+003	3.9299753E-001	-2.7038031E+002
3	0	1.678232183741493E+003	3.9298329E-001	-2.7037326E+002
3	0	1.678732183728862E+003	3.9300153E-001	-2.7038385E+002
3	0	1.679232183716231E+003	3.9311114E-001	-2.7036972E+002
3	0	1.679732183703600E+003	3.9312014E-001	-2.7035913E+002
3	0	1.680232183690969E+003	3.9318705E-001	-2.7037677E+002
3	0	1.680732183678338E+003	3.9353058E-001	-2.7036972E+002
3	0	1.681232183665707E+003	3.9380834E-001	-2.7036972E+002
3	0	1.681732183653075E+003	3.9394185E-001	-2.7038385E+002
3	0	1.682232183640444E+003	3.9396513E-001	-2.7036618E+002
3	0	1.682732183627813E+003	3.9394173E-001	-2.7038031E+002
3	0	1.683232183615182E+003	3.9384073E-001	-2.7034851E+002
3	0	1.683732183602551E+003	3.9358822E-001	-2.7038742E+002
3	0	1.684232183589920E+003	3.9336127E-001	-2.7040506E+002
3	0	1.684732183577289E+003	3.9343193E-001	-2.7036972E+002
3	0	1.685232183564658E+003	3.9343473E-001	-2.7038031E+002
3	0	1.685732183552027E+003	3.9331171E-001	-2.7036618E+002
3	0	1.686232183539396E+003	3.9313298E-001	-2.7039447E+002
3	0	1.686732183526765E+003	3.9294723E-001	-2.7039093E+002
3	0	1.687232183514134E+003	3.9269042E-001	-2.7036972E+002
3	0	1.687732183501503E+003	3.9232647E-001	-2.7037677E+002
3	0	1.688232183488872E+003	3.9195824E-001	-2.7036972E+002
3	0	1.688732183476241E+003	3.9190018E-001	-2.7038031E+002
3	0	1.689232183463610E+003	3.9176813E-001	-2.7038742E+002
3	0	1.689732183450978E+003	3.9153695E-001	-2.7039093E+002
3	0	1.690232183438347E+003	3.9125115E-001	-2.7039801E+002
3	0	1.690732183425716E+003	3.9095432E-001	-2.7036618E+002
3	0	1.691232183413085E+003	3.9062336E-001	-2.7037326E+002
3	0	1.691732183400454E+003	3.9018112E-001	-2.7035205E+002
3	0	1.692232183387823E+003	3.8977703E-001	-2.7039093E+002
3	0	1.692732183375192E+003	3.8966721E-001	-2.7037677E+002
3	0	1.693232183362561E+003	3.8953155E-001	-2.7037677E+002
3	0	1.693732183349930E+003	3.8930660E-001	-2.7039093E+002
3	0	1.694232183337299E+003	3.8898817E-001	-2.7037677E+002
3	0	1.694732183324668E+003	3.8865733E-001	-2.7038031E+002
3	0	1.695232183312037E+003	3.8827708E-001	-2.7036972E+002
3	0	1.695732183299406E+003	3.8779888E-001	-2.7038385E+002
3	0	1.696232183286775E+003	3.8736758E-001	-2.7036618E+002
3	0	1.696732183274144E+003	3.8722548E-001	-2.7036618E+002
3	0	1.697232183261513E+003	3.8712490E-001	-2.7038031E+002
3	0	1.697732183248881E+003	3.8703671E-001	-2.7040860E+002
3	0	1.698232183236250E+003	3.8696668E-001	-2.7037326E+002
3	0	1.698732183223619E+003	3.8699803E-001	-2.7039093E+002
3	0	1.699232183210988E+003	3.8703316E-001	-2.7039801E+002
3	0	1.699732183198357E+003	3.8703662E-001	-2.7036618E+002
3	0	1.700232183185726E+003	3.8705787E-001	-2.7036618E+002
3	0	1.700732183173095E+003	3.8736522E-001	-2.7035913E+002
3	0	1.701232183160464E+003	3.8761234E-001	-2.7037677E+002
3	0	1.701732183147833E+003	3.8771132E-001	-2.7038031E+002
3	0	1.702232183135202E+003	3.8770756E-001	-2.7039093E+002
3	0	1.702732183122571E+003	3.8766906E-001	-2.7036267E+002
3	0	1.703232183109940E+003	3.8755530E-001	-2.7036972E+002
3	0	1.703732183097309E+003	3.8729864E-001	-2.7037326E+002
3	0	1.704232183084678E+003	3.8703987E-001	-2.7038031E+002
3	0	1.704732183072047E+003	3.8705134E-001	-2.7037677E+002
3	0	1.705232183059416E+003	3.8702625E-001	-2.7039447E+002
3	0	1.705732183046784E+003	3.8690376E-001	-2.7037326E+002
3	0	1.706232183034153E+003	3.8669172E-001	-2.7036972E+002
3	0	1.706732183021522E+003	3.8648844E-001	-2.7036267E+002
3	0	1.707232183008891E+003	3.8619301E-001	-2.7036972E+002
3	0	1.707732182996260E+003	3.8578933E-001	-2.7036972E+002
3	0	1.708232182983629E+003	3.8540930E-001	-2.7035913E+002
3	0	1.708732182970998E+003	3.8531148E-001	-2.7039801E+002
3	0	1.709232182958367E+003	3.8520294E-001	-2.7040506E+002
3	0	1.709732182945736E+003	3.8501140E-001	-2.7036972E+002
3	0	1.710232182933105E+003	3.8477117E-001	-2.7038742E+002
3	0	1.710732182920474E+003	3.8453710E-001	-2.7036618E+002
3	0	1.711232182907843E+003	3.8421717E-001	-2.7040155E+002
3	0	1.711732182895212E+003	3.8380387E-001	-2.7038385E+002
3	0	1.712232182882581E+003	3.8338912E-001	-2.7037326E+002
3	0	1.712732182869950E+003	3.8324276E-001	-2.7038742E+002
3	0	1.713232182857319E+003	3.8307393E-001	-2.7038385E+002
3	0	1.713732182844687E+003	3.8287523E-001	-2.7038031E+002
3	0	1.714232182832056E+003	3.8263911E-001	-2.7036972E+002
3	0	1.714732182819425E+003	3.8234565E-001	-2.7039093E+002
3	0	1.715232182806794E+003	3.8199896E-001	-2.7036267E+002
3	0	1.715732182794163E+003	3.8158897E-001	-2.7037326E+002
3	0	1.716232182781532E+003	3.8116547E-001	-2.7038031E+002
3	0	1.716732182768901E+003	3.8104120E-001	-2.7038031E+002
3	0	1.717232182756270E+003	3.8093323E-001	-2.7036618E+002
3	0	1.717732182743639E+003	3.8083985E-001	-2.7036972E+002
3	0	1.718232182731008E+003	3.8073832E-001	-2.7035559E+002
3	0	1.718732182718377E+003	3.8070616E-001	-2.7039093E+002
3	0	1.719232182705746E+003	3.8069502E-001	-2.7037326E+002
3	0	1.719732182693115E+003	3.8061962E-001	-2.7036618E+002
3	0	1.720232182680484E+003	3.8063979E-001	-2.7038385E+002
3	0	1.720732182667853E+003	3.8091460E-001	-2.7035559E+002
3	0	1.721232182655222E+003	3.8115427E-001	-2.7036618E+002
3	0	1.721732182642590E+003	3.8130432E-001	-2.7039093E+002
3	0	1.722232182629959E+003	3.8133836E-001	-2.7038742E+002
3	0	1.722732182617328E+003	3.8129264E-001	-2.7037326E+002
3	0	1.723232182604697E+003	3.8117823E-001	-2.7037677E+002
3	0	1.723732182592066E+003	3.8093027E-001	-2.7038385E+002
3	0	1.724232182579435E+003	3.8067648E-001	-2.7037326E+002
3	0	1.724732182566804E+003	3.8067681E-001	-2.7038031E+002
3	0	1.725232182554173E+003	3.8065046E-001	-2.7036972E+002
3	0	1.725732182541542E+003	3.8053006E-001	-2.7037326E+002
3	0	1.726232182528911E+003	3.8034502E-001	-2.7037677E+002
3	0	1.726732182516280E+003	3.8012514E-001	-2.7036972E+002
3	0	1.727232182503649E+003	3.7985384E-001	-2.7036267E+002
3	0	1.727732182491018E+003	3.7949747E-001	-2.7038742E+002
3	0	1.728232182478387E+003	3.7914425E-001	-2.7037677E+002
3	0	1.728732182465756E+003	3.7901089E-001	-2.7035205E+002
3	0	1.729232182453125E+003	3.7887931E-001	-2.7035913E+002
3	0	1.729732182440493E+003	3.7868944E-001	-2.7038031E+002
3	0	1.730232182427862E+003	3.7845665E-001	-2.7037677E+002
3	0	1.730732182415231E+003	3.7822449E-001	-2.7035205E+002
3	0	1.731232182402600E+003	3.7790281E-001	-2.7038742E+002
3	0	1.731732182389969E+003	3.7747717E-001	-2.7038385E+002
3	0	1.732232182377338E+003	3.7708336E-001	-2.7039801E+002
3	0	1.732732182364707E+003	3.7693739E-001	-2.7038742E+002
3	0	1.733232182352076E+003	3.7679216E-001	-2.7037677E+002
3	0	1.733732182339445E+003	3.7659603E-001	-2.7039093E+002
3	0	1.734232182326814E+003	3.7636328E-001	-2.7038385E+002
3	0	1.734732182314183E+003	3.7611243E-001	-2.7039447E+002
3	0	1.735232182301552E+003	3.7581170E-001	-2.7039093E+002
3	0	1.735732182288921E+003	3.7541011E-001	-2.7036618E+002
3	0	1.736232182276290E+003	3.7502199E-001	-2.7039093E+002
3	0	1.736732182263659E+003	3.7486973E-001	-2.7036267E+002
3	0	1.737232182251028E+003	3.7475997E-001	-2.7038742E+002
3	0	1.737732182238396E+003	3.7463027E-001	-2.7037326E+002
3	0	1.738232182225765E+003	3.7451938E-001	-2.7038385E+002
3	0	1.738732182213134E+003	3.7445629E-001	-2.7037326E+002
3	0	1.739232182200503E+003	3.7441275E-001	-2.7038031E+002
3	0	1.739732182187872E+003	3.7432465E-001	-2.7037677E+002
3	0	1.740232182175241E+003	3.7430754E-001	-2.7037677E+002
3	0	1.740732182162610E+003	3.7453705E-001	-2.7038031E+002
3	0	1.741232182149979E+003	3.7479725E-001	-2.7038031E+002
3	0	1.741732182137348E+003	3.7495658E-001	-2.7035205E+002
3	0	1.742232182124717E+003	3.7503377E-001	-2.7037326E+002
3	0	1.742732182112086E+003	3.7507090E-001	-2.7039447E+002
3	0	1.743232182099455E+003	3.7497494E-001	-2.7038385E+002
3	0	1.743732182086824E+003	3.7471312E-001	-2.7034851E+002
3	0	1.744232182074193E+003	3.7446010E-001	-2.7039801E+002
3	0	1.744732182061562E+003	3.7442213E-001	-2.7036618E+002
3	0	1.745232182048931E+003	3.7437454E-001	-2.7037326E+002
3	0	1.745732182036299E+003	3.7426826E-001	-2.7036972E+002
3	0	1.746232182023668E+003	3.7410319E-001	-2.7038031E+002
3	0	1.746732182011037E+003	3.7391117E-001	-2.7038742E+002
3	0	1.747232181998406E+003	3.7363675E-001	-2.7038742E+002
3	0	1.747732181985775E+003	3.7328446E-001	-2.7037677E+002
3	0	1.748232181973144E+003	3.7290588E-001	-2.7037677E+002
3	0	1.748732181960513E+003	3.7277287E-001	-2.7038742E+002
3	0	1.749232181947882E+003	3.7264356E-001	-2.7037677E+002
3	0	1.749732181935251E+003	3.7246615E-001	-2.7038385E+002
3	0	1.750232181922620E+003	3.7222365E-001	-2.7039447E+002
3	0	1.750732181909989E+003	3.7197301E-001	-2.7036267E+002
3	0	1.751232181897358E+003	3.7164867E-001	-2.7038742E+002
3	0	1.751732181884727E+003	3.7124729E-001	-2.7037326E+002
3	0	1.752232181872096E+003	3.7085396E-001	-2.7037677E+002
3	0	1.752732181859465E+003	3.7070647E-001	-2.7037326E+002
3	0	1.753232181846834E+003	3.7057170E-001	-2.7036618E+002
3	0	1.753732181834202E+003	3.7038833E-001	-2.7036267E+002
3	0	1.754232181821571E+003	3.7016898E-001	-2.7038385E+002
3	0	1.754732181808940E+003	3.6993286E-001	-2.7038031E+002
3	0	1.755232181796309E+003	3.6961097E-001	-2.7036267E+002
3	0	1.755732181783678E+003	3.6920065E-001	-2.7038742E+002
3	0	1.756232181771047E+003	3.6880454E-001	-2.7036972E+002
3	0	1.756732181758416E+003	3.6863637E-001	-2.7039801E+002
3	0	1.757232181745785E+003	3.6849391E-001	-2.7036972E+002
3	0	1.757732181733154E+003	3.6834109E-001	-2.7037326E+002
3	0	1.758232181720523E+003	3.6819252E-001	-2.7034497E+002
3	0	1.758732181707892E+003	3.6809847E-001	-2.7039093E+002
3	0	1.759232181695261E+003	3.6804828E-001	-2.7037326E+002
3	0	1.759732181682630E+003	3.6796576E-001	-2.7035913E+002
3	0	1.760232181669999E+003	3.6792219E-001	-2.7035913E+002
3	0	1.760732181657368E+003	3.6812496E-001	-2.7038031E+002
3	0	1.761232181644737E+003	3.6835122E-001	-2.7038385E+002
3	0	1.761732181632105E+003	3.6851805E-001	-2.7040155E+002
3	0	1.762232181619474E+003	3.6859882E-001	-2.7037326E+002
3	0	1.762732181606843E+003	3.6860007E-001	-2.7038385E+002
3	0	1.763232181594212E+003	3.6851165E-001	-2.7038031E+002
3	0	1.763732181581581E+003	3.6829764E-001	-2.7037677E+002
3	0	1.764232181568950E+003	3.6805043E-001	-2.7039093E+002
3	0	1.764732181556319E+003	3.6799744E-001	-2.7037677E+002
3	0	1.765232181543688E+003	3.6796281E-001	-2.7036618E+002
3	0	1.765732181531057E+003	3.6787826E-001	-2.7040860E+002
3	0	1.766232181518426E+003	3.6774194E-001	-2.7038385E+002
3	0	1.766732181505795E+003	3.6758119E-001	-2.7035913E+002
3	0	1.767232181493164E+003	3.6733496E-001	-2.7038385E+002
3	0	1.767732181480533E+003	3.6699083E-001	-2.7038742E+002
3	0	1.768232181467902E+003	3.6664492E-001	-2.7036972E+002
3	0	1.768732181455271E+003	3.6649796E-001	-2.7037326E+002
3	0	1.769232181442640E+003	3.6636719E-001	-2.7037326E+002
3	0	1.769732181430009E+003	3.6619523E-001	-2.7037677E+002
3	0	1.770232181417377E+003	3.6595228E-001	-2.7039801E+002
3	0	1.770732181404746E+003	3.6571488E-001	-2.7037677E+002
3	0	1.771232181392115E+003	3.6541995E-001	-2.7036972E+002
3	0	1.771732181379484E+003	3.6502177E-001	-2.7036972E+002
3	0	1.772232181366853E+003	3.6462110E-001	-2.7037677E+002
3	0	1.772732181354222E+003	3.6443228E-001	-2.7037677E+002
3	0	1.773232181341591E+003	3.6428002E-001	-2.7038031E+002
3	0	1.773732181328960E+003	3.6408511E-001	-2.7039801E+002
3	0	1.774232181316329E+003	3.6386150E-001	-2.7035205E+002
3	0	1.774732181303698E+003	3.6362904E-001	-2.7036618E+002
3	0	1.775232181291067E+003	3.6337003E-001	-2.7039093E+002
3	0	1.775732181278436E+003	3.6305270E-001	-2.7038031E+002
3	0	1.776232181265805E+003	3.6269665E-001	-2.7036267E+002
3	0	1.776732181253174E+003	3.6252204E-001	-2.7038742E+002
3	0	1.777232181240543E+003	3.6239138E-001	-2.7037326E+002
3	0	1.777732181227912E+003	3.6226016E-001	-2.7038385E+002
3	0	1.778232181215280E+003	3.6212981E-001	-2.7038385E+002
3	0	1.778732181202649E+003	3.6204880E-001	-2.7036267E+002
3	0	1.779232181190018E+003	3.6197197E-001	-2.7036618E+002
3	0	1.779732181177387E+003	3.6186907E-001	-2.7038031E+002
3	0	1.780232181164756E+003	3.6183220E-001	-2.7037677E+002
3	0	1.780732181152125E+003	3.6202505E-001	-2.7035913E+002
3	0	1.781232181139494E+003	3.6228481E-001	-2.7039093E+002
3	0	1.781732181126863E+003	3.6251661E-001	-2.7038031E+002
3	0	1.782232181114232E+003	3.6265227E-001	-2.7041214E+002
3	0	1.782732181101601E+003	3.6274898E-001	-2.7038031E+002
3	0	1.783232181088970E+003	3.6275104E-001	-2.7036618E+002
3	0	1.783732181076339E+003	3.6263135E-001	-2.7036972E+002
3	0	1.784232181063708E+003	3.6245492E-001	-2.7036972E+002
3	0	1.784732181051077E+003	3.6241814E-001	-2.7040155E+002
3	0	1.785232181038446E+003	3.6238247E-001	-2.7039447E+002
3	0	1.785732181025815E+003	3.6229125E-001	-2.7039801E+002
3	0	1.786232181013183E+003	3.6213347E-001	-2.7036972E+002
3	0	1.786732181000552E+003	3.6194658E-001	-2.7038385E+002
3	0	1.787232180987921E+003	3.6168906E-001	-2.7038385E+002
3	0	1.787732180975290E+003	3.6134991E-001	-2.7038742E+002
3	0	1.788232180962659E+003	3.6100438E-001	-2.7036972E+002
3	0	1.788732180950028E+003	3.6083147E-001	-2.7035913E+002
3	0	1.789232180937397E+003	3.6067978E-001	-2.7036972E+002
3	0	1.789732180924766E+003	3.6047754E-001	-2.7039093E+002
3	0	1.790232180912135E+003	3.6023545E-001	-2.7038385E+002
3	0	1.790732180899504E+003	3.5998556E-001	-2.7036267E+002
3	0	1.791232180886873E+003	3.5967270E-001	-2.7036618E+002
3	0	1.791732180874242E+003	3.5931545E-001	-2.7038742E+002
3	0	1.792232180861611E+003	3.5896969E-001	-2.7036972E+002
3	0	1.792732180848980E+003	3.5880098E-001	-2.7038031E+002
3	0	1.793232180836349E+003	3.5865143E-001	-2.7038031E+002
3	0	1.793732180823718E+003	3.5848922E-001	-2.7038385E+002
3	0	1.794232180811086E+003	3.5826612E-001	-2.7036972E+002
3	0	1.794732180798455E+003	3.5802764E-001	-2.7038031E+002
3	0	1.795232180785824E+003	3.5774079E-001	-2.7036972E+002
3	0	1.795732180773193E+003	3.5739428E-001	-2.7036972E+002
3	0	1.796232180760562E+003	3.5704431E-001	-2.7039447E+002
3	0	1.796732180747931E+003	3.5686260E-001	-2.7038742E+002
3	0	1.797232180735300E+003	3.5671479E-001	-2.7040860E+002
3	0	1.797732180722669E+003	3.5657793E-001	-2.7038742E+002
3	0	1.798232180710038E+003	3.5645559E-001	-2.7039801E+002
3	0	1.798732180697407E+003	3.5635123E-001	-2.7036972E+002
3	0	1.799232180684776E+003	3.5623902E-001	-2.7036267E+002
3	0	1.799232580684766E+003	3.5614738E-001	-2.7038385E+002