EC-Lab ASCII FILE
Nb header lines : 55                          

Open Circuit Voltage

Run on channel : 1 (SN 81504)
User : 
CE vs. WE compliance from -10 V to 10 V
Electrode connection : standard
Potential control : Ewe
Ewe ctrl range : min = -2.50 V, max = 2.50 V
Safety Limits :
	Do not start on E overload
Acquisition started on : 05/10/2026 10:21:59.442
Loaded Setting File :  C:\PEM-WE_measurements\2026\372_IV_IV IrOx, 5 min Pt, 30 min C, etched cathode\new station\Loopeis new\1,46 V different time gaps closed cell\Loopeis 1,46V_180s_5_PEIS from 65Hz to 10Hz.mps
Saved on :
	File : L_30_Loopeis 1,46V_180s_5_PEIS from 65Hz to 10Hz_06_OCV_C01.mpr
	Directory : C:\PEM-WE_measurements\2026\372_IV_IV IrOx, 5 min Pt, 30 min C, etched cathode\new station\Loopeis new\1,46 V different time gaps closed cell\
	Host : 192.168.0.2
Device : SP-150e (SN .005491)
Address : 192.168.0.91
EC-LAB for windows v11.71 (software)
Internet server v28.00 (firmware)
Command interpretor v14.01 (firmware)
Electrode material : 
Initial state : 
Electrolyte : 
Comments : 
Current amplifier : SP-150eB-20A
Electrode surface area : 0.001 cm²
Characteristic mass : 0.001 g
Equivalent Weight : 0.000 g/eq.
Density : 0.000 g/cm3
Volume (V) : 0.001 cm³
Record Analogic IN 1
Text export
   Mode : Standard
   Time format : Elapsed
Cycle Definition : Charge/Discharge alternance
External device configuration :
   device type : Temperature Probe
   device name : Other
   Analog IN 1 : 
      unit : T/Â°C
      max : 100.000 at 2.000 V
      min : 0.000 at 1.460 V
tR (h:m:s)          0:03:0.0000         
dER/dt (mV/h)       1.0                 
record              <Ewe>               
dER (mV)            10.00               
dtR (s)             0.5000              
E range min (V)     -2.500              
E range max (V)     2.500               

mode	error	time/s	<Ewe/V>	Analog IN 1/V	
3	0	7.186536013559089E+002	1.2910804E+000	-2.7036972E+002
3	0	7.191536013432778E+002	1.2977816E+000	-2.7039093E+002
3	0	7.196536013306468E+002	1.2964985E+000	-2.7036618E+002
3	0	7.201536013180157E+002	1.2921389E+000	-2.7036618E+002
3	0	7.206536013053847E+002	1.2839054E+000	-2.7037677E+002
3	0	7.211536012927536E+002	1.2703801E+000	-2.7041919E+002
3	0	7.216536012801225E+002	1.2489904E+000	-2.7035913E+002
3	0	7.221536012674915E+002	1.2153924E+000	-2.7036267E+002
3	0	7.226536012548604E+002	1.1591213E+000	-2.7037326E+002
3	0	7.231536012422293E+002	1.0395987E+000	-2.7038385E+002
3	0	7.236536012295983E+002	7.3174465E-001	-2.7036267E+002
3	0	7.241536012169672E+002	5.4311395E-001	-2.7041919E+002
3	0	7.246536012043362E+002	4.8302361E-001	-2.7038031E+002
3	0	7.251536011917051E+002	4.6353087E-001	-2.7037326E+002
3	0	7.256536011790740E+002	4.5695519E-001	-2.7036618E+002
3	0	7.261536011664430E+002	4.5381922E-001	-2.7036267E+002
3	0	7.266536011538119E+002	4.5160550E-001	-2.7038031E+002
3	0	7.271536011411808E+002	4.4997126E-001	-2.7037326E+002
3	0	7.276536011285498E+002	4.4855705E-001	-2.7038385E+002
3	0	7.281536011159187E+002	4.4689998E-001	-2.7037677E+002
3	0	7.286536011032877E+002	4.4532093E-001	-2.7038031E+002
3	0	7.291536010906566E+002	4.4508705E-001	-2.7037677E+002
3	0	7.296536010780255E+002	4.4500130E-001	-2.7036972E+002
3	0	7.301536010653945E+002	4.4485715E-001	-2.7036267E+002
3	0	7.306536010527634E+002	4.4446644E-001	-2.7034143E+002
3	0	7.311536010401323E+002	4.4411755E-001	-2.7040155E+002
3	0	7.316536010275013E+002	4.4367203E-001	-2.7036618E+002
3	0	7.321536010148702E+002	4.4334123E-001	-2.7037677E+002
3	0	7.326536010022392E+002	4.4330075E-001	-2.7036972E+002
3	0	7.331536009896081E+002	4.4454679E-001	-2.7038742E+002
3	0	7.336536009769770E+002	4.4609368E-001	-2.7035913E+002
3	0	7.341536009643460E+002	4.4778663E-001	-2.7039801E+002
3	0	7.346536009517149E+002	4.4942194E-001	-2.7040506E+002
3	0	7.351536009390838E+002	4.5109901E-001	-2.7039093E+002
3	0	7.356536009264528E+002	4.5256087E-001	-2.7038742E+002
3	0	7.361536009138217E+002	4.5369288E-001	-2.7037677E+002
3	0	7.366536009011907E+002	4.5469886E-001	-2.7036972E+002
3	0	7.371536008885596E+002	4.5671886E-001	-2.7035559E+002
3	0	7.376536008759285E+002	4.5871121E-001	-2.7038742E+002
3	0	7.381536008632975E+002	4.6054381E-001	-2.7038742E+002
3	0	7.386536008506664E+002	4.6211302E-001	-2.7038742E+002
3	0	7.391536008380353E+002	4.6346822E-001	-2.7036267E+002
3	0	7.396536008254043E+002	4.6467513E-001	-2.7039447E+002
3	0	7.401536008127732E+002	4.6530178E-001	-2.7039447E+002
3	0	7.406536008001422E+002	4.6587336E-001	-2.7036618E+002
3	0	7.411536007875111E+002	4.6748757E-001	-2.7035913E+002
3	0	7.416536007748800E+002	4.6904352E-001	-2.7036267E+002
3	0	7.421536007622490E+002	4.7042301E-001	-2.7036618E+002
3	0	7.426536007496179E+002	4.7147551E-001	-2.7040860E+002
3	0	7.431536007369868E+002	4.7238246E-001	-2.7038031E+002
3	0	7.436536007243558E+002	4.7298464E-001	-2.7038031E+002
3	0	7.441536007117247E+002	4.7307843E-001	-2.7039801E+002
3	0	7.446536006990937E+002	4.7307518E-001	-2.7038031E+002
3	0	7.451536006864626E+002	4.7399786E-001	-2.7039093E+002
3	0	7.456536006738315E+002	4.7497487E-001	-2.7038385E+002
3	0	7.461536006612005E+002	4.7583830E-001	-2.7037326E+002
3	0	7.466536006485694E+002	4.7632894E-001	-2.7038385E+002
3	0	7.471536006359383E+002	4.7655389E-001	-2.7039093E+002
3	0	7.476536006233073E+002	4.7641486E-001	-2.7037677E+002
3	0	7.481536006106762E+002	4.7587684E-001	-2.7038742E+002
3	0	7.486536005980452E+002	4.7520477E-001	-2.7040506E+002
3	0	7.491536005854141E+002	4.7557062E-001	-2.7038031E+002
3	0	7.496536005727830E+002	4.7595936E-001	-2.7037677E+002
3	0	7.501536005601520E+002	4.7616434E-001	-2.7035913E+002
3	0	7.506536005475209E+002	4.7615677E-001	-2.7037677E+002
3	0	7.511536005348898E+002	4.7585940E-001	-2.7037326E+002
3	0	7.516536005222588E+002	4.7545773E-001	-2.7037677E+002
3	0	7.521536005096277E+002	4.7475836E-001	-2.7038742E+002
3	0	7.526536004969967E+002	4.7432449E-001	-2.7039801E+002
3	0	7.531536004843656E+002	4.7518855E-001	-2.7038031E+002
3	0	7.536536004717345E+002	4.7637579E-001	-2.7038385E+002
3	0	7.541536004591035E+002	4.7751203E-001	-2.7038385E+002
3	0	7.546536004464724E+002	4.7930047E-001	-2.7037677E+002
3	0	7.551536004338413E+002	4.8118660E-001	-2.7036618E+002
3	0	7.556536004212103E+002	4.8281574E-001	-2.7038742E+002
3	0	7.561536004085792E+002	4.8419285E-001	-2.7036972E+002
3	0	7.566536003959482E+002	4.8528811E-001	-2.7037677E+002
3	0	7.571536003833171E+002	4.8714784E-001	-2.7040860E+002
3	0	7.576536003706860E+002	4.8886135E-001	-2.7037677E+002
3	0	7.581536003580550E+002	4.9013874E-001	-2.7038742E+002
3	0	7.586536003454239E+002	4.9128118E-001	-2.7040155E+002
3	0	7.591536003327928E+002	4.9225914E-001	-2.7038031E+002
3	0	7.596536003201618E+002	4.9287799E-001	-2.7037677E+002
3	0	7.601536003075307E+002	4.9292767E-001	-2.7037326E+002
3	0	7.606536002948997E+002	4.9277914E-001	-2.7040155E+002
3	0	7.611536002822686E+002	4.9357775E-001	-2.7035913E+002
3	0	7.616536002696375E+002	4.9420646E-001	-2.7036618E+002
3	0	7.621536002570065E+002	4.9449068E-001	-2.7038031E+002
3	0	7.626536002443754E+002	4.9452510E-001	-2.7041214E+002
3	0	7.631536002317443E+002	4.9437019E-001	-2.7038031E+002
3	0	7.636536002191133E+002	4.9389026E-001	-2.7036972E+002
3	0	7.641536002064822E+002	4.9287951E-001	-2.7038031E+002
3	0	7.646536001938512E+002	4.9163929E-001	-2.7039093E+002
3	0	7.651536001812201E+002	4.9139166E-001	-2.7038385E+002
3	0	7.656536001685890E+002	4.9100178E-001	-2.7036972E+002
3	0	7.661536001559580E+002	4.9024796E-001	-2.7035559E+002
3	0	7.666536001433269E+002	4.8932952E-001	-2.7039447E+002
3	0	7.671536001306959E+002	4.8822141E-001	-2.7038385E+002
3	0	7.676536001180648E+002	4.8687780E-001	-2.7038031E+002
3	0	7.681536001054337E+002	4.8509377E-001	-2.7038385E+002
3	0	7.686536000928027E+002	4.8316139E-001	-2.7038742E+002
3	0	7.691536000801716E+002	4.8220372E-001	-2.7036618E+002
3	0	7.696536000675405E+002	4.8124266E-001	-2.7038385E+002
3	0	7.701536000549095E+002	4.7998142E-001	-2.7035559E+002
3	0	7.706536000422784E+002	4.7863248E-001	-2.7036618E+002
3	0	7.711536000296474E+002	4.7717464E-001	-2.7037326E+002
3	0	7.716536000170163E+002	4.7556564E-001	-2.7036972E+002
3	0	7.721536000043852E+002	4.7379240E-001	-2.7037677E+002
3	0	7.726535999917542E+002	4.7225529E-001	-2.7038031E+002
3	0	7.731535999791231E+002	4.7207066E-001	-2.7039093E+002
3	0	7.736535999664920E+002	4.7215813E-001	-2.7035559E+002
3	0	7.741535999538610E+002	4.7232306E-001	-2.7039801E+002
3	0	7.746535999412299E+002	4.7270113E-001	-2.7036972E+002
3	0	7.751535999285989E+002	4.7320384E-001	-2.7038031E+002
3	0	7.756535999159678E+002	4.7343591E-001	-2.7038385E+002
3	0	7.761535999033367E+002	4.7330528E-001	-2.7038742E+002
3	0	7.766535998907057E+002	4.7304553E-001	-2.7039801E+002
3	0	7.771535998780746E+002	4.7370091E-001	-2.7037326E+002
3	0	7.776535998654435E+002	4.7425216E-001	-2.7038031E+002
3	0	7.781535998528125E+002	4.7446433E-001	-2.7037326E+002
3	0	7.786535998401814E+002	4.7448114E-001	-2.7037326E+002
3	0	7.791535998275504E+002	4.7420841E-001	-2.7037326E+002
3	0	7.796535998149193E+002	4.7369727E-001	-2.7038385E+002
3	0	7.801535998022882E+002	4.7273079E-001	-2.7038031E+002
3	0	7.806535997896572E+002	4.7169662E-001	-2.7038385E+002
3	0	7.811535997770261E+002	4.7149983E-001	-2.7035913E+002
3	0	7.816535997643950E+002	4.7122648E-001	-2.7035913E+002
3	0	7.821535997517640E+002	4.7056663E-001	-2.7038742E+002
3	0	7.826535997391329E+002	4.6977806E-001	-2.7036618E+002
3	0	7.831535997265019E+002	4.6873197E-001	-2.7037677E+002
3	0	7.836535997138708E+002	4.6735027E-001	-2.7039447E+002
3	0	7.841535997012397E+002	4.6556115E-001	-2.7037326E+002
3	0	7.846535996886087E+002	4.6368656E-001	-2.7038385E+002
3	0	7.851535996759776E+002	4.6277335E-001	-2.7037326E+002
3	0	7.856535996633465E+002	4.6178630E-001	-2.7036972E+002
3	0	7.861535996507155E+002	4.6057990E-001	-2.7036972E+002
3	0	7.866535996380844E+002	4.5928332E-001	-2.7038385E+002
3	0	7.871535996254534E+002	4.5778322E-001	-2.7039093E+002
3	0	7.876535996128223E+002	4.5613375E-001	-2.7040506E+002
3	0	7.881535996001912E+002	4.5406237E-001	-2.7036267E+002
3	0	7.886535995875602E+002	4.5198497E-001	-2.7039093E+002
3	0	7.891535995749291E+002	4.5079270E-001	-2.7037326E+002
3	0	7.896535995622980E+002	4.4951373E-001	-2.7037677E+002
3	0	7.901535995496670E+002	4.4803220E-001	-2.7037326E+002
3	0	7.906535995370359E+002	4.4653761E-001	-2.7038385E+002
3	0	7.911535995244049E+002	4.4494203E-001	-2.7038031E+002
3	0	7.916535995117738E+002	4.4324768E-001	-2.7037677E+002
3	0	7.921535994991427E+002	4.4142434E-001	-2.7036972E+002
3	0	7.926535994865117E+002	4.3981776E-001	-2.7040860E+002
3	0	7.931535994738806E+002	4.3929148E-001	-2.7034497E+002
3	0	7.936535994612495E+002	4.3908978E-001	-2.7038031E+002
3	0	7.941535994486185E+002	4.3895081E-001	-2.7036972E+002
3	0	7.946535994359874E+002	4.3900812E-001	-2.7037326E+002
3	0	7.951535994233564E+002	4.3914801E-001	-2.7037326E+002
3	0	7.956535994107253E+002	4.3906066E-001	-2.7039801E+002
3	0	7.961535993980942E+002	4.3862718E-001	-2.7037326E+002
3	0	7.966535993854632E+002	4.3811852E-001	-2.7039801E+002
3	0	7.971535993728321E+002	4.3835294E-001	-2.7039093E+002
3	0	7.976535993602010E+002	4.3846214E-001	-2.7038385E+002
3	0	7.981535993475700E+002	4.3835568E-001	-2.7038742E+002
3	0	7.986535993349389E+002	4.3820608E-001	-2.7034851E+002
3	0	7.991535993223079E+002	4.3794128E-001	-2.7035913E+002
3	0	7.996535993096768E+002	4.3743739E-001	-2.7036267E+002
3	0	8.001535992970457E+002	4.3654388E-001	-2.7038385E+002
3	0	8.006535992844147E+002	4.3555126E-001	-2.7037677E+002
3	0	8.011535992717836E+002	4.3528119E-001	-2.7037326E+002
3	0	8.016535992591525E+002	4.3493000E-001	-2.7038742E+002
3	0	8.021535992465215E+002	4.3433294E-001	-2.7036267E+002
3	0	8.026535992338904E+002	4.3362507E-001	-2.7038031E+002
3	0	8.031535992212594E+002	4.3278995E-001	-2.7035205E+002
3	0	8.036535992086283E+002	4.3180221E-001	-2.7039801E+002
3	0	8.041535991959972E+002	4.3047044E-001	-2.7036267E+002
3	0	8.046535991833662E+002	4.2909133E-001	-2.7039093E+002
3	0	8.051535991707351E+002	4.2843440E-001	-2.7038742E+002
3	0	8.056535991581040E+002	4.2778021E-001	-2.7039801E+002
3	0	8.061535991454730E+002	4.2696452E-001	-2.7039093E+002
3	0	8.066535991328419E+002	4.2609096E-001	-2.7036972E+002
3	0	8.071535991202109E+002	4.2512047E-001	-2.7038742E+002
3	0	8.076535991075798E+002	4.2396975E-001	-2.7036972E+002
3	0	8.081535990949487E+002	4.2254993E-001	-2.7038742E+002
3	0	8.086535990823177E+002	4.2115203E-001	-2.7037677E+002
3	0	8.091535990696866E+002	4.2046443E-001	-2.7038742E+002
3	0	8.096535990570555E+002	4.1975427E-001	-2.7040155E+002
3	0	8.101535990444245E+002	4.1889289E-001	-2.7037677E+002
3	0	8.106535990317934E+002	4.1800544E-001	-2.7038031E+002
3	0	8.111535990191624E+002	4.1705316E-001	-2.7038031E+002
3	0	8.116535990065313E+002	4.1604695E-001	-2.7037677E+002
3	0	8.121535989939002E+002	4.1490221E-001	-2.7038742E+002
3	0	8.126535989812692E+002	4.1389191E-001	-2.7038385E+002
3	0	8.131535989686381E+002	4.1374928E-001	-2.7036618E+002
3	0	8.136535989560070E+002	4.1376385E-001	-2.7038031E+002
3	0	8.141535989433760E+002	4.1379353E-001	-2.7038031E+002
3	0	8.146535989307449E+002	4.1392723E-001	-2.7036267E+002
3	0	8.151535989181139E+002	4.1408539E-001	-2.7037677E+002
3	0	8.156535989054828E+002	4.1409552E-001	-2.7038742E+002
3	0	8.161535988928517E+002	4.1395363E-001	-2.7038385E+002
3	0	8.166535988802207E+002	4.1370305E-001	-2.7035559E+002
3	0	8.171535988675896E+002	4.1393557E-001	-2.7038742E+002
3	0	8.176535988549585E+002	4.1412172E-001	-2.7038742E+002
3	0	8.181535988423275E+002	4.1409481E-001	-2.7035205E+002
3	0	8.186535988296964E+002	4.1399735E-001	-2.7039093E+002
3	0	8.191535988170654E+002	4.1375440E-001	-2.7038385E+002
3	0	8.196535988044343E+002	4.1333991E-001	-2.7039801E+002
3	0	8.201535987918032E+002	4.1270715E-001	-2.7037326E+002
3	0	8.206535987791722E+002	4.1201776E-001	-2.7038031E+002
3	0	8.211535987665411E+002	4.1185725E-001	-2.7036972E+002
3	0	8.216535987539100E+002	4.1163117E-001	-2.7037326E+002
3	0	8.221535987412790E+002	4.1124022E-001	-2.7037677E+002
3	0	8.226535987286479E+002	4.1078690E-001	-2.7038385E+002
3	0	8.231535987160169E+002	4.1032317E-001	-2.7039093E+002
3	0	8.236535987033858E+002	4.0974459E-001	-2.7036972E+002
3	0	8.241535986907547E+002	4.0888807E-001	-2.7034851E+002
3	0	8.246535986781237E+002	4.0798673E-001	-2.7036618E+002
3	0	8.251535986654926E+002	4.0762618E-001	-2.7040506E+002
3	0	8.256535986528615E+002	4.0724963E-001	-2.7038385E+002
3	0	8.261535986402305E+002	4.0675780E-001	-2.7038742E+002
3	0	8.266535986275994E+002	4.0622923E-001	-2.7038385E+002
3	0	8.271535986149684E+002	4.0565065E-001	-2.7038031E+002
3	0	8.276535986023373E+002	4.0497881E-001	-2.7037326E+002
3	0	8.281535985897062E+002	4.0411901E-001	-2.7039801E+002
3	0	8.286535985770752E+002	4.0326178E-001	-2.7038742E+002
3	0	8.291535985644441E+002	4.0289646E-001	-2.7035559E+002
3	0	8.296535985518130E+002	4.0257007E-001	-2.7036972E+002
3	0	8.301535985391820E+002	4.0209955E-001	-2.7039093E+002
3	0	8.306535985265509E+002	4.0157244E-001	-2.7037326E+002
3	0	8.311535985139199E+002	4.0101749E-001	-2.7035913E+002
3	0	8.316535985012888E+002	4.0042073E-001	-2.7035205E+002
3	0	8.321535984886577E+002	3.9969978E-001	-2.7037677E+002
3	0	8.326535984760267E+002	3.9905953E-001	-2.7040155E+002
3	0	8.331535984633956E+002	3.9901835E-001	-2.7036618E+002
3	0	8.336535984507645E+002	3.9911669E-001	-2.7041214E+002
3	0	8.341535984381335E+002	3.9922705E-001	-2.7036972E+002
3	0	8.346535984255024E+002	3.9942378E-001	-2.7037677E+002
3	0	8.351535984128714E+002	3.9968503E-001	-2.7037326E+002
3	0	8.356535984002403E+002	3.9977601E-001	-2.7036267E+002
3	0	8.361535983876092E+002	3.9970171E-001	-2.7038031E+002
3	0	8.366535983749782E+002	3.9951336E-001	-2.7036972E+002
3	0	8.371535983623471E+002	3.9973548E-001	-2.7038385E+002
3	0	8.376535983497160E+002	3.9986831E-001	-2.7039093E+002
3	0	8.381535983370850E+002	3.9983132E-001	-2.7037677E+002
3	0	8.386535983244539E+002	3.9971891E-001	-2.7039801E+002
3	0	8.391535983118229E+002	3.9946207E-001	-2.7037326E+002
3	0	8.396535982991918E+002	3.9901757E-001	-2.7040860E+002
3	0	8.401535982865607E+002	3.9890823E-001	-2.7036618E+002
3	0	8.406535982739297E+002	3.9863783E-001	-2.7040506E+002
3	0	8.411535982612986E+002	3.9862838E-001	-2.7039447E+002
3	0	8.416535982486675E+002	3.9858499E-001	-2.7037677E+002
3	0	8.421535982360365E+002	3.9830142E-001	-2.7035559E+002
3	0	8.426535982234054E+002	3.9798972E-001	-2.7039093E+002
3	0	8.431535982107744E+002	3.9758947E-001	-2.7037677E+002
3	0	8.436535981981433E+002	3.9704984E-001	-2.7038385E+002
3	0	8.441535981855122E+002	3.9632618E-001	-2.7039447E+002
3	0	8.446535981728812E+002	3.9566585E-001	-2.7036267E+002
3	0	8.451535981602501E+002	3.9548385E-001	-2.7037677E+002
3	0	8.456535981476191E+002	3.9536744E-001	-2.7040860E+002
3	0	8.461535981349880E+002	3.9505723E-001	-2.7037677E+002
3	0	8.466535981223569E+002	3.9464110E-001	-2.7036267E+002
3	0	8.471535981097259E+002	3.9419881E-001	-2.7036267E+002
3	0	8.476535980970948E+002	3.9367855E-001	-2.7036267E+002
3	0	8.481535980844637E+002	3.9299557E-001	-2.7038742E+002
3	0	8.486535980718327E+002	3.9233229E-001	-2.7037677E+002
3	0	8.491535980592016E+002	3.9209470E-001	-2.7038385E+002
3	0	8.496535980465706E+002	3.9190981E-001	-2.7038031E+002
3	0	8.501535980339395E+002	3.9154181E-001	-2.7040506E+002
3	0	8.506535980213084E+002	3.9109313E-001	-2.7037326E+002
3	0	8.511535980086774E+002	3.9062002E-001	-2.7039801E+002
3	0	8.516535979960463E+002	3.9008108E-001	-2.7036267E+002
3	0	8.521535979834152E+002	3.8948044E-001	-2.7037677E+002
3	0	8.526535979707842E+002	3.8898212E-001	-2.7037677E+002
3	0	8.531535979581531E+002	3.8899404E-001	-2.7036618E+002
3	0	8.536535979455221E+002	3.8920128E-001	-2.7040155E+002
3	0	8.541535979328910E+002	3.8932541E-001	-2.7039801E+002
3	0	8.546535979202599E+002	3.8944370E-001	-2.7037677E+002
3	0	8.551535979076289E+002	3.8957345E-001	-2.7037326E+002
3	0	8.556535978949978E+002	3.8970816E-001	-2.7038031E+002
3	0	8.561535978823667E+002	3.8971886E-001	-2.7041214E+002
3	0	8.566535978697357E+002	3.8971201E-001	-2.7038742E+002
3	0	8.571535978571046E+002	3.9004177E-001	-2.7038385E+002
3	0	8.576535978444736E+002	3.9038697E-001	-2.7038742E+002
3	0	8.581535978318425E+002	3.9050180E-001	-2.7036267E+002
3	0	8.586535978192114E+002	3.9050066E-001	-2.7035913E+002
3	0	8.591535978065804E+002	3.9043111E-001	-2.7036267E+002
3	0	8.596535977939493E+002	3.9020070E-001	-2.7037677E+002
3	0	8.601535977813182E+002	3.8986683E-001	-2.7038742E+002
3	0	8.606535977686872E+002	3.8946897E-001	-2.7036618E+002
3	0	8.611535977560561E+002	3.8944367E-001	-2.7038031E+002
3	0	8.616535977434251E+002	3.8945386E-001	-2.7039447E+002
3	0	8.621535977307940E+002	3.8928229E-001	-2.7039801E+002
3	0	8.626535977181629E+002	3.8899738E-001	-2.7037326E+002
3	0	8.631535977055319E+002	3.8872743E-001	-2.7038742E+002
3	0	8.636535976929008E+002	3.8838473E-001	-2.7038031E+002
3	0	8.641535976802697E+002	3.8788739E-001	-2.7038385E+002
3	0	8.646535976676387E+002	3.8732731E-001	-2.7038031E+002
3	0	8.651535976550076E+002	3.8714457E-001	-2.7037677E+002
3	0	8.656535976423766E+002	3.8707507E-001	-2.7035559E+002
3	0	8.661535976297455E+002	3.8683188E-001	-2.7036618E+002
3	0	8.666535976171144E+002	3.8647211E-001	-2.7035559E+002
3	0	8.671535976044834E+002	3.8611096E-001	-2.7040506E+002
3	0	8.676535975918523E+002	3.8560116E-001	-2.7038385E+002
3	0	8.681535975792212E+002	3.8498646E-001	-2.7037326E+002
3	0	8.686535975665902E+002	3.8441083E-001	-2.7038031E+002
3	0	8.691535975539591E+002	3.8420832E-001	-2.7036972E+002
3	0	8.696535975413281E+002	3.8404822E-001	-2.7038385E+002
3	0	8.701535975286970E+002	3.8378140E-001	-2.7034497E+002
3	0	8.706535975160659E+002	3.8343638E-001	-2.7039093E+002
3	0	8.711535975034349E+002	3.8307539E-001	-2.7039447E+002
3	0	8.716535974908038E+002	3.8264823E-001	-2.7041214E+002
3	0	8.721535974781727E+002	3.8207096E-001	-2.7036618E+002
3	0	8.726535974655417E+002	3.8154560E-001	-2.7038031E+002
3	0	8.731535974529106E+002	3.8147888E-001	-2.7037326E+002
3	0	8.736535974402796E+002	3.8157275E-001	-2.7038385E+002
3	0	8.741535974276485E+002	3.8154075E-001	-2.7037326E+002
3	0	8.746535974150174E+002	3.8142949E-001	-2.7041568E+002
3	0	8.751535974023864E+002	3.8128644E-001	-2.7036972E+002
3	0	8.756535973897553E+002	3.8104987E-001	-2.7038385E+002
3	0	8.761535973771242E+002	3.8065732E-001	-2.7038742E+002
3	0	8.766535973644932E+002	3.8027143E-001	-2.7038031E+002
3	0	8.771535973518621E+002	3.8018781E-001	-2.7038031E+002
3	0	8.776535973392311E+002	3.8017443E-001	-2.7036267E+002
3	0	8.781535973266000E+002	3.8004041E-001	-2.7038031E+002
3	0	8.786535973139689E+002	3.7981051E-001	-2.7039801E+002
3	0	8.791535973013379E+002	3.7958249E-001	-2.7038742E+002
3	0	8.796535972887068E+002	3.7923849E-001	-2.7035205E+002
3	0	8.801535972760757E+002	3.7877032E-001	-2.7038742E+002
3	0	8.806535972634447E+002	3.7828180E-001	-2.7037326E+002
3	0	8.811535972508136E+002	3.7813368E-001	-2.7041568E+002
3	0	8.816535972381826E+002	3.7805331E-001	-2.7036618E+002
3	0	8.821535972255515E+002	3.7786421E-001	-2.7035913E+002
3	0	8.826535972129204E+002	3.7758851E-001	-2.7036972E+002
3	0	8.831535972002894E+002	3.7731293E-001	-2.7038385E+002
3	0	8.836535971876583E+002	3.7696603E-001	-2.7038031E+002
3	0	8.841535971750272E+002	3.7650421E-001	-2.7038385E+002
3	0	8.846535971623962E+002	3.7599683E-001	-2.7035559E+002
3	0	8.851535971497651E+002	3.7582713E-001	-2.7038385E+002
3	0	8.856535971371341E+002	3.7576029E-001	-2.7038742E+002
3	0	8.861535971245030E+002	3.7557462E-001	-2.7039447E+002
3	0	8.866535971118719E+002	3.7530971E-001	-2.7038031E+002
3	0	8.871535970992409E+002	3.7500578E-001	-2.7038031E+002
3	0	8.876535970866098E+002	3.7464699E-001	-2.7038031E+002
3	0	8.881535970739787E+002	3.7416846E-001	-2.7038742E+002
3	0	8.886535970613477E+002	3.7368220E-001	-2.7036972E+002
3	0	8.891535970487166E+002	3.7350678E-001	-2.7039447E+002
3	0	8.896535970360856E+002	3.7344632E-001	-2.7038385E+002
3	0	8.901535970234545E+002	3.7328330E-001	-2.7038742E+002
3	0	8.906535970108234E+002	3.7304023E-001	-2.7038742E+002
3	0	8.911535969981924E+002	3.7278104E-001	-2.7036618E+002
3	0	8.916535969855613E+002	3.7241957E-001	-2.7038031E+002
3	0	8.921535969729302E+002	3.7199706E-001	-2.7036972E+002
3	0	8.926535969602992E+002	3.7159857E-001	-2.7037677E+002
3	0	8.931535969476681E+002	3.7158445E-001	-2.7039801E+002
3	0	8.936535969350371E+002	3.7174723E-001	-2.7037326E+002
3	0	8.941535969224060E+002	3.7187323E-001	-2.7039093E+002
3	0	8.946535969097749E+002	3.7197754E-001	-2.7037326E+002
3	0	8.951535968971439E+002	3.7215441E-001	-2.7038031E+002
3	0	8.956535968845128E+002	3.7233767E-001	-2.7039093E+002
3	0	8.961535968718817E+002	3.7241942E-001	-2.7038031E+002
3	0	8.966535968592507E+002	3.7246913E-001	-2.7036972E+002
3	0	8.971535968466196E+002	3.7279767E-001	-2.7035913E+002
3	0	8.976535968339886E+002	3.7315491E-001	-2.7040506E+002
3	0	8.981535968213575E+002	3.7336913E-001	-2.7038031E+002
3	0	8.981539968213474E+002	3.7335148E-001	-2.7038742E+002