EC-Lab ASCII FILE
Nb header lines : 55                          

Open Circuit Voltage

Run on channel : 1 (SN 81504)
User : 
CE vs. WE compliance from -10 V to 10 V
Electrode connection : standard
Potential control : Ewe
Ewe ctrl range : min = -2.50 V, max = 2.50 V
Safety Limits :
	Do not start on E overload
Acquisition started on : 05/10/2026 10:21:59.442
Loaded Setting File :  C:\PEM-WE_measurements\2026\372_IV_IV IrOx, 5 min Pt, 30 min C, etched cathode\new station\Loopeis new\1,46 V different time gaps closed cell\Loopeis 1,46V_180s_5_PEIS from 65Hz to 10Hz.mps
Saved on :
	File : L_30_Loopeis 1,46V_180s_5_PEIS from 65Hz to 10Hz_20_OCV_C01.mpr
	Directory : C:\PEM-WE_measurements\2026\372_IV_IV IrOx, 5 min Pt, 30 min C, etched cathode\new station\Loopeis new\1,46 V different time gaps closed cell\
	Host : 192.168.0.2
Device : SP-150e (SN .005491)
Address : 192.168.0.91
EC-LAB for windows v11.71 (software)
Internet server v28.00 (firmware)
Command interpretor v14.01 (firmware)
Electrode material : 
Initial state : 
Electrolyte : 
Comments : 
Current amplifier : SP-150eB-20A
Electrode surface area : 0.001 cm²
Characteristic mass : 0.001 g
Equivalent Weight : 0.000 g/eq.
Density : 0.000 g/cm3
Volume (V) : 0.001 cm³
Record Analogic IN 1
Text export
   Mode : Standard
   Time format : Elapsed
Cycle Definition : Charge/Discharge alternance
External device configuration :
   device type : Temperature Probe
   device name : Other
   Analog IN 1 : 
      unit : T/Â°C
      max : 100.000 at 2.000 V
      min : 0.000 at 1.460 V
tR (h:m:s)          0:03:0.0000         
dER/dt (mV/h)       1.0                 
record              <Ewe>               
dER (mV)            10.00               
dtR (s)             0.5000              
E range min (V)     -2.500              
E range max (V)     2.500               

mode	error	time/s	<Ewe/V>	Analog IN 1/V	
3	0	2.297998574872472E+003	1.2919782E+000	-2.7040155E+002
3	0	2.298498574859841E+003	1.2987523E+000	-2.7038742E+002
3	0	2.298998574847210E+003	1.2917145E+000	-2.7038385E+002
3	0	2.299498574834579E+003	1.2763805E+000	-2.7035913E+002
3	0	2.299998574821948E+003	1.2496991E+000	-2.7038385E+002
3	0	2.300498574809317E+003	1.2051629E+000	-2.7038742E+002
3	0	2.300998574796686E+003	1.1210334E+000	-2.7036267E+002
3	0	2.301498574784055E+003	8.2517195E-001	-2.7035205E+002
3	0	2.301998574771424E+003	4.9279979E-001	-2.7035205E+002
3	0	2.302498574758793E+003	3.9792144E-001	-2.7036972E+002
3	0	2.302998574746161E+003	3.7692359E-001	-2.7037677E+002
3	0	2.303498574733530E+003	3.7317988E-001	-2.7037677E+002
3	0	2.303998574720899E+003	3.7300533E-001	-2.7038385E+002
3	0	2.304498574708268E+003	3.7364852E-001	-2.7038742E+002
3	0	2.304998574695637E+003	3.7404814E-001	-2.7039801E+002
3	0	2.305498574683006E+003	3.7414929E-001	-2.7038742E+002
3	0	2.305998574670375E+003	3.7417862E-001	-2.7038031E+002
3	0	2.306498574657744E+003	3.7418678E-001	-2.7038031E+002
3	0	2.306998574645113E+003	3.7412980E-001	-2.7037677E+002
3	0	2.307498574632482E+003	3.7397206E-001	-2.7035913E+002
3	0	2.307998574619851E+003	3.7396383E-001	-2.7038031E+002
3	0	2.308498574607220E+003	3.7436461E-001	-2.7039447E+002
3	0	2.308998574594589E+003	3.7467366E-001	-2.7038385E+002
3	0	2.309498574581958E+003	3.7485942E-001	-2.7036618E+002
3	0	2.309998574569327E+003	3.7500378E-001	-2.7036618E+002
3	0	2.310498574556696E+003	3.7521529E-001	-2.7037677E+002
3	0	2.310998574544064E+003	3.7530461E-001	-2.7036972E+002
3	0	2.311498574531433E+003	3.7525782E-001	-2.7036618E+002
3	0	2.311998574518802E+003	3.7529355E-001	-2.7037677E+002
3	0	2.312498574506171E+003	3.7570918E-001	-2.7037677E+002
3	0	2.312998574493540E+003	3.7601796E-001	-2.7037677E+002
3	0	2.313498574480909E+003	3.7621316E-001	-2.7039093E+002
3	0	2.313998574468278E+003	3.7637895E-001	-2.7035913E+002
3	0	2.314498574455647E+003	3.7654442E-001	-2.7038742E+002
3	0	2.314998574443016E+003	3.7659860E-001	-2.7038385E+002
3	0	2.315498574430385E+003	3.7654781E-001	-2.7036267E+002
3	0	2.315998574417754E+003	3.7654063E-001	-2.7038031E+002
3	0	2.316498574405123E+003	3.7688109E-001	-2.7037677E+002
3	0	2.316998574392492E+003	3.7717244E-001	-2.7038742E+002
3	0	2.317498574379861E+003	3.7737495E-001	-2.7039801E+002
3	0	2.317998574367230E+003	3.7752700E-001	-2.7040506E+002
3	0	2.318498574354599E+003	3.7761095E-001	-2.7035205E+002
3	0	2.318998574341967E+003	3.7761566E-001	-2.7036972E+002
3	0	2.319498574329336E+003	3.7750709E-001	-2.7039093E+002
3	0	2.319998574316705E+003	3.7747857E-001	-2.7038385E+002
3	0	2.320498574304074E+003	3.7782791E-001	-2.7034851E+002
3	0	2.320998574291443E+003	3.7815014E-001	-2.7039447E+002
3	0	2.321498574278812E+003	3.7844381E-001	-2.7037677E+002
3	0	2.321998574266181E+003	3.7873131E-001	-2.7033789E+002
3	0	2.322498574253550E+003	3.7914205E-001	-2.7037677E+002
3	0	2.322998574240919E+003	3.7946242E-001	-2.7039801E+002
3	0	2.323498574228288E+003	3.7970603E-001	-2.7037677E+002
3	0	2.323998574215657E+003	3.8002345E-001	-2.7037326E+002
3	0	2.324498574203026E+003	3.8073537E-001	-2.7040506E+002
3	0	2.324998574190395E+003	3.8137987E-001	-2.7036972E+002
3	0	2.325498574177764E+003	3.8190949E-001	-2.7036267E+002
3	0	2.325998574165133E+003	3.8234082E-001	-2.7037677E+002
3	0	2.326498574152502E+003	3.8270068E-001	-2.7040506E+002
3	0	2.326998574139870E+003	3.8292274E-001	-2.7039801E+002
3	0	2.327498574127239E+003	3.8297862E-001	-2.7038031E+002
3	0	2.327998574114608E+003	3.8304082E-001	-2.7039801E+002
3	0	2.328498574101977E+003	3.8339770E-001	-2.7038031E+002
3	0	2.328998574089346E+003	3.8370621E-001	-2.7039447E+002
3	0	2.329498574076715E+003	3.8391668E-001	-2.7037677E+002
3	0	2.329998574064084E+003	3.8398084E-001	-2.7038742E+002
3	0	2.330498574051453E+003	3.8397318E-001	-2.7036972E+002
3	0	2.330998574038822E+003	3.8395023E-001	-2.7038742E+002
3	0	2.331498574026191E+003	3.8384518E-001	-2.7036267E+002
3	0	2.331998574013560E+003	3.8373521E-001	-2.7039093E+002
3	0	2.332498574000929E+003	3.8395569E-001	-2.7037677E+002
3	0	2.332998573988298E+003	3.8403869E-001	-2.7037326E+002
3	0	2.333498573975667E+003	3.8401410E-001	-2.7036972E+002
3	0	2.333998573963036E+003	3.8396683E-001	-2.7036972E+002
3	0	2.334498573950405E+003	3.8393447E-001	-2.7038385E+002
3	0	2.334998573937773E+003	3.8378167E-001	-2.7038031E+002
3	0	2.335498573925142E+003	3.8351345E-001	-2.7038385E+002
3	0	2.335998573912511E+003	3.8327885E-001	-2.7037677E+002
3	0	2.336498573899880E+003	3.8338354E-001	-2.7036972E+002
3	0	2.336998573887249E+003	3.8336229E-001	-2.7037677E+002
3	0	2.337498573874618E+003	3.8328585E-001	-2.7035913E+002
3	0	2.337998573861987E+003	3.8317120E-001	-2.7038031E+002
3	0	2.338498573849356E+003	3.8305765E-001	-2.7039093E+002
3	0	2.338998573836725E+003	3.8286793E-001	-2.7038742E+002
3	0	2.339498573824094E+003	3.8256010E-001	-2.7038031E+002
3	0	2.339998573811463E+003	3.8227454E-001	-2.7041919E+002
3	0	2.340498573798832E+003	3.8235241E-001	-2.7038031E+002
3	0	2.340998573786201E+003	3.8236979E-001	-2.7039801E+002
3	0	2.341498573773570E+003	3.8237932E-001	-2.7037326E+002
3	0	2.341998573760939E+003	3.8245541E-001	-2.7036618E+002
3	0	2.342498573748308E+003	3.8256511E-001	-2.7036267E+002
3	0	2.342998573735676E+003	3.8265800E-001	-2.7037326E+002
3	0	2.343498573723045E+003	3.8266304E-001	-2.7038385E+002
3	0	2.343998573710414E+003	3.8275954E-001	-2.7037326E+002
3	0	2.344498573697783E+003	3.8318187E-001	-2.7038031E+002
3	0	2.344998573685152E+003	3.8346401E-001	-2.7041919E+002
3	0	2.345498573672521E+003	3.8363934E-001	-2.7038742E+002
3	0	2.345998573659890E+003	3.8377541E-001	-2.7040155E+002
3	0	2.346498573647259E+003	3.8386145E-001	-2.7039801E+002
3	0	2.346998573634628E+003	3.8384601E-001	-2.7036972E+002
3	0	2.347498573621997E+003	3.8366139E-001	-2.7037677E+002
3	0	2.347998573609366E+003	3.8348517E-001	-2.7037326E+002
3	0	2.348498573596735E+003	3.8360268E-001	-2.7036972E+002
3	0	2.348998573584104E+003	3.8361973E-001	-2.7038742E+002
3	0	2.349498573571473E+003	3.8356200E-001	-2.7037677E+002
3	0	2.349998573558842E+003	3.8347855E-001	-2.7038385E+002
3	0	2.350498573546211E+003	3.8336256E-001	-2.7035205E+002
3	0	2.350998573533579E+003	3.8319319E-001	-2.7034497E+002
3	0	2.351498573520948E+003	3.8284042E-001	-2.7036972E+002
3	0	2.351998573508317E+003	3.8254222E-001	-2.7039801E+002
3	0	2.352498573495686E+003	3.8256398E-001	-2.7038742E+002
3	0	2.352998573483055E+003	3.8249430E-001	-2.7036618E+002
3	0	2.353498573470424E+003	3.8234371E-001	-2.7038031E+002
3	0	2.353998573457793E+003	3.8218150E-001	-2.7035913E+002
3	0	2.354498573445162E+003	3.8199025E-001	-2.7038742E+002
3	0	2.354998573432531E+003	3.8171735E-001	-2.7037677E+002
3	0	2.355498573419900E+003	3.8131389E-001	-2.7038385E+002
3	0	2.355998573407269E+003	3.8094914E-001	-2.7038031E+002
3	0	2.356498573394638E+003	3.8090688E-001	-2.7039093E+002
3	0	2.356998573382007E+003	3.8074639E-001	-2.7038742E+002
3	0	2.357498573369376E+003	3.8055280E-001	-2.7038742E+002
3	0	2.357998573356745E+003	3.8035238E-001	-2.7037326E+002
3	0	2.358498573344114E+003	3.8014793E-001	-2.7036618E+002
3	0	2.358998573331482E+003	3.7984046E-001	-2.7036618E+002
3	0	2.359498573318851E+003	3.7942722E-001	-2.7039447E+002
3	0	2.359998573306220E+003	3.7905163E-001	-2.7036618E+002
3	0	2.360498573293589E+003	3.7901232E-001	-2.7038031E+002
3	0	2.360998573280958E+003	3.7887979E-001	-2.7039093E+002
3	0	2.361498573268327E+003	3.7877312E-001	-2.7035559E+002
3	0	2.361998573255696E+003	3.7869117E-001	-2.7039801E+002
3	0	2.362498573243065E+003	3.7868145E-001	-2.7038031E+002
3	0	2.362998573230434E+003	3.7865952E-001	-2.7038385E+002
3	0	2.363498573217803E+003	3.7860638E-001	-2.7039801E+002
3	0	2.363998573205172E+003	3.7865314E-001	-2.7037326E+002
3	0	2.364498573192541E+003	3.7904987E-001	-2.7038031E+002
3	0	2.364998573179910E+003	3.7934005E-001	-2.7040506E+002
3	0	2.365498573167279E+003	3.7955663E-001	-2.7035913E+002
3	0	2.365998573154648E+003	3.7968904E-001	-2.7037326E+002
3	0	2.366498573142017E+003	3.7976187E-001	-2.7037677E+002
3	0	2.366998573129385E+003	3.7969869E-001	-2.7037677E+002
3	0	2.367498573116754E+003	3.7947437E-001	-2.7035913E+002
3	0	2.367998573104123E+003	3.7929150E-001	-2.7040860E+002
3	0	2.368498573091492E+003	3.7938663E-001	-2.7039447E+002
3	0	2.368998573078861E+003	3.7933171E-001	-2.7036972E+002
3	0	2.369498573066230E+003	3.7923989E-001	-2.7035205E+002
3	0	2.369998573053599E+003	3.7909302E-001	-2.7036972E+002
3	0	2.370498573040968E+003	3.7895319E-001	-2.7041214E+002
3	0	2.370998573028337E+003	3.7870201E-001	-2.7034851E+002
3	0	2.371498573015706E+003	3.7833139E-001	-2.7039801E+002
3	0	2.371998573003075E+003	3.7800416E-001	-2.7038385E+002
3	0	2.372498572990444E+003	3.7796715E-001	-2.7034851E+002
3	0	2.372998572977813E+003	3.7782183E-001	-2.7037326E+002
3	0	2.373498572965182E+003	3.7761864E-001	-2.7039093E+002
3	0	2.373998572952551E+003	3.7740645E-001	-2.7037326E+002
3	0	2.374498572939920E+003	3.7719125E-001	-2.7038385E+002
3	0	2.374998572927288E+003	3.7686595E-001	-2.7038031E+002
3	0	2.375498572914657E+003	3.7647930E-001	-2.7038031E+002
3	0	2.375998572902026E+003	3.7609771E-001	-2.7038742E+002
3	0	2.376498572889395E+003	3.7601700E-001	-2.7039093E+002
3	0	2.376998572876764E+003	3.7584820E-001	-2.7037677E+002
3	0	2.377498572864133E+003	3.7563837E-001	-2.7039801E+002
3	0	2.377998572851502E+003	3.7540805E-001	-2.7038385E+002
3	0	2.378498572838871E+003	3.7515390E-001	-2.7039447E+002
3	0	2.378998572826240E+003	3.7479529E-001	-2.7035205E+002
3	0	2.379498572813609E+003	3.7432489E-001	-2.7039093E+002
3	0	2.379998572800978E+003	3.7392411E-001	-2.7036618E+002
3	0	2.380498572788347E+003	3.7382880E-001	-2.7038031E+002
3	0	2.380998572775716E+003	3.7366328E-001	-2.7038742E+002
3	0	2.381498572763085E+003	3.7351841E-001	-2.7036618E+002
3	0	2.381998572750454E+003	3.7341398E-001	-2.7038742E+002
3	0	2.382498572737823E+003	3.7335265E-001	-2.7036618E+002
3	0	2.382998572725191E+003	3.7328878E-001	-2.7037326E+002
3	0	2.383498572712560E+003	3.7314162E-001	-2.7038031E+002
3	0	2.383998572699929E+003	3.7309927E-001	-2.7037677E+002
3	0	2.384498572687298E+003	3.7338138E-001	-2.7038742E+002
3	0	2.384998572674667E+003	3.7358168E-001	-2.7037677E+002
3	0	2.385498572662036E+003	3.7371805E-001	-2.7036618E+002
3	0	2.385998572649405E+003	3.7380186E-001	-2.7038031E+002
3	0	2.386498572636774E+003	3.7380382E-001	-2.7038385E+002
3	0	2.386998572624143E+003	3.7369427E-001	-2.7038031E+002
3	0	2.387498572611512E+003	3.7346810E-001	-2.7038031E+002
3	0	2.387998572598881E+003	3.7322837E-001	-2.7040506E+002
3	0	2.388498572586250E+003	3.7326598E-001	-2.7038385E+002
3	0	2.388998572573619E+003	3.7321430E-001	-2.7040506E+002
3	0	2.389498572560988E+003	3.7311634E-001	-2.7039093E+002
3	0	2.389998572548357E+003	3.7299243E-001	-2.7034497E+002
3	0	2.390498572535726E+003	3.7279350E-001	-2.7038031E+002
3	0	2.390998572523094E+003	3.7248746E-001	-2.7039801E+002
3	0	2.391498572510463E+003	3.7206286E-001	-2.7036267E+002
3	0	2.391998572497832E+003	3.7170169E-001	-2.7039801E+002
3	0	2.392498572485201E+003	3.7162790E-001	-2.7037326E+002
3	0	2.392998572472570E+003	3.7147400E-001	-2.7035913E+002
3	0	2.393498572459939E+003	3.7128529E-001	-2.7036618E+002
3	0	2.393998572447308E+003	3.7106624E-001	-2.7038385E+002
3	0	2.394498572434677E+003	3.7082821E-001	-2.7040506E+002
3	0	2.394998572422046E+003	3.7055326E-001	-2.7038031E+002
3	0	2.395498572409415E+003	3.7010369E-001	-2.7039093E+002
3	0	2.395998572396784E+003	3.6968699E-001	-2.7037326E+002
3	0	2.396498572384153E+003	3.6956400E-001	-2.7036972E+002
3	0	2.396998572371522E+003	3.6937031E-001	-2.7039093E+002
3	0	2.397498572358891E+003	3.6915797E-001	-2.7036618E+002
3	0	2.397998572346260E+003	3.6891741E-001	-2.7039093E+002
3	0	2.398498572333629E+003	3.6867169E-001	-2.7037326E+002
3	0	2.398998572320997E+003	3.6834782E-001	-2.7037326E+002
3	0	2.399498572308366E+003	3.6793026E-001	-2.7039093E+002
3	0	2.399998572295735E+003	3.6753607E-001	-2.7037326E+002
3	0	2.400498572283104E+003	3.6741132E-001	-2.7039093E+002
3	0	2.400998572270473E+003	3.6724740E-001	-2.7036618E+002
3	0	2.401498572257842E+003	3.6709127E-001	-2.7039801E+002
3	0	2.401998572245211E+003	3.6696517E-001	-2.7039093E+002
3	0	2.402498572232580E+003	3.6688522E-001	-2.7035913E+002
3	0	2.402998572219949E+003	3.6677355E-001	-2.7035205E+002
3	0	2.403498572207318E+003	3.6660552E-001	-2.7037326E+002
3	0	2.403998572194687E+003	3.6655384E-001	-2.7038031E+002
3	0	2.404498572182056E+003	3.6682647E-001	-2.7036972E+002
3	0	2.404998572169425E+003	3.6704576E-001	-2.7038742E+002
3	0	2.405498572156794E+003	3.6722103E-001	-2.7035559E+002
3	0	2.405998572144163E+003	3.6735028E-001	-2.7038385E+002
3	0	2.406498572131532E+003	3.6739457E-001	-2.7037326E+002
3	0	2.406998572118900E+003	3.6731216E-001	-2.7038031E+002
3	0	2.407498572106269E+003	3.6709699E-001	-2.7039447E+002
3	0	2.407998572093638E+003	3.6690179E-001	-2.7039093E+002
3	0	2.408498572081007E+003	3.6694923E-001	-2.7037326E+002
3	0	2.408998572068376E+003	3.6690894E-001	-2.7036267E+002
3	0	2.409498572055745E+003	3.6681008E-001	-2.7039801E+002
3	0	2.409998572043114E+003	3.6667725E-001	-2.7037326E+002
3	0	2.410498572030483E+003	3.6649436E-001	-2.7039801E+002
3	0	2.410998572017852E+003	3.6625206E-001	-2.7038385E+002
3	0	2.411498572005221E+003	3.6587051E-001	-2.7036972E+002
3	0	2.411998571992590E+003	3.6554593E-001	-2.7036618E+002
3	0	2.412498571979959E+003	3.6546791E-001	-2.7039093E+002
3	0	2.412998571967328E+003	3.6533505E-001	-2.7037326E+002
3	0	2.413498571954697E+003	3.6516422E-001	-2.7038385E+002
3	0	2.413998571942066E+003	3.6497837E-001	-2.7037677E+002
3	0	2.414498571929435E+003	3.6474138E-001	-2.7036618E+002
3	0	2.414998571916803E+003	3.6441380E-001	-2.7038031E+002
3	0	2.415498571904172E+003	3.6398509E-001	-2.7039093E+002
3	0	2.415998571891541E+003	3.6360046E-001	-2.7039447E+002
3	0	2.416498571878910E+003	3.6347869E-001	-2.7038385E+002
3	0	2.416998571866279E+003	3.6332020E-001	-2.7039093E+002
3	0	2.417498571853648E+003	3.6313322E-001	-2.7035205E+002
3	0	2.417998571841017E+003	3.6293086E-001	-2.7035559E+002
3	0	2.418498571828386E+003	3.6269677E-001	-2.7038031E+002
3	0	2.418998571815755E+003	3.6240679E-001	-2.7037326E+002
3	0	2.419498571803124E+003	3.6198002E-001	-2.7038385E+002
3	0	2.419998571790493E+003	3.6159140E-001	-2.7037677E+002
3	0	2.420498571777862E+003	3.6146823E-001	-2.7038031E+002
3	0	2.420998571765231E+003	3.6132157E-001	-2.7036267E+002
3	0	2.421498571752600E+003	3.6117619E-001	-2.7039801E+002
3	0	2.421998571739969E+003	3.6104286E-001	-2.7036618E+002
3	0	2.422498571727338E+003	3.6095127E-001	-2.7037677E+002
3	0	2.422998571714706E+003	3.6083183E-001	-2.7039093E+002
3	0	2.423498571702075E+003	3.6068559E-001	-2.7038031E+002
3	0	2.423998571689444E+003	3.6059678E-001	-2.7039093E+002
3	0	2.424498571676813E+003	3.6080572E-001	-2.7036618E+002
3	0	2.424998571664182E+003	3.6100942E-001	-2.7038385E+002
3	0	2.425498571651551E+003	3.6119321E-001	-2.7036618E+002
3	0	2.425998571638920E+003	3.6131334E-001	-2.7038031E+002
3	0	2.426498571626289E+003	3.6135876E-001	-2.7036267E+002
3	0	2.426998571613658E+003	3.6130202E-001	-2.7038031E+002
3	0	2.427498571601027E+003	3.6110592E-001	-2.7036267E+002
3	0	2.427998571588396E+003	3.6090013E-001	-2.7035913E+002
3	0	2.428498571575765E+003	3.6091003E-001	-2.7039801E+002
3	0	2.428998571563134E+003	3.6085346E-001	-2.7039447E+002
3	0	2.429498571550503E+003	3.6075485E-001	-2.7035559E+002
3	0	2.429998571537872E+003	3.6060676E-001	-2.7038031E+002
3	0	2.430498571525241E+003	3.6042210E-001	-2.7035913E+002
3	0	2.430998571512609E+003	3.6016569E-001	-2.7041568E+002
3	0	2.431498571499978E+003	3.5979062E-001	-2.7035913E+002
3	0	2.431998571487347E+003	3.5943314E-001	-2.7039093E+002
3	0	2.432498571474716E+003	3.5932121E-001	-2.7037326E+002
3	0	2.432998571462085E+003	3.5916874E-001	-2.7036972E+002
3	0	2.433498571449454E+003	3.5899845E-001	-2.7039093E+002
3	0	2.433998571436823E+003	3.5878950E-001	-2.7037677E+002
3	0	2.434498571424192E+003	3.5854691E-001	-2.7036972E+002
3	0	2.434998571411561E+003	3.5824522E-001	-2.7038031E+002
3	0	2.435498571398930E+003	3.5782325E-001	-2.7039801E+002
3	0	2.435998571386299E+003	3.5741061E-001	-2.7038031E+002
3	0	2.436498571373668E+003	3.5724860E-001	-2.7038031E+002
3	0	2.436998571361037E+003	3.5707766E-001	-2.7034851E+002
3	0	2.437498571348406E+003	3.5688564E-001	-2.7040155E+002
3	0	2.437998571335775E+003	3.5668203E-001	-2.7037326E+002
3	0	2.438498571323144E+003	3.5642147E-001	-2.7036972E+002
3	0	2.438998571310512E+003	3.5610205E-001	-2.7035913E+002
3	0	2.439498571297881E+003	3.5568756E-001	-2.7040506E+002
3	0	2.439998571285250E+003	3.5529801E-001	-2.7036267E+002
3	0	2.440498571272619E+003	3.5514507E-001	-2.7037677E+002
3	0	2.440998571259988E+003	3.5498136E-001	-2.7038031E+002
3	0	2.441498571247357E+003	3.5483158E-001	-2.7038031E+002
3	0	2.441998571234726E+003	3.5469210E-001	-2.7039093E+002
3	0	2.442498571222095E+003	3.5458967E-001	-2.7038385E+002
3	0	2.442998571209464E+003	3.5448486E-001	-2.7038385E+002
3	0	2.443498571196833E+003	3.5435221E-001	-2.7036267E+002
3	0	2.443998571184202E+003	3.5426420E-001	-2.7038385E+002
3	0	2.444498571171571E+003	3.5445040E-001	-2.7036972E+002
3	0	2.444998571158940E+003	3.5464257E-001	-2.7036267E+002
3	0	2.445498571146309E+003	3.5481542E-001	-2.7036618E+002
3	0	2.445998571133678E+003	3.5493141E-001	-2.7038385E+002
3	0	2.446498571121047E+003	3.5497618E-001	-2.7037326E+002
3	0	2.446998571108415E+003	3.5492179E-001	-2.7039093E+002
3	0	2.447498571095784E+003	3.5475329E-001	-2.7036267E+002
3	0	2.447998571083153E+003	3.5452276E-001	-2.7036972E+002
3	0	2.448498571070522E+003	3.5449901E-001	-2.7036972E+002
3	0	2.448998571057891E+003	3.5445622E-001	-2.7036267E+002
3	0	2.449498571045260E+003	3.5438395E-001	-2.7038385E+002
3	0	2.449998571032629E+003	3.5426447E-001	-2.7036618E+002
3	0	2.450498571019998E+003	3.5410529E-001	-2.7035913E+002
3	0	2.450998571007367E+003	3.5388109E-001	-2.7039093E+002
3	0	2.451498570994736E+003	3.5353824E-001	-2.7038385E+002
3	0	2.451998570982105E+003	3.5320538E-001	-2.7038385E+002
3	0	2.452498570969474E+003	3.5307604E-001	-2.7038031E+002
3	0	2.452998570956843E+003	3.5293147E-001	-2.7039093E+002
3	0	2.453498570944212E+003	3.5279006E-001	-2.7036972E+002
3	0	2.453998570931581E+003	3.5260528E-001	-2.7036972E+002
3	0	2.454498570918950E+003	3.5237238E-001	-2.7036972E+002
3	0	2.454998570906318E+003	3.5209560E-001	-2.7036972E+002
3	0	2.455498570893687E+003	3.5170624E-001	-2.7037326E+002
3	0	2.455998570881056E+003	3.5132667E-001	-2.7035559E+002
3	0	2.456498570868425E+003	3.5115072E-001	-2.7041214E+002
3	0	2.456998570855794E+003	3.5097706E-001	-2.7039093E+002
3	0	2.457498570843163E+003	3.5078993E-001	-2.7036618E+002
3	0	2.457998570830532E+003	3.5059726E-001	-2.7038031E+002
3	0	2.458498570817901E+003	3.5033676E-001	-2.7040860E+002
3	0	2.458998570805270E+003	3.5002398E-001	-2.7039801E+002
3	0	2.459498570792639E+003	3.4962463E-001	-2.7036972E+002
3	0	2.459998570780008E+003	3.4925058E-001	-2.7040155E+002
3	0	2.460498570767377E+003	3.4909758E-001	-2.7039093E+002
3	0	2.460998570754746E+003	3.4895626E-001	-2.7038031E+002
3	0	2.461498570742115E+003	3.4879929E-001	-2.7036972E+002
3	0	2.461998570729484E+003	3.4866849E-001	-2.7037677E+002
3	0	2.462498570716853E+003	3.4852260E-001	-2.7037677E+002
3	0	2.462998570704221E+003	3.4837788E-001	-2.7039093E+002
3	0	2.463498570691590E+003	3.4818155E-001	-2.7035913E+002
3	0	2.463998570678959E+003	3.4807166E-001	-2.7036972E+002
3	0	2.464498570666328E+003	3.4823591E-001	-2.7037326E+002
3	0	2.464998570653697E+003	3.4844211E-001	-2.7036267E+002
3	0	2.465498570641066E+003	3.4863788E-001	-2.7039093E+002
3	0	2.465998570628435E+003	3.4880090E-001	-2.7039801E+002
3	0	2.466498570615804E+003	3.4889448E-001	-2.7036972E+002
3	0	2.466998570603173E+003	3.4891066E-001	-2.7036972E+002
3	0	2.467498570590542E+003	3.4879148E-001	-2.7038742E+002
3	0	2.467998570577911E+003	3.4863287E-001	-2.7035913E+002
3	0	2.468498570565280E+003	3.4864423E-001	-2.7037326E+002
3	0	2.468998570552649E+003	3.4862611E-001	-2.7036267E+002
3	0	2.469498570540018E+003	3.4855726E-001	-2.7035913E+002
3	0	2.469998570527387E+003	3.4843984E-001	-2.7039093E+002
3	0	2.470498570514756E+003	3.4827247E-001	-2.7036267E+002
3	0	2.470998570502124E+003	3.4805247E-001	-2.7039801E+002
3	0	2.471498570489493E+003	3.4773749E-001	-2.7036618E+002
3	0	2.471998570476862E+003	3.4739882E-001	-2.7038385E+002
3	0	2.472498570464231E+003	3.4724852E-001	-2.7039093E+002
3	0	2.472998570451600E+003	3.4710035E-001	-2.7035913E+002
3	0	2.473498570438969E+003	3.4691930E-001	-2.7038742E+002
3	0	2.473998570426338E+003	3.4672812E-001	-2.7042273E+002
3	0	2.474498570413707E+003	3.4646162E-001	-2.7036618E+002
3	0	2.474998570401076E+003	3.4605655E-001	-2.7037326E+002
3	0	2.475498570388445E+003	3.4574410E-001	-2.7036972E+002
3	0	2.475998570375814E+003	3.4548715E-001	-2.7037326E+002
3	0	2.476498570363183E+003	3.4536263E-001	-2.7038385E+002
3	0	2.476998570350552E+003	3.4525213E-001	-2.7038742E+002
3	0	2.477498570337921E+003	3.4505478E-001	-2.7038742E+002
3	0	2.477523170337299E+003	3.4493452E-001	-2.7038385E+002