EC-Lab ASCII FILE
Nb header lines : 56                          

Open Circuit Voltage

Run on channel : 1 (SN 81504)
User : 
CE vs. WE compliance from -10 V to 10 V
Electrode connection : standard
Potential control : Ewe
Ewe ctrl range : min = -2.50 V, max = 2.50 V
Safety Limits :
	Do not start on E overload
Acquisition started on : 05/07/2026 14:02:43.204
Loaded Setting File :  C:\PEM-WE_measurements\2026\372_IV_IV IrOx, 5 min Pt, 30 min C, etched cathode\new station\Loopeis new\1,46 V different time gaps open cell\Loopeis 1,46V_30s_1_initial_loops.mps
Saved on :
	File : L_01_Loopeis 1,46V_30s_1_initial_loops_02_OCV_C01.mpr
	Directory : C:\PEM-WE_measurements\2026\372_IV_IV IrOx, 5 min Pt, 30 min C, etched cathode\new station\Loopeis new\1,46 V different time gaps open cell\
	Host : 192.168.0.2
Device : SP-150e (SN .005491)
Address : 192.168.0.91
EC-LAB for windows v11.71 (software)
Internet server v28.00 (firmware)
Command interpretor v14.01 (firmware)
Electrode material : 
Initial state : 
Electrolyte : 
Comments : 
Current amplifier : SP-150eB-20A
Electrode surface area : 0.000 cm²
Characteristic mass : 0.001 g
Equivalent Weight : 0.000 g/eq.
Density : 0.000 g/cm3
Volume (V) : 0.001 cm³
Record Analogic IN 1
Record energy
Text export
   Mode : Standard
   Time format : Elapsed
Cycle Definition : Charge/Discharge alternance
External device configuration :
   device type : Temperature Probe
   device name : Other
   Analog IN 1 : 
      unit : T/Â°C
      max : 100.000 at 2.000 V
      min : 0.000 at 1.460 V
tR (h:m:s)          0:00:30.0000        
dER/dt (mV/h)       1.0                 
record              <Ewe>               
dER (mV)            10.00               
dtR (s)             0.5000              
E range min (V)     -2.500              
E range max (V)     2.500               

mode	error	time/s	<Ewe/V>	Analog IN 1/V	
3	0	4.549979885057837E+001	1.2304562E+000	-2.7036618E+002
3	0	4.599979883794731E+001	1.1808592E+000	-2.7036618E+002
3	0	4.649979882531625E+001	8.4146941E-001	-2.7038742E+002
3	0	4.699979881268519E+001	4.3412933E-001	-2.7039093E+002
3	0	4.749979880005412E+001	3.4989101E-001	-2.7036267E+002
3	0	4.799979878742306E+001	3.3653539E-001	-2.7037326E+002
3	0	4.849979877479200E+001	3.2929131E-001	-2.7035559E+002
3	0	4.899979876216094E+001	3.2383907E-001	-2.7039093E+002
3	0	4.949979874952987E+001	3.1975883E-001	-2.7038031E+002
3	0	4.999979873689881E+001	3.1665307E-001	-2.7037677E+002
3	0	5.049979872426775E+001	3.1421050E-001	-2.7036618E+002
3	0	5.099979871163669E+001	3.1225944E-001	-2.7036267E+002
3	0	5.149979869900562E+001	3.1063908E-001	-2.7038742E+002
3	0	5.199979868637456E+001	3.0922756E-001	-2.7037326E+002
3	0	5.249979867374350E+001	3.0799335E-001	-2.7038742E+002
3	0	5.299979866111244E+001	3.0687609E-001	-2.7036618E+002
3	0	5.349979864848137E+001	3.0584037E-001	-2.7037677E+002
3	0	5.399979863585031E+001	3.0486071E-001	-2.7036972E+002
3	0	5.449979862321925E+001	3.0394140E-001	-2.7039093E+002
3	0	5.499979861058819E+001	3.0310315E-001	-2.7036972E+002
3	0	5.549979859795712E+001	3.0231470E-001	-2.7036618E+002
3	0	5.599979858532606E+001	3.0154097E-001	-2.7036972E+002
3	0	5.649979857269500E+001	3.0081099E-001	-2.7038031E+002
3	0	5.699979856006394E+001	3.0008855E-001	-2.7037326E+002
3	0	5.749979854743287E+001	2.9937419E-001	-2.7039447E+002
3	0	5.799979853480181E+001	2.9865441E-001	-2.7039801E+002
3	0	5.849979852217075E+001	2.9793808E-001	-2.7039093E+002
3	0	5.899979850953969E+001	2.9726988E-001	-2.7038742E+002
3	0	5.949979849690862E+001	2.9663065E-001	-2.7038385E+002
3	0	5.999979848427756E+001	2.9598916E-001	-2.7037677E+002
3	0	6.049979847164650E+001	2.9536343E-001	-2.7036267E+002
3	0	6.099979845901544E+001	2.9473424E-001	-2.7035205E+002
3	0	6.149979844638438E+001	2.9410434E-001	-2.7039801E+002
3	0	6.199979843375331E+001	2.9345796E-001	-2.7034497E+002
3	0	6.249979842112225E+001	2.9280597E-001	-2.7038031E+002
3	0	6.299979840849119E+001	2.9220140E-001	-2.7040155E+002
3	0	6.349979839586013E+001	2.9161683E-001	-2.7036618E+002
3	0	6.399979838322906E+001	2.9102597E-001	-2.7038742E+002
3	0	6.449979837059800E+001	2.9044440E-001	-2.7038385E+002
3	0	6.499979835796694E+001	2.8984866E-001	-2.7036267E+002
3	0	6.549979834533588E+001	2.8923517E-001	-2.7036972E+002
3	0	6.599979833270481E+001	2.8864804E-001	-2.7035205E+002
3	0	6.649979832007375E+001	2.8805470E-001	-2.7038742E+002
3	0	6.699979830744269E+001	2.8749579E-001	-2.7036972E+002
3	0	6.749979829481163E+001	2.8696346E-001	-2.7036618E+002
3	0	6.799979828218056E+001	2.8641623E-001	-2.7035913E+002
3	0	6.849979826954950E+001	2.8586674E-001	-2.7036972E+002
3	0	6.899979825691844E+001	2.8531364E-001	-2.7039447E+002
3	0	6.949979824428738E+001	2.8474736E-001	-2.7036618E+002
3	0	6.999979823165631E+001	2.8416920E-001	-2.7039093E+002
3	0	7.049979821902525E+001	2.8356668E-001	-2.7036618E+002
3	0	7.099979820639419E+001	2.8303108E-001	-2.7036972E+002
3	0	7.149979819376313E+001	2.8252408E-001	-2.7038031E+002
3	0	7.199979818113206E+001	2.8200969E-001	-2.7035913E+002
3	0	7.249979816850100E+001	2.8148687E-001	-2.7036267E+002
3	0	7.299979815586994E+001	2.8096634E-001	-2.7036618E+002
3	0	7.349979814323888E+001	2.8043225E-001	-2.7039093E+002
3	0	7.399979813060781E+001	2.7988112E-001	-2.7036618E+002
3	0	7.449979811797675E+001	2.7932221E-001	-2.7039447E+002
3	0	7.499979810534569E+001	2.7882478E-001	-2.7036267E+002
3	0	7.500019810533558E+001	2.7854627E-001	-2.7038031E+002
3	0	1.205007969558937E+002	1.2319773E+000	-2.7039093E+002
3	0	1.210007969432627E+002	1.1896362E+000	-2.7040506E+002
3	0	1.215007969306316E+002	8.8184494E-001	-2.7036618E+002
3	0	1.220007969180006E+002	4.4990441E-001	-2.7035205E+002
3	0	1.225007969053695E+002	3.5448620E-001	-2.7035913E+002
3	0	1.230007968927384E+002	3.3984706E-001	-2.7038385E+002
3	0	1.235007968801074E+002	3.3235946E-001	-2.7037326E+002
3	0	1.240007968674763E+002	3.2677525E-001	-2.7037677E+002
3	0	1.245007968548452E+002	3.2262471E-001	-2.7037326E+002
3	0	1.250007968422142E+002	3.1948328E-001	-2.7037677E+002
3	0	1.255007968295831E+002	3.1704247E-001	-2.7038031E+002
3	0	1.260007968169521E+002	3.1505689E-001	-2.7037677E+002
3	0	1.265007968043210E+002	3.1341752E-001	-2.7037326E+002
3	0	1.270007967916899E+002	3.1205407E-001	-2.7038742E+002
3	0	1.275007967790589E+002	3.1087556E-001	-2.7038742E+002
3	0	1.280007967664278E+002	3.0982253E-001	-2.7039801E+002
3	0	1.285007967537967E+002	3.0885956E-001	-2.7037326E+002
3	0	1.290007967411657E+002	3.0797282E-001	-2.7036618E+002
3	0	1.295007967285346E+002	3.0712035E-001	-2.7036267E+002
3	0	1.300007967159036E+002	3.0630383E-001	-2.7034851E+002
3	0	1.305007967032725E+002	3.0551979E-001	-2.7036972E+002
3	0	1.310007966906414E+002	3.0481067E-001	-2.7037326E+002
3	0	1.315007966780104E+002	3.0414292E-001	-2.7037677E+002
3	0	1.320007966653793E+002	3.0348590E-001	-2.7037677E+002
3	0	1.325007966527482E+002	3.0283967E-001	-2.7038385E+002
3	0	1.330007966401172E+002	3.0219755E-001	-2.7038031E+002
3	0	1.335007966274861E+002	3.0154499E-001	-2.7038031E+002
3	0	1.340007966148551E+002	3.0088955E-001	-2.7036972E+002
3	0	1.345007966022240E+002	3.0024257E-001	-2.7038385E+002
3	0	1.350007965895929E+002	2.9965553E-001	-2.7039093E+002
3	0	1.355007965769619E+002	2.9908502E-001	-2.7038385E+002
3	0	1.360007965643308E+002	2.9851520E-001	-2.7039093E+002
3	0	1.365007965516998E+002	2.9794821E-001	-2.7036972E+002
3	0	1.370007965390687E+002	2.9737416E-001	-2.7039093E+002
3	0	1.375007965264376E+002	2.9679418E-001	-2.7036972E+002
3	0	1.380007965138066E+002	2.9618919E-001	-2.7036972E+002
3	0	1.385007965011755E+002	2.9559368E-001	-2.7038385E+002
3	0	1.390007964885444E+002	2.9505548E-001	-2.7036972E+002
3	0	1.395007964759134E+002	2.9453215E-001	-2.7037677E+002
3	0	1.400007964632823E+002	2.9399541E-001	-2.7038385E+002
3	0	1.405007964506513E+002	2.9346186E-001	-2.7038031E+002
3	0	1.410007964380202E+002	2.9292211E-001	-2.7035559E+002
3	0	1.415007964253891E+002	2.9237077E-001	-2.7035205E+002
3	0	1.420007964127581E+002	2.9179850E-001	-2.7037326E+002
3	0	1.425007964001270E+002	2.9122847E-001	-2.7039447E+002
3	0	1.430007963874959E+002	2.9071698E-001	-2.7035913E+002
3	0	1.435007963748649E+002	2.9022005E-001	-2.7037677E+002
3	0	1.440007963622338E+002	2.8971845E-001	-2.7038742E+002
3	0	1.445007963496028E+002	2.8921264E-001	-2.7037677E+002
3	0	1.450007963369717E+002	2.8870159E-001	-2.7036618E+002
3	0	1.455007963243406E+002	2.8818554E-001	-2.7037326E+002
3	0	1.460007963117096E+002	2.8764096E-001	-2.7040860E+002
3	0	1.465007962990785E+002	2.8710932E-001	-2.7039093E+002
3	0	1.470007962864474E+002	2.8663081E-001	-2.7038742E+002
3	0	1.475007962738164E+002	2.8616583E-001	-2.7036618E+002
3	0	1.480007962611853E+002	2.8569883E-001	-2.7038385E+002
3	0	1.485007962485543E+002	2.8521916E-001	-2.7039447E+002
3	0	1.490007962359232E+002	2.8473678E-001	-2.7037677E+002
3	0	1.495007962232921E+002	2.8424051E-001	-2.7036972E+002
3	0	1.500007962106611E+002	2.8371733E-001	-2.7039801E+002
3	0	1.500011962106510E+002	2.8343174E-001	-2.7039801E+002
3	0	1.955017950612091E+002	1.2337720E+000	-2.7036267E+002
3	0	1.960017950485781E+002	1.1927850E+000	-2.7039801E+002
3	0	1.965017950359470E+002	9.0471315E-001	-2.7036618E+002
3	0	1.970017950233159E+002	4.5790619E-001	-2.7036618E+002
3	0	1.975017950106849E+002	3.5371861E-001	-2.7037326E+002
3	0	1.980017949980538E+002	3.3835360E-001	-2.7038385E+002
3	0	1.985017949854227E+002	3.3078456E-001	-2.7036618E+002
3	0	1.990017949727917E+002	3.2511598E-001	-2.7036267E+002
3	0	1.995017949601606E+002	3.2090399E-001	-2.7040155E+002
3	0	2.000017949475296E+002	3.1773424E-001	-2.7039447E+002
3	0	2.005017949348985E+002	3.1526434E-001	-2.7035205E+002
3	0	2.010017949222674E+002	3.1329224E-001	-2.7036618E+002
3	0	2.015017949096364E+002	3.1165349E-001	-2.7040506E+002
3	0	2.020017948970053E+002	3.1024453E-001	-2.7038385E+002
3	0	2.025017948843742E+002	3.0900460E-001	-2.7035205E+002
3	0	2.030017948717432E+002	3.0793002E-001	-2.7035913E+002
3	0	2.035017948591121E+002	3.0697474E-001	-2.7038031E+002
3	0	2.040017948464811E+002	3.0609667E-001	-2.7035205E+002
3	0	2.045017948338500E+002	3.0527458E-001	-2.7037677E+002
3	0	2.050017948212189E+002	3.0449700E-001	-2.7037677E+002
3	0	2.055017948085879E+002	3.0375409E-001	-2.7036267E+002
3	0	2.060017947959568E+002	3.0303010E-001	-2.7040860E+002
3	0	2.065017947833257E+002	3.0232105E-001	-2.7038385E+002
3	0	2.070017947706947E+002	3.0164284E-001	-2.7038385E+002
3	0	2.075017947580636E+002	3.0101267E-001	-2.7039447E+002
3	0	2.080017947454326E+002	3.0039775E-001	-2.7036267E+002
3	0	2.085017947328015E+002	2.9979181E-001	-2.7036618E+002
3	0	2.090017947201704E+002	2.9920512E-001	-2.7038385E+002
3	0	2.095017947075394E+002	2.9861751E-001	-2.7039447E+002
3	0	2.100017946949083E+002	2.9802218E-001	-2.7033084E+002
3	0	2.105017946822773E+002	2.9740423E-001	-2.7035205E+002
3	0	2.110017946696462E+002	2.9681784E-001	-2.7036972E+002
3	0	2.115017946570151E+002	2.9626441E-001	-2.7039447E+002
3	0	2.120017946443841E+002	2.9571313E-001	-2.7039447E+002
3	0	2.125017946317530E+002	2.9516548E-001	-2.7035205E+002
3	0	2.130017946191219E+002	2.9462865E-001	-2.7036618E+002
3	0	2.135017946064909E+002	2.9408175E-001	-2.7036618E+002
3	0	2.140017945938598E+002	2.9353651E-001	-2.7034851E+002
3	0	2.145017945812288E+002	2.9296857E-001	-2.7039093E+002
3	0	2.150017945685977E+002	2.9242012E-001	-2.7038385E+002
3	0	2.155017945559666E+002	2.9189935E-001	-2.7037326E+002
3	0	2.160017945433356E+002	2.9138300E-001	-2.7036972E+002
3	0	2.165017945307045E+002	2.9085907E-001	-2.7035205E+002
3	0	2.170017945180734E+002	2.9034895E-001	-2.7039093E+002
3	0	2.175017945054424E+002	2.8983429E-001	-2.7039093E+002
3	0	2.180017944928113E+002	2.8930712E-001	-2.7038742E+002
3	0	2.185017944801803E+002	2.8875756E-001	-2.7039801E+002
3	0	2.190017944675492E+002	2.8824437E-001	-2.7039447E+002
3	0	2.195017944549181E+002	2.8774646E-001	-2.7039801E+002
3	0	2.200017944422871E+002	2.8725606E-001	-2.7038385E+002
3	0	2.205017944296560E+002	2.8676200E-001	-2.7037677E+002
3	0	2.210017944170249E+002	2.8627127E-001	-2.7039093E+002
3	0	2.215017944043939E+002	2.8578433E-001	-2.7036618E+002
3	0	2.220017943917628E+002	2.8528070E-001	-2.7036267E+002
3	0	2.225017943791318E+002	2.8476676E-001	-2.7039093E+002
3	0	2.230017943665007E+002	2.8428134E-001	-2.7036267E+002
3	0	2.235017943538696E+002	2.8381553E-001	-2.7039447E+002
3	0	2.240017943412386E+002	2.8335148E-001	-2.7037677E+002
3	0	2.245017943286075E+002	2.8288722E-001	-2.7038031E+002
3	0	2.250017943159764E+002	2.8243235E-001	-2.7035913E+002
3	0	2.250021943159663E+002	2.8220081E-001	-2.7038742E+002
3	0	2.705027931665245E+002	1.2351264E+000	-2.7034143E+002
3	0	2.710027931538934E+002	1.1960649E+000	-2.7039447E+002
3	0	2.715027931412624E+002	9.2755276E-001	-2.7039447E+002
3	0	2.720027931286313E+002	4.6657452E-001	-2.7038385E+002
3	0	2.725027931160002E+002	3.5405031E-001	-2.7036618E+002
3	0	2.730027931033692E+002	3.3788368E-001	-2.7037326E+002
3	0	2.735027930907381E+002	3.3013988E-001	-2.7035913E+002
3	0	2.740027930781071E+002	3.2432774E-001	-2.7036972E+002
3	0	2.745027930654760E+002	3.2000804E-001	-2.7036267E+002
3	0	2.750027930528449E+002	3.1677723E-001	-2.7035913E+002
3	0	2.755027930402139E+002	3.1427673E-001	-2.7038385E+002
3	0	2.760027930275828E+002	3.1228876E-001	-2.7036267E+002
3	0	2.765027930149517E+002	3.1065115E-001	-2.7037326E+002
3	0	2.770027930023207E+002	3.0925563E-001	-2.7038031E+002
3	0	2.775027929896896E+002	3.0804300E-001	-2.7037326E+002
3	0	2.780027929770586E+002	3.0694333E-001	-2.7037677E+002
3	0	2.785027929644275E+002	3.0593267E-001	-2.7039801E+002
3	0	2.790027929517964E+002	3.0502334E-001	-2.7036972E+002
3	0	2.795027929391654E+002	3.0420607E-001	-2.7040506E+002
3	0	2.800027929265343E+002	3.0344406E-001	-2.7037326E+002
3	0	2.805027929139032E+002	3.0271357E-001	-2.7039447E+002
3	0	2.810027929012722E+002	3.0201039E-001	-2.7040155E+002
3	0	2.815027928886411E+002	3.0132851E-001	-2.7039093E+002
3	0	2.820027928760101E+002	3.0065250E-001	-2.7037677E+002
3	0	2.825027928633790E+002	2.9997107E-001	-2.7038031E+002
3	0	2.830027928507479E+002	2.9932719E-001	-2.7036618E+002
3	0	2.835027928381169E+002	2.9872057E-001	-2.7036972E+002
3	0	2.840027928254858E+002	2.9813442E-001	-2.7039093E+002
3	0	2.845027928128548E+002	2.9755080E-001	-2.7038385E+002
3	0	2.850027928002237E+002	2.9698089E-001	-2.7039447E+002
3	0	2.855027927875926E+002	2.9640624E-001	-2.7037677E+002
3	0	2.860027927749616E+002	2.9583216E-001	-2.7037326E+002
3	0	2.865027927623305E+002	2.9523537E-001	-2.7036972E+002
3	0	2.870027927496994E+002	2.9467237E-001	-2.7038742E+002
3	0	2.875027927370684E+002	2.9413599E-001	-2.7036618E+002
3	0	2.880027927244373E+002	2.9361048E-001	-2.7039093E+002
3	0	2.885027927118063E+002	2.9308432E-001	-2.7038385E+002
3	0	2.890027926991752E+002	2.9255563E-001	-2.7038742E+002
3	0	2.895027926865441E+002	2.9203001E-001	-2.7036972E+002
3	0	2.900027926739131E+002	2.9148501E-001	-2.7039093E+002
3	0	2.905027926612820E+002	2.9092690E-001	-2.7036267E+002
3	0	2.910027926486509E+002	2.9038686E-001	-2.7038385E+002
3	0	2.915027926360199E+002	2.8988338E-001	-2.7037677E+002
3	0	2.920027926233888E+002	2.8937736E-001	-2.7038742E+002
3	0	2.925027926107578E+002	2.8888169E-001	-2.7037677E+002
3	0	2.930027925981267E+002	2.8838804E-001	-2.7039093E+002
3	0	2.935027925854956E+002	2.8788564E-001	-2.7039801E+002
3	0	2.940027925728646E+002	2.8736764E-001	-2.7038031E+002
3	0	2.945027925602335E+002	2.8683749E-001	-2.7034851E+002
3	0	2.950027925476024E+002	2.8633100E-001	-2.7040860E+002
3	0	2.955027925349714E+002	2.8585014E-001	-2.7036618E+002
3	0	2.960027925223403E+002	2.8536728E-001	-2.7039801E+002
3	0	2.965027925097093E+002	2.8489253E-001	-2.7036267E+002
3	0	2.970027924970782E+002	2.8442147E-001	-2.7040506E+002
3	0	2.975027924844471E+002	2.8395209E-001	-2.7036618E+002
3	0	2.980027924718161E+002	2.8345937E-001	-2.7037677E+002
3	0	2.985027924591850E+002	2.8295580E-001	-2.7036972E+002
3	0	2.990027924465539E+002	2.8248689E-001	-2.7037677E+002
3	0	2.995027924339229E+002	2.8203258E-001	-2.7039801E+002
3	0	3.000027924212918E+002	2.8158098E-001	-2.7036618E+002
3	0	3.000031924212817E+002	2.8135160E-001	-2.7036972E+002
3	0	3.455037912718399E+002	1.2367690E+000	-2.7038031E+002
3	0	3.460037912592088E+002	1.1975826E+000	-2.7040155E+002
3	0	3.465037912465777E+002	9.5094049E-001	-2.7037677E+002
3	0	3.470037912339467E+002	4.7721136E-001	-2.7037677E+002
3	0	3.475037912213156E+002	3.5268161E-001	-2.7038742E+002
3	0	3.480037912086846E+002	3.3538300E-001	-2.7036618E+002
3	0	3.485037911960535E+002	3.2755110E-001	-2.7035913E+002
3	0	3.490037911834224E+002	3.2164893E-001	-2.7039447E+002
3	0	3.495037911707914E+002	3.1726438E-001	-2.7035205E+002
3	0	3.500037911581603E+002	3.1396285E-001	-2.7037326E+002
3	0	3.505037911455292E+002	3.1139821E-001	-2.7036972E+002
3	0	3.510037911328982E+002	3.0935371E-001	-2.7036618E+002
3	0	3.515037911202671E+002	3.0770192E-001	-2.7035205E+002
3	0	3.520037911076361E+002	3.0630028E-001	-2.7038385E+002
3	0	3.525037910950050E+002	3.0508700E-001	-2.7038742E+002
3	0	3.530037910823739E+002	3.0402088E-001	-2.7036972E+002
3	0	3.535037910697429E+002	3.0304831E-001	-2.7036972E+002
3	0	3.540037910571118E+002	3.0214041E-001	-2.7036618E+002
3	0	3.545037910444807E+002	3.0126750E-001	-2.7037326E+002
3	0	3.550037910318497E+002	3.0046949E-001	-2.7037677E+002
3	0	3.555037910192186E+002	2.9974467E-001	-2.7036972E+002
3	0	3.560037910065876E+002	2.9905394E-001	-2.7039801E+002
3	0	3.565037909939565E+002	2.9840019E-001	-2.7037326E+002
3	0	3.570037909813254E+002	2.9775947E-001	-2.7038031E+002
3	0	3.575037909686944E+002	2.9713792E-001	-2.7036618E+002
3	0	3.580037909560633E+002	2.9650539E-001	-2.7035913E+002
3	0	3.585037909434323E+002	2.9585734E-001	-2.7036267E+002
3	0	3.590037909308012E+002	2.9524693E-001	-2.7037677E+002
3	0	3.595037909181701E+002	2.9466483E-001	-2.7036972E+002
3	0	3.600037909055391E+002	2.9410177E-001	-2.7037677E+002
3	0	3.605037908929080E+002	2.9354879E-001	-2.7037326E+002
3	0	3.610037908802769E+002	2.9299632E-001	-2.7034851E+002
3	0	3.615037908676459E+002	2.9244509E-001	-2.7037677E+002
3	0	3.620037908550148E+002	2.9187876E-001	-2.7039447E+002
3	0	3.625037908423838E+002	2.9130182E-001	-2.7036618E+002
3	0	3.630037908297527E+002	2.9074994E-001	-2.7038031E+002
3	0	3.635037908171216E+002	2.9022157E-001	-2.7039447E+002
3	0	3.640037908044906E+002	2.8970453E-001	-2.7038385E+002
3	0	3.645037907918595E+002	2.8919131E-001	-2.7037677E+002
3	0	3.650037907792284E+002	2.8868645E-001	-2.7036267E+002
3	0	3.655037907665974E+002	2.8818378E-001	-2.7035559E+002
3	0	3.660037907539663E+002	2.8765416E-001	-2.7037677E+002
3	0	3.665037907413353E+002	2.8711259E-001	-2.7039093E+002
3	0	3.670037907287042E+002	2.8658846E-001	-2.7037677E+002
3	0	3.675037907160731E+002	2.8608665E-001	-2.7038742E+002
3	0	3.680037907034421E+002	2.8559569E-001	-2.7035559E+002
3	0	3.685037906908110E+002	2.8510734E-001	-2.7037677E+002
3	0	3.690037906781799E+002	2.8462312E-001	-2.7036972E+002
3	0	3.695037906655489E+002	2.8414094E-001	-2.7036267E+002
3	0	3.700037906529178E+002	2.8363764E-001	-2.7036618E+002
3	0	3.705037906402868E+002	2.8312215E-001	-2.7038742E+002
3	0	3.710037906276557E+002	2.8262633E-001	-2.7040155E+002
3	0	3.715037906150246E+002	2.8215683E-001	-2.7038385E+002
3	0	3.720037906023936E+002	2.8169239E-001	-2.7037326E+002
3	0	3.725037905897625E+002	2.8122139E-001	-2.7039801E+002
3	0	3.730037905771314E+002	2.8076634E-001	-2.7038031E+002
3	0	3.735037905645004E+002	2.8030664E-001	-2.7037326E+002
3	0	3.740037905518693E+002	2.7983508E-001	-2.7038742E+002
3	0	3.745037905392383E+002	2.7935529E-001	-2.7035913E+002
3	0	3.750037905266072E+002	2.7890313E-001	-2.7039093E+002
3	0	3.750041905265971E+002	2.7863213E-001	-2.7037677E+002
3	0	4.205047893771552E+002	1.2375937E+000	-2.7038031E+002
3	0	4.210047893645242E+002	1.1995836E+000	-2.7039093E+002
3	0	4.215047893518931E+002	9.6071106E-001	-2.7037677E+002
3	0	4.220047893392621E+002	4.8316070E-001	-2.7035913E+002
3	0	4.225047893266310E+002	3.5324025E-001	-2.7039447E+002
3	0	4.230047893139999E+002	3.3539301E-001	-2.7037326E+002
3	0	4.235047893013689E+002	3.2750228E-001	-2.7039093E+002
3	0	4.240047892887378E+002	3.2150578E-001	-2.7041214E+002
3	0	4.245047892761067E+002	3.1703597E-001	-2.7038031E+002
3	0	4.250047892634757E+002	3.1367761E-001	-2.7040155E+002
3	0	4.255047892508446E+002	3.1107372E-001	-2.7038742E+002
3	0	4.260047892382136E+002	3.0897576E-001	-2.7036267E+002
3	0	4.265047892255825E+002	3.0724669E-001	-2.7040506E+002
3	0	4.270047892129514E+002	3.0579633E-001	-2.7037326E+002
3	0	4.275047892003204E+002	3.0456924E-001	-2.7038031E+002
3	0	4.280047891876893E+002	3.0349100E-001	-2.7037677E+002
3	0	4.285047891750582E+002	3.0251706E-001	-2.7037677E+002
3	0	4.290047891624272E+002	3.0162430E-001	-2.7036972E+002
3	0	4.295047891497961E+002	3.0079281E-001	-2.7038385E+002
3	0	4.300047891371651E+002	2.9999396E-001	-2.7035913E+002
3	0	4.305047891245340E+002	2.9921231E-001	-2.7036618E+002
3	0	4.310047891119029E+002	2.9849601E-001	-2.7036972E+002
3	0	4.315047890992719E+002	2.9783326E-001	-2.7038742E+002
3	0	4.320047890866408E+002	2.9718900E-001	-2.7036972E+002
3	0	4.325047890740098E+002	2.9656652E-001	-2.7038385E+002
3	0	4.330047890613787E+002	2.9595485E-001	-2.7039447E+002
3	0	4.335047890487476E+002	2.9535216E-001	-2.7036267E+002
3	0	4.340047890361166E+002	2.9474172E-001	-2.7036618E+002
3	0	4.345047890234855E+002	2.9412046E-001	-2.7036267E+002
3	0	4.350047890108544E+002	2.9353628E-001	-2.7039447E+002
3	0	4.355047889982234E+002	2.9298475E-001	-2.7038031E+002
3	0	4.360047889855923E+002	2.9243669E-001	-2.7035913E+002
3	0	4.365047889729613E+002	2.9189679E-001	-2.7039093E+002
3	0	4.370047889603302E+002	2.9135805E-001	-2.7036972E+002
3	0	4.375047889476991E+002	2.9081863E-001	-2.7038385E+002
3	0	4.380047889350681E+002	2.9025990E-001	-2.7039447E+002
3	0	4.385047889224370E+002	2.8968883E-001	-2.7037326E+002
3	0	4.390047889098059E+002	2.8914955E-001	-2.7039801E+002
3	0	4.395047888971749E+002	2.8863913E-001	-2.7037677E+002
3	0	4.400047888845438E+002	2.8813222E-001	-2.7040506E+002
3	0	4.405047888719128E+002	2.8762206E-001	-2.7037677E+002
3	0	4.410047888592817E+002	2.8712046E-001	-2.7039093E+002
3	0	4.415047888466506E+002	2.8661543E-001	-2.7036972E+002
3	0	4.420047888340196E+002	2.8608227E-001	-2.7036618E+002
3	0	4.425047888213885E+002	2.8554320E-001	-2.7038031E+002
3	0	4.430047888087574E+002	2.8502995E-001	-2.7036972E+002
3	0	4.435047887961264E+002	2.8454569E-001	-2.7036267E+002
3	0	4.440047887834953E+002	2.8406590E-001	-2.7039801E+002
3	0	4.445047887708643E+002	2.8358579E-001	-2.7039093E+002
3	0	4.450047887582332E+002	2.8310740E-001	-2.7036618E+002
3	0	4.455047887456021E+002	2.8263086E-001	-2.7037326E+002
3	0	4.460047887329711E+002	2.8214449E-001	-2.7035913E+002
3	0	4.465047887203400E+002	2.8163585E-001	-2.7039093E+002
3	0	4.470047887077089E+002	2.8115526E-001	-2.7040506E+002
3	0	4.475047886950779E+002	2.8070739E-001	-2.7038031E+002
3	0	4.480047886824468E+002	2.8025550E-001	-2.7038742E+002
3	0	4.485047886698158E+002	2.7981341E-001	-2.7039447E+002
3	0	4.490047886571847E+002	2.7937037E-001	-2.7037326E+002
3	0	4.495047886445536E+002	2.7893069E-001	-2.7037326E+002
3	0	4.500047886319226E+002	2.7846792E-001	-2.7039447E+002
3	0	4.500051886319125E+002	2.7812642E-001	-2.7037677E+002
3	0	4.955057874824706E+002	1.2398492E+000	-2.7038742E+002
3	0	4.960057874698396E+002	1.2031171E+000	-2.7036972E+002
3	0	4.965057874572085E+002	9.8130363E-001	-2.7036618E+002
3	0	4.970057874445774E+002	4.9467301E-001	-2.7038385E+002
3	0	4.975057874319464E+002	3.5401511E-001	-2.7037677E+002
3	0	4.980057874193153E+002	3.3495501E-001	-2.7036618E+002
3	0	4.985057874066842E+002	3.2696775E-001	-2.7039093E+002
3	0	4.990057873940532E+002	3.2087880E-001	-2.7035559E+002
3	0	4.995057873814221E+002	3.1634197E-001	-2.7038385E+002
3	0	5.000057873687911E+002	3.1293872E-001	-2.7039447E+002
3	0	5.005057873561600E+002	3.1030786E-001	-2.7040506E+002
3	0	5.010057873435289E+002	3.0821559E-001	-2.7039093E+002
3	0	5.015057873308979E+002	3.0649474E-001	-2.7038385E+002
3	0	5.020057873182668E+002	3.0502516E-001	-2.7035559E+002
3	0	5.025057873056357E+002	3.0373117E-001	-2.7036267E+002
3	0	5.030057872930047E+002	3.0261192E-001	-2.7038385E+002
3	0	5.035057872803736E+002	3.0163056E-001	-2.7041214E+002
3	0	5.040057872677426E+002	3.0073518E-001	-2.7039093E+002
3	0	5.045057872551115E+002	2.9990739E-001	-2.7036267E+002
3	0	5.050057872424804E+002	2.9912940E-001	-2.7038031E+002
3	0	5.055057872298494E+002	2.9839313E-001	-2.7036972E+002
3	0	5.060057872172183E+002	2.9767084E-001	-2.7036972E+002
3	0	5.065057872045873E+002	2.9695517E-001	-2.7037326E+002
3	0	5.070057871919562E+002	2.9627809E-001	-2.7036618E+002
3	0	5.075057871793251E+002	2.9565376E-001	-2.7037326E+002
3	0	5.080057871666941E+002	2.9505000E-001	-2.7039447E+002
3	0	5.085057871540630E+002	2.9446119E-001	-2.7039447E+002
3	0	5.090057871414319E+002	2.9388639E-001	-2.7039447E+002
3	0	5.095057871288009E+002	2.9331279E-001	-2.7039093E+002
3	0	5.100057871161698E+002	2.9272237E-001	-2.7036267E+002
3	0	5.105057871035388E+002	2.9211637E-001	-2.7040506E+002
3	0	5.110057870909077E+002	2.9153794E-001	-2.7038031E+002
3	0	5.115057870782766E+002	2.9098871E-001	-2.7035913E+002
3	0	5.120057870656456E+002	2.9045233E-001	-2.7039447E+002
3	0	5.125057870530145E+002	2.8992331E-001	-2.7036267E+002
3	0	5.130057870403834E+002	2.8939465E-001	-2.7039801E+002
3	0	5.135057870277524E+002	2.8887141E-001	-2.7035205E+002
3	0	5.140057870151213E+002	2.8833827E-001	-2.7037326E+002
3	0	5.145057870024903E+002	2.8777686E-001	-2.7036972E+002
3	0	5.150057869898592E+002	2.8723994E-001	-2.7038031E+002
3	0	5.155057869772281E+002	2.8673697E-001	-2.7038742E+002
3	0	5.160057869645971E+002	2.8623402E-001	-2.7038742E+002
3	0	5.165057869519660E+002	2.8573802E-001	-2.7038385E+002
3	0	5.170057869393349E+002	2.8524086E-001	-2.7038031E+002
3	0	5.175057869267039E+002	2.8474265E-001	-2.7037677E+002
3	0	5.180057869140728E+002	2.8423283E-001	-2.7038031E+002
3	0	5.185057869014418E+002	2.8369784E-001	-2.7039447E+002
3	0	5.190057868888107E+002	2.8319123E-001	-2.7038742E+002
3	0	5.195057868761796E+002	2.8271464E-001	-2.7037326E+002
3	0	5.200057868635486E+002	2.8224865E-001	-2.7038742E+002
3	0	5.205057868509175E+002	2.8177410E-001	-2.7036618E+002
3	0	5.210057868382864E+002	2.8130364E-001	-2.7038385E+002
3	0	5.215057868256554E+002	2.8083465E-001	-2.7039447E+002
3	0	5.220057868130243E+002	2.8034168E-001	-2.7039093E+002
3	0	5.225057868003933E+002	2.7984077E-001	-2.7038742E+002
3	0	5.230057867877622E+002	2.7937180E-001	-2.7039447E+002
3	0	5.235057867751311E+002	2.7893358E-001	-2.7033789E+002
3	0	5.240057867625001E+002	2.7849242E-001	-2.7037677E+002
3	0	5.245057867498690E+002	2.7805087E-001	-2.7038385E+002
3	0	5.250057867372379E+002	2.7761608E-001	-2.7037677E+002
3	0	5.250061867372278E+002	2.7736306E-001	-2.7039093E+002
3	0	5.705067855877860E+002	1.2409045E+000	-2.7036972E+002
3	0	5.710067855751549E+002	1.2059276E+000	-2.7035913E+002
3	0	5.715067855625239E+002	9.9910015E-001	-2.7037326E+002
3	0	5.720067855498928E+002	5.0590497E-001	-2.7037326E+002
3	0	5.725067855372617E+002	3.5519585E-001	-2.7037326E+002
3	0	5.730067855246307E+002	3.3487162E-001	-2.7037677E+002
3	0	5.735067855119996E+002	3.2673910E-001	-2.7036972E+002
3	0	5.740067854993686E+002	3.2053268E-001	-2.7039093E+002
3	0	5.745067854867375E+002	3.1589624E-001	-2.7039801E+002
3	0	5.750067854741064E+002	3.1243187E-001	-2.7037677E+002
3	0	5.755067854614754E+002	3.0977044E-001	-2.7041214E+002
3	0	5.760067854488443E+002	3.0766177E-001	-2.7040155E+002
3	0	5.765067854362132E+002	3.0592927E-001	-2.7037326E+002
3	0	5.770067854235822E+002	3.0447310E-001	-2.7037326E+002
3	0	5.775067854109511E+002	3.0321831E-001	-2.7038742E+002
3	0	5.780067853983201E+002	3.0209062E-001	-2.7036972E+002
3	0	5.785067853856890E+002	3.0104882E-001	-2.7039801E+002
3	0	5.790067853730579E+002	3.0012363E-001	-2.7038742E+002
3	0	5.795067853604269E+002	2.9928935E-001	-2.7041214E+002
3	0	5.800067853477958E+002	2.9852250E-001	-2.7038742E+002
3	0	5.805067853351648E+002	2.9779276E-001	-2.7035913E+002
3	0	5.810067853225337E+002	2.9709476E-001	-2.7036972E+002
3	0	5.815067853099026E+002	2.9642096E-001	-2.7036618E+002
3	0	5.820067852972716E+002	2.9574215E-001	-2.7036972E+002
3	0	5.825067852846405E+002	2.9506388E-001	-2.7037326E+002
3	0	5.830067852720094E+002	2.9442084E-001	-2.7039093E+002
3	0	5.835067852593784E+002	2.9382810E-001	-2.7039447E+002
3	0	5.840067852467473E+002	2.9325399E-001	-2.7038742E+002
3	0	5.845067852341163E+002	2.9268476E-001	-2.7041919E+002
3	0	5.850067852214852E+002	2.9212350E-001	-2.7039447E+002
3	0	5.855067852088541E+002	2.9156309E-001	-2.7039093E+002
3	0	5.860067851962231E+002	2.9098803E-001	-2.7039093E+002
3	0	5.865067851835920E+002	2.9039860E-001	-2.7035205E+002
3	0	5.870067851709609E+002	2.8984150E-001	-2.7038742E+002
3	0	5.875067851583299E+002	2.8930765E-001	-2.7038031E+002
3	0	5.880067851456988E+002	2.8879070E-001	-2.7037326E+002
3	0	5.885067851330678E+002	2.8827491E-001	-2.7037326E+002
3	0	5.890067851204367E+002	2.8776088E-001	-2.7037677E+002
3	0	5.895067851078056E+002	2.8724408E-001	-2.7037677E+002
3	0	5.900067850951746E+002	2.8671655E-001	-2.7038385E+002
3	0	5.905067850825435E+002	2.8616425E-001	-2.7036972E+002
3	0	5.910067850699124E+002	2.8563488E-001	-2.7036972E+002
3	0	5.915067850572814E+002	2.8513938E-001	-2.7035559E+002
3	0	5.920067850446503E+002	2.8464428E-001	-2.7040155E+002
3	0	5.925067850320193E+002	2.8415713E-001	-2.7036972E+002
3	0	5.930067850193882E+002	2.8366989E-001	-2.7037677E+002
3	0	5.935067850067571E+002	2.8318295E-001	-2.7038031E+002
3	0	5.940067849941261E+002	2.8267527E-001	-2.7036972E+002
3	0	5.945067849814950E+002	2.8215802E-001	-2.7038742E+002
3	0	5.950067849688639E+002	2.8165990E-001	-2.7040506E+002
3	0	5.955067849562329E+002	2.8118598E-001	-2.7037677E+002
3	0	5.960067849436018E+002	2.8072453E-001	-2.7036267E+002
3	0	5.965067849309708E+002	2.8025752E-001	-2.7037677E+002
3	0	5.970067849183397E+002	2.7979800E-001	-2.7038385E+002
3	0	5.975067849057086E+002	2.7934152E-001	-2.7039093E+002
3	0	5.980067848930776E+002	2.7886537E-001	-2.7038742E+002
3	0	5.985067848804465E+002	2.7837241E-001	-2.7036618E+002
3	0	5.990067848678154E+002	2.7791101E-001	-2.7037677E+002
3	0	5.995067848551844E+002	2.7746886E-001	-2.7038742E+002
3	0	6.000067848425533E+002	2.7703115E-001	-2.7037677E+002
3	0	6.000071848425432E+002	2.7680963E-001	-2.7037677E+002
3	0	6.455077836931014E+002	1.2411573E+000	-2.7038742E+002
3	0	6.460077836804703E+002	1.2056638E+000	-2.7036618E+002
3	0	6.465077836678392E+002	1.0089357E+000	-2.7036972E+002
3	0	6.470077836552082E+002	5.1490301E-001	-2.7035913E+002
3	0	6.475077836425771E+002	3.5484186E-001	-2.7037326E+002
3	0	6.480077836299461E+002	3.3334595E-001	-2.7036618E+002
3	0	6.485077836173150E+002	3.2515422E-001	-2.7038385E+002
3	0	6.490077836046839E+002	3.1889942E-001	-2.7037677E+002
3	0	6.495077835920529E+002	3.1421635E-001	-2.7038742E+002
3	0	6.500077835794218E+002	3.1070244E-001	-2.7038385E+002
3	0	6.505077835667907E+002	3.0798006E-001	-2.7036972E+002
3	0	6.510077835541597E+002	3.0582517E-001	-2.7036618E+002
3	0	6.515077835415286E+002	3.0409235E-001	-2.7036972E+002
3	0	6.520077835288976E+002	3.0264047E-001	-2.7037326E+002
3	0	6.525077835162665E+002	3.0138668E-001	-2.7036618E+002
3	0	6.530077835036354E+002	3.0028060E-001	-2.7039801E+002
3	0	6.535077834910044E+002	2.9929021E-001	-2.7037326E+002
3	0	6.540077834783733E+002	2.9836741E-001	-2.7038031E+002
3	0	6.545077834657423E+002	2.9747945E-001	-2.7036267E+002
3	0	6.550077834531112E+002	2.9668155E-001	-2.7039447E+002
3	0	6.555077834404801E+002	2.9595208E-001	-2.7038385E+002
3	0	6.560077834278491E+002	2.9525679E-001	-2.7035559E+002
3	0	6.565077834152180E+002	2.9459733E-001	-2.7039447E+002
3	0	6.570077834025869E+002	2.9396236E-001	-2.7036267E+002
3	0	6.575077833899559E+002	2.9334664E-001	-2.7037677E+002
3	0	6.580077833773248E+002	2.9271522E-001	-2.7034497E+002
3	0	6.585077833646938E+002	2.9207799E-001	-2.7040506E+002
3	0	6.590077833520627E+002	2.9146817E-001	-2.7039801E+002
3	0	6.595077833394316E+002	2.9089376E-001	-2.7039093E+002
3	0	6.600077833268006E+002	2.9033086E-001	-2.7037326E+002
3	0	6.605077833141695E+002	2.8977656E-001	-2.7036972E+002
3	0	6.610077833015384E+002	2.8923327E-001	-2.7038385E+002
3	0	6.615077832889074E+002	2.8868902E-001	-2.7038385E+002
3	0	6.620077832762763E+002	2.8812811E-001	-2.7037326E+002
3	0	6.625077832636453E+002	2.8755221E-001	-2.7036267E+002
3	0	6.630077832510142E+002	2.8700209E-001	-2.7036618E+002
3	0	6.635077832383831E+002	2.8647816E-001	-2.7038031E+002
3	0	6.640077832257521E+002	2.8596315E-001	-2.7038742E+002
3	0	6.645077832131210E+002	2.8545797E-001	-2.7038031E+002
3	0	6.650077832004899E+002	2.8495833E-001	-2.7036618E+002
3	0	6.655077831878589E+002	2.8445497E-001	-2.7036618E+002
3	0	6.660077831752278E+002	2.8393185E-001	-2.7034851E+002
3	0	6.665077831625968E+002	2.8338850E-001	-2.7038742E+002
3	0	6.670077831499657E+002	2.8287560E-001	-2.7034851E+002
3	0	6.675077831373346E+002	2.8237909E-001	-2.7038031E+002
3	0	6.680077831247036E+002	2.8189832E-001	-2.7037326E+002
3	0	6.685077831120725E+002	2.8141287E-001	-2.7037677E+002
3	0	6.690077830994414E+002	2.8093761E-001	-2.7038385E+002
3	0	6.695077830868104E+002	2.8046262E-001	-2.7039093E+002
3	0	6.700077830741793E+002	2.7996767E-001	-2.7036267E+002
3	0	6.705077830615483E+002	2.7945533E-001	-2.7039801E+002
3	0	6.710077830489172E+002	2.7897254E-001	-2.7038742E+002
3	0	6.715077830362861E+002	2.7851823E-001	-2.7037677E+002
3	0	6.720077830236551E+002	2.7805620E-001	-2.7038742E+002
3	0	6.725077830110240E+002	2.7759835E-001	-2.7038742E+002
3	0	6.730077829983929E+002	2.7714983E-001	-2.7037677E+002
3	0	6.735077829857619E+002	2.7669948E-001	-2.7040506E+002
3	0	6.740077829731308E+002	2.7622861E-001	-2.7039447E+002
3	0	6.745077829604998E+002	2.7574936E-001	-2.7039447E+002
3	0	6.750077829478687E+002	2.7529329E-001	-2.7035559E+002
3	0	6.750081829478586E+002	2.7510163E-001	-2.7039093E+002
3	0	7.205087817984167E+002	1.2411335E+000	-2.7038031E+002
3	0	7.210087817857857E+002	1.2053586E+000	-2.7038031E+002
3	0	7.215087817731546E+002	1.0068651E+000	-2.7038385E+002
3	0	7.220087817605236E+002	5.1494318E-001	-2.7036618E+002
3	0	7.225087817478925E+002	3.5383612E-001	-2.7040506E+002
3	0	7.230087817352614E+002	3.3243990E-001	-2.7037326E+002
3	0	7.235087817226304E+002	3.2435289E-001	-2.7037326E+002
3	0	7.240087817099993E+002	3.1810901E-001	-2.7038031E+002
3	0	7.245087816973682E+002	3.1341675E-001	-2.7036267E+002
3	0	7.250087816847372E+002	3.0989915E-001	-2.7036618E+002
3	0	7.255087816721061E+002	3.0718556E-001	-2.7036972E+002
3	0	7.260087816594751E+002	3.0500832E-001	-2.7036267E+002
3	0	7.265087816468440E+002	3.0321059E-001	-2.7038385E+002
3	0	7.270087816342129E+002	3.0172291E-001	-2.7038385E+002
3	0	7.275087816215819E+002	3.0046442E-001	-2.7034851E+002
3	0	7.280087816089508E+002	2.9936525E-001	-2.7038385E+002
3	0	7.285087815963198E+002	2.9838070E-001	-2.7040155E+002
3	0	7.290087815836887E+002	2.9748404E-001	-2.7037677E+002
3	0	7.295087815710576E+002	2.9665300E-001	-2.7036618E+002
3	0	7.300087815584266E+002	2.9584345E-001	-2.7038031E+002
3	0	7.305087815457955E+002	2.9505613E-001	-2.7036972E+002
3	0	7.310087815331644E+002	2.9433039E-001	-2.7036618E+002
3	0	7.315087815205334E+002	2.9367253E-001	-2.7038031E+002
3	0	7.320087815079023E+002	2.9303944E-001	-2.7036972E+002
3	0	7.325087814952713E+002	2.9241776E-001	-2.7039447E+002
3	0	7.330087814826402E+002	2.9181415E-001	-2.7038742E+002
3	0	7.335087814700091E+002	2.9121542E-001	-2.7039447E+002
3	0	7.340087814573781E+002	2.9060641E-001	-2.7040155E+002
3	0	7.345087814447470E+002	2.8998759E-001	-2.7037326E+002
3	0	7.350087814321159E+002	2.8940096E-001	-2.7039093E+002
3	0	7.355087814194849E+002	2.8884923E-001	-2.7038742E+002
3	0	7.360087814068538E+002	2.8830945E-001	-2.7039093E+002
3	0	7.365087813942228E+002	2.8777313E-001	-2.7038031E+002
3	0	7.370087813815917E+002	2.8724259E-001	-2.7039801E+002
3	0	7.375087813689606E+002	2.8670949E-001	-2.7039447E+002
3	0	7.380087813563296E+002	2.8616068E-001	-2.7040155E+002
3	0	7.385087813436985E+002	2.8559297E-001	-2.7036618E+002
3	0	7.390087813310674E+002	2.8505480E-001	-2.7038031E+002
3	0	7.395087813184364E+002	2.8454822E-001	-2.7040155E+002
3	0	7.400087813058053E+002	2.8405097E-001	-2.7038031E+002
3	0	7.405087812931743E+002	2.8354239E-001	-2.7040155E+002
3	0	7.410087812805432E+002	2.8304461E-001	-2.7037326E+002
3	0	7.415087812679121E+002	2.8254560E-001	-2.7038031E+002
3	0	7.420087812552811E+002	2.8202844E-001	-2.7039093E+002
3	0	7.425087812426500E+002	2.8148639E-001	-2.7040155E+002
3	0	7.430087812300189E+002	2.8097650E-001	-2.7036618E+002
3	0	7.435087812173879E+002	2.8049579E-001	-2.7035913E+002
3	0	7.440087812047568E+002	2.8001282E-001	-2.7038742E+002
3	0	7.445087811921258E+002	2.7953866E-001	-2.7037677E+002
3	0	7.450087811794947E+002	2.7906892E-001	-2.7036972E+002
3	0	7.455087811668636E+002	2.7859032E-001	-2.7037677E+002
3	0	7.460087811542326E+002	2.7810177E-001	-2.7040155E+002
3	0	7.465087811416015E+002	2.7759349E-001	-2.7036972E+002
3	0	7.470087811289704E+002	2.7711579E-001	-2.7038385E+002
3	0	7.475087811163394E+002	2.7667043E-001	-2.7036972E+002
3	0	7.480087811037083E+002	2.7621749E-001	-2.7039801E+002
3	0	7.485087810910773E+002	2.7577475E-001	-2.7037677E+002
3	0	7.490087810784462E+002	2.7534300E-001	-2.7034143E+002
3	0	7.495087810658151E+002	2.7490592E-001	-2.7035559E+002
3	0	7.500087810531841E+002	2.7445903E-001	-2.7039801E+002
3	0	7.500091810531740E+002	2.7422377E-001	-2.7038031E+002
3	0	7.955097799037321E+002	1.2437326E+000	-2.7037677E+002
3	0	7.960097798911011E+002	1.2096679E+000	-2.7036972E+002
3	0	7.965097798784700E+002	1.0307699E+000	-2.7038385E+002
3	0	7.970097798658389E+002	5.3717518E-001	-2.7038742E+002
3	0	7.975097798532079E+002	3.5626504E-001	-2.7037677E+002
3	0	7.980097798405768E+002	3.3211464E-001	-2.7038742E+002
3	0	7.985097798279457E+002	3.2386720E-001	-2.7036267E+002
3	0	7.990097798153147E+002	3.1750768E-001	-2.7039093E+002
3	0	7.995097798026836E+002	3.1273234E-001	-2.7037326E+002
3	0	8.000097797900526E+002	3.0915076E-001	-2.7038385E+002
3	0	8.005097797774215E+002	3.0639514E-001	-2.7036618E+002
3	0	8.010097797647904E+002	3.0421603E-001	-2.7038031E+002
3	0	8.015097797521594E+002	3.0244845E-001	-2.7036267E+002
3	0	8.020097797395283E+002	3.0094418E-001	-2.7036618E+002
3	0	8.025097797268973E+002	2.9962739E-001	-2.7038742E+002
3	0	8.030097797142662E+002	2.9849237E-001	-2.7038031E+002
3	0	8.035097797016351E+002	2.9750726E-001	-2.7038031E+002
3	0	8.040097796890041E+002	2.9660326E-001	-2.7035559E+002
3	0	8.045097796763730E+002	2.9577214E-001	-2.7036972E+002
3	0	8.050097796637419E+002	2.9499394E-001	-2.7038031E+002
3	0	8.055097796511109E+002	2.9425979E-001	-2.7037326E+002
3	0	8.060097796384798E+002	2.9353669E-001	-2.7036618E+002
3	0	8.065097796258488E+002	2.9282069E-001	-2.7036618E+002
3	0	8.070097796132177E+002	2.9215062E-001	-2.7038385E+002
3	0	8.075097796005866E+002	2.9153228E-001	-2.7038385E+002
3	0	8.080097795879556E+002	2.9092845E-001	-2.7037326E+002
3	0	8.085097795753245E+002	2.9033974E-001	-2.7038742E+002
3	0	8.090097795626934E+002	2.8976583E-001	-2.7037677E+002
3	0	8.095097795500624E+002	2.8919944E-001	-2.7039447E+002
3	0	8.100097795374313E+002	2.8861359E-001	-2.7039093E+002
3	0	8.105097795248003E+002	2.8801313E-001	-2.7035559E+002
3	0	8.110097795121692E+002	2.8743669E-001	-2.7039801E+002
3	0	8.115097794995381E+002	2.8690028E-001	-2.7038031E+002
3	0	8.120097794869071E+002	2.8636077E-001	-2.7038742E+002
3	0	8.125097794742760E+002	2.8583825E-001	-2.7037326E+002
3	0	8.130097794616449E+002	2.8531703E-001	-2.7036267E+002
3	0	8.135097794490139E+002	2.8479332E-001	-2.7038742E+002
3	0	8.140097794363828E+002	2.8425753E-001	-2.7037326E+002
3	0	8.145097794237518E+002	2.8369409E-001	-2.7037326E+002
3	0	8.150097794111207E+002	2.8316733E-001	-2.7039093E+002
3	0	8.155097793984896E+002	2.8266159E-001	-2.7036618E+002
3	0	8.160097793858586E+002	2.8216562E-001	-2.7036618E+002
3	0	8.165097793732275E+002	2.8167069E-001	-2.7038385E+002
3	0	8.170097793605964E+002	2.8117284E-001	-2.7038385E+002
3	0	8.175097793479654E+002	2.8068152E-001	-2.7038031E+002
3	0	8.180097793353343E+002	2.8016779E-001	-2.7036972E+002
3	0	8.185097793227033E+002	2.7963904E-001	-2.7037326E+002
3	0	8.190097793100722E+002	2.7914479E-001	-2.7038385E+002
3	0	8.195097792974411E+002	2.7866897E-001	-2.7037326E+002
3	0	8.200097792848101E+002	2.7820078E-001	-2.7035913E+002
3	0	8.205097792721790E+002	2.7772814E-001	-2.7037326E+002
3	0	8.210097792595479E+002	2.7726451E-001	-2.7036972E+002
3	0	8.215097792469169E+002	2.7680439E-001	-2.7037677E+002
3	0	8.220097792342858E+002	2.7631649E-001	-2.7036267E+002
3	0	8.225097792216548E+002	2.7581570E-001	-2.7039447E+002
3	0	8.230097792090237E+002	2.7534524E-001	-2.7036972E+002
3	0	8.235097791963926E+002	2.7489701E-001	-2.7036618E+002
3	0	8.240097791837616E+002	2.7445990E-001	-2.7036618E+002
3	0	8.245097791711305E+002	2.7401260E-001	-2.7037326E+002
3	0	8.250097791584994E+002	2.7358159E-001	-2.7038385E+002
3	0	8.250101791584893E+002	2.7338409E-001	-2.7038385E+002