EC-Lab ASCII FILE
Nb header lines : 48                          

Open Circuit Voltage

Run on channel : 1 (SN 81504)
User : 
CE vs. WE compliance from -10 V to 10 V
Electrode connection : standard
Potential control : Ewe
Ewe ctrl range : min = -2.50 V, max = 2.50 V
Safety Limits :
	Do not start on E overload
Acquisition started on : 05/07/2026 14:16:32.051
Loaded Setting File :  C:\PEM-WE_measurements\2026\372_IV_IV IrOx, 5 min Pt, 30 min C, etched cathode\new station\Loopeis new\1,46 V different time gaps open cell\Loopeis 1,46V_30s_2_PEIS from 65kHz to 10kHz.mps
Saved on :
	File : L_02_Loopeis 1,46V_30s_2_PEIS from 65kHz to 10kHz_12_OCV_C01.mpr
	Directory : C:\PEM-WE_measurements\2026\372_IV_IV IrOx, 5 min Pt, 30 min C, etched cathode\new station\Loopeis new\1,46 V different time gaps open cell\
	Host : 192.168.0.2
Device : SP-150e (SN .005491)
Address : 192.168.0.91
EC-LAB for windows v11.71 (software)
Internet server v28.00 (firmware)
Command interpretor v14.01 (firmware)
Electrode material : 
Initial state : 
Electrolyte : 
Comments : 
Current amplifier : SP-150eB-20A
Electrode surface area : 0.001 cm²
Characteristic mass : 0.001 g
Equivalent Weight : 0.000 g/eq.
Density : 0.000 g/cm3
Volume (V) : 0.001 cm³
Record Analogic IN 1
Text export
   Mode : Standard
   Time format : Elapsed
Cycle Definition : Charge/Discharge alternance
tR (h:m:s)          0:00:30.0000        
dER/dt (mV/h)       1.0                 
record              <Ewe>               
dER (mV)            10.00               
dtR (s)             0.5000              
E range min (V)     -2.500              
E range max (V)     2.500               

mode	error	time/s	<Ewe/V>	Analog IN 1/V	
3	0	4.202985991924652E+002	1.0050343E+000	4.2035979E-005
3	0	4.207985991798341E+002	1.1853849E+000	-1.5220648E-005
3	0	4.212985991672031E+002	1.0694277E+000	6.1121522E-005
3	0	4.217985991545720E+002	6.5596390E-001	-9.1562819E-005
3	0	4.222985991419409E+002	3.5668129E-001	8.0207064E-005
3	0	4.227985991293099E+002	3.1170627E-001	-5.3391734E-005
3	0	4.232985991166788E+002	3.0378789E-001	-5.3391734E-005
3	0	4.237985991040478E+002	2.9759818E-001	-1.5220648E-005
3	0	4.242985990914167E+002	2.9250672E-001	-1.1064836E-004
3	0	4.247985990787856E+002	2.8857306E-001	-2.2516162E-004
3	0	4.252985990661546E+002	2.8555661E-001	-2.0607607E-004
3	0	4.257985990535235E+002	2.8319868E-001	-5.3391734E-005
3	0	4.262985990408924E+002	2.8130603E-001	6.1121522E-005
3	0	4.267985990282614E+002	2.7974012E-001	-7.2477276E-005
3	0	4.272985990156303E+002	2.7841973E-001	1.1837815E-004
3	0	4.277985990029993E+002	2.7726984E-001	-1.1064836E-004
3	0	4.282985989903682E+002	2.7623436E-001	-1.5220648E-005
3	0	4.287985989777371E+002	2.7530402E-001	-1.1064836E-004
3	0	4.292985989651061E+002	2.7450016E-001	2.2950437E-005
3	0	4.297985989524750E+002	2.7375653E-001	-1.1064836E-004
3	0	4.302985989398439E+002	2.7305701E-001	-9.1562819E-005
3	0	4.307985989272129E+002	2.7239716E-001	-9.1562819E-005
3	0	4.312985989145818E+002	2.7176914E-001	-1.1064836E-004
3	0	4.317985989019508E+002	2.7114782E-001	-5.3391734E-005
3	0	4.322985988893197E+002	2.7053943E-001	-1.6790499E-004
3	0	4.327985988766886E+002	2.6993591E-001	-3.4306191E-005
3	0	4.332985988640576E+002	2.6939631E-001	3.8648941E-006
3	0	4.337985988514265E+002	2.6887175E-001	3.8648941E-006
3	0	4.342985988387954E+002	2.6834989E-001	-3.4306191E-005
3	0	4.347985988261644E+002	2.6783276E-001	-7.2477276E-005
3	0	4.352985988135333E+002	2.6732394E-001	-5.3391734E-005
3	0	4.357985988009023E+002	2.6680332E-001	-1.5220648E-005
3	0	4.362985987882712E+002	2.6626635E-001	6.1121522E-005
3	0	4.367985987756401E+002	2.6573640E-001	3.8648941E-006
3	0	4.372985987630091E+002	2.6523143E-001	-1.5220648E-005
3	0	4.377985987503780E+002	2.6475614E-001	-1.4881945E-004
3	0	4.382985987377469E+002	2.6428327E-001	-1.5220648E-005
3	0	4.387985987251159E+002	2.6381120E-001	-7.2477276E-005
3	0	4.392985987124848E+002	2.6334268E-001	3.8648941E-006
3	0	4.397985986998538E+002	2.6287046E-001	-5.3391734E-005
3	0	4.402985986872227E+002	2.6237333E-001	-9.1562819E-005
3	0	4.407985986745916E+002	2.6186508E-001	-7.2477276E-005
3	0	4.412985986619606E+002	2.6139456E-001	6.1121522E-005
3	0	4.417985986493295E+002	2.6094446E-001	-7.2477276E-005
3	0	4.422985986366984E+002	2.6050079E-001	-5.3391734E-005
3	0	4.427985986240674E+002	2.6004630E-001	-3.4306191E-005
3	0	4.432985986114363E+002	2.5960273E-001	-5.3391734E-005
3	0	4.437985985988053E+002	2.5915644E-001	-1.1064836E-004
3	0	4.442985985861742E+002	2.5868440E-001	-1.1064836E-004
3	0	4.447985985735431E+002	2.5820789E-001	-9.1562819E-005
3	0	4.452985985609121E+002	2.5776386E-001	-7.2477276E-005
3	0	4.457985985482810E+002	2.5733894E-001	-1.2973390E-004
3	0	4.462985985356499E+002	2.5691324E-001	-7.2477276E-005
3	0	4.467985985230189E+002	2.5648955E-001	-1.5220648E-005
3	0	4.472985985103878E+002	2.5606972E-001	-3.0150381E-004
3	0	4.477985984977568E+002	2.5564432E-001	2.2950437E-005
3	0	4.482985984851257E+002	2.5520110E-001	-3.4306191E-005
3	0	4.487985984724946E+002	2.5475115E-001	-3.4306191E-005
3	0	4.492985984598636E+002	2.5434542E-001	-1.1064836E-004
3	0	4.497985984472325E+002	2.5395033E-001	-1.2973390E-004
3	0	4.498335984463483E+002	2.5373945E-001	-1.5220648E-005