EC-Lab ASCII FILE
Nb header lines : 48                          

Open Circuit Voltage

Run on channel : 1 (SN 81504)
User : 
CE vs. WE compliance from -10 V to 10 V
Electrode connection : standard
Potential control : Ewe
Ewe ctrl range : min = -2.50 V, max = 2.50 V
Safety Limits :
	Do not start on E overload
Acquisition started on : 05/07/2026 14:16:32.051
Loaded Setting File :  C:\PEM-WE_measurements\2026\372_IV_IV IrOx, 5 min Pt, 30 min C, etched cathode\new station\Loopeis new\1,46 V different time gaps open cell\Loopeis 1,46V_30s_2_PEIS from 65kHz to 10kHz.mps
Saved on :
	File : L_02_Loopeis 1,46V_30s_2_PEIS from 65kHz to 10kHz_20_OCV_C01.mpr
	Directory : C:\PEM-WE_measurements\2026\372_IV_IV IrOx, 5 min Pt, 30 min C, etched cathode\new station\Loopeis new\1,46 V different time gaps open cell\
	Host : 192.168.0.2
Device : SP-150e (SN .005491)
Address : 192.168.0.91
EC-LAB for windows v11.71 (software)
Internet server v28.00 (firmware)
Command interpretor v14.01 (firmware)
Electrode material : 
Initial state : 
Electrolyte : 
Comments : 
Current amplifier : SP-150eB-20A
Electrode surface area : 0.001 cm²
Characteristic mass : 0.001 g
Equivalent Weight : 0.000 g/eq.
Density : 0.000 g/cm3
Volume (V) : 0.001 cm³
Record Analogic IN 1
Text export
   Mode : Standard
   Time format : Elapsed
Cycle Definition : Charge/Discharge alternance
tR (h:m:s)          0:00:30.0000        
dER/dt (mV/h)       1.0                 
record              <Ewe>               
dER (mV)            10.00               
dtR (s)             0.5000              
E range min (V)     -2.500              
E range max (V)     2.500               

mode	error	time/s	<Ewe/V>	Analog IN 1/V	
3	0	7.241411749069666E+002	1.0072589E+000	-7.2477276E-005
3	0	7.246411748943356E+002	1.1879610E+000	-9.1562819E-005
3	0	7.251411748817045E+002	1.0785451E+000	6.1121522E-005
3	0	7.256411748690734E+002	6.8336594E-001	3.8648941E-006
3	0	7.261411748564424E+002	3.6153972E-001	-3.4306191E-005
3	0	7.266411748438113E+002	3.1144112E-001	-3.4306191E-005
3	0	7.271411748311803E+002	3.0331874E-001	2.2950437E-005
3	0	7.276411748185492E+002	2.9700446E-001	-9.1562819E-005
3	0	7.281411748059181E+002	2.9181054E-001	-3.4306191E-005
3	0	7.286411747932871E+002	2.8781715E-001	-1.6790499E-004
3	0	7.291411747806560E+002	2.8475946E-001	-5.3391734E-005
3	0	7.296411747680249E+002	2.8235686E-001	-3.4306191E-005
3	0	7.301411747553939E+002	2.8043699E-001	3.8648941E-006
3	0	7.306411747427628E+002	2.7886146E-001	-1.2973390E-004
3	0	7.311411747301318E+002	2.7752560E-001	2.2950437E-005
3	0	7.316411747175007E+002	2.7635396E-001	-1.8699054E-004
3	0	7.321411747048696E+002	2.7530915E-001	-7.2477276E-005
3	0	7.326411746922386E+002	2.7440432E-001	4.2035979E-005
3	0	7.331411746796075E+002	2.7359036E-001	-1.2973390E-004
3	0	7.336411746669764E+002	2.7283412E-001	-1.1064836E-004
3	0	7.341411746543454E+002	2.7214304E-001	-7.2477276E-005
3	0	7.346411746417143E+002	2.7148032E-001	6.1121522E-005
3	0	7.351411746290833E+002	2.7084196E-001	-1.2973390E-004
3	0	7.356411746164522E+002	2.7022031E-001	-5.3391734E-005
3	0	7.361411746038211E+002	2.6961464E-001	-1.2973390E-004
3	0	7.366411745911901E+002	2.6904073E-001	-5.3391734E-005
3	0	7.371411745785590E+002	2.6849523E-001	-7.2477276E-005
3	0	7.376411745659279E+002	2.6795256E-001	-9.1562819E-005
3	0	7.381411745532969E+002	2.6743490E-001	-7.2477276E-005
3	0	7.386411745406658E+002	2.6692289E-001	9.9292607E-005
3	0	7.391411745280348E+002	2.6641059E-001	3.8648941E-006
3	0	7.396411745154037E+002	2.6588234E-001	3.8648941E-006
3	0	7.401411745027726E+002	2.6534939E-001	-7.2477276E-005
3	0	7.406411744901416E+002	2.6484182E-001	-9.1562819E-005
3	0	7.411411744775105E+002	2.6436624E-001	4.2035979E-005
3	0	7.416411744648794E+002	2.6387888E-001	-3.4306191E-005
3	0	7.421411744522484E+002	2.6340091E-001	-1.1064836E-004
3	0	7.426411744396173E+002	2.6292780E-001	-9.1562819E-005
3	0	7.431411744269863E+002	2.6245117E-001	-9.1562819E-005
3	0	7.436411744143552E+002	2.6196164E-001	-1.5220648E-005
3	0	7.441411744017241E+002	2.6146483E-001	-7.2477276E-005
3	0	7.446411743890931E+002	2.6098582E-001	-1.6790499E-004
3	0	7.451411743764620E+002	2.6053470E-001	-3.4306191E-005
3	0	7.456411743638309E+002	2.6007682E-001	-1.1064836E-004
3	0	7.461411743511999E+002	2.5963086E-001	2.2950437E-005
3	0	7.466411743385688E+002	2.5918952E-001	4.2035979E-005
3	0	7.471411743259378E+002	2.5874043E-001	1.3746369E-004
3	0	7.476411743133067E+002	2.5827733E-001	-7.2477276E-005
3	0	7.481411743006756E+002	2.5780147E-001	2.2950437E-005
3	0	7.486411742880446E+002	2.5734749E-001	-1.1064836E-004
3	0	7.491411742754135E+002	2.5692478E-001	2.2950437E-005
3	0	7.496411742627824E+002	2.5649390E-001	-1.5220648E-005
3	0	7.501411742501514E+002	2.5606963E-001	-7.2477276E-005
3	0	7.506411742375203E+002	2.5564843E-001	-1.5220648E-005
3	0	7.511411742248893E+002	2.5522587E-001	-7.2477276E-005
3	0	7.516411742122582E+002	2.5479215E-001	-5.3391734E-005
3	0	7.521411741996271E+002	2.5434428E-001	-9.1562819E-005
3	0	7.526411741869961E+002	2.5392097E-001	-3.4306191E-005
3	0	7.531411741743650E+002	2.5352597E-001	-5.3391734E-005
3	0	7.536411741617339E+002	2.5311580E-001	-1.5220648E-005
3	0	7.536771741608245E+002	2.5290254E-001	-7.2477276E-005