EC-Lab ASCII FILE
Nb header lines : 48                          

Open Circuit Voltage

Run on channel : 1 (SN 81504)
User : 
CE vs. WE compliance from -10 V to 10 V
Electrode connection : standard
Potential control : Ewe
Ewe ctrl range : min = -2.50 V, max = 2.50 V
Safety Limits :
	Do not start on E overload
Acquisition started on : 05/07/2026 14:16:32.051
Loaded Setting File :  C:\PEM-WE_measurements\2026\372_IV_IV IrOx, 5 min Pt, 30 min C, etched cathode\new station\Loopeis new\1,46 V different time gaps open cell\Loopeis 1,46V_30s_2_PEIS from 65kHz to 10kHz.mps
Saved on :
	File : L_02_Loopeis 1,46V_30s_2_PEIS from 65kHz to 10kHz_14_OCV_C01.mpr
	Directory : C:\PEM-WE_measurements\2026\372_IV_IV IrOx, 5 min Pt, 30 min C, etched cathode\new station\Loopeis new\1,46 V different time gaps open cell\
	Host : 192.168.0.2
Device : SP-150e (SN .005491)
Address : 192.168.0.91
EC-LAB for windows v11.71 (software)
Internet server v28.00 (firmware)
Command interpretor v14.01 (firmware)
Electrode material : 
Initial state : 
Electrolyte : 
Comments : 
Current amplifier : SP-150eB-20A
Electrode surface area : 0.001 cm²
Characteristic mass : 0.001 g
Equivalent Weight : 0.000 g/eq.
Density : 0.000 g/cm3
Volume (V) : 0.001 cm³
Record Analogic IN 1
Text export
   Mode : Standard
   Time format : Elapsed
Cycle Definition : Charge/Discharge alternance
tR (h:m:s)          0:00:30.0000        
dER/dt (mV/h)       1.0                 
record              <Ewe>               
dER (mV)            10.00               
dtR (s)             0.5000              
E range min (V)     -2.500              
E range max (V)     2.500               

mode	error	time/s	<Ewe/V>	Analog IN 1/V	
3	0	4.953341972969065E+002	1.2539196E+000	-1.1064836E-004
3	0	4.958341972842754E+002	1.2284575E+000	-3.4306191E-005
3	0	4.963341972716444E+002	1.1140960E+000	-1.1064836E-004
3	0	4.968341972590133E+002	7.0072651E-001	-1.2973390E-004
3	0	4.973341972463822E+002	3.8640746E-001	6.1121522E-005
3	0	4.978341972337512E+002	3.3662897E-001	3.8648941E-006
3	0	4.983341972211201E+002	3.2681975E-001	8.0207064E-005
3	0	4.988341972084891E+002	3.1953913E-001	-5.3391734E-005
3	0	4.993341971958580E+002	3.1388271E-001	-1.2973390E-004
3	0	4.998341971832269E+002	3.0962995E-001	3.8648941E-006
3	0	5.003341971705959E+002	3.0637172E-001	-9.1562819E-005
3	0	5.008341971579648E+002	3.0382383E-001	9.9292607E-005
3	0	5.013341971453337E+002	3.0181798E-001	-1.2973390E-004
3	0	5.018341971327027E+002	3.0014578E-001	-1.2973390E-004
3	0	5.023341971200716E+002	2.9871958E-001	2.2950437E-005
3	0	5.028341971074406E+002	2.9748771E-001	-5.3391734E-005
3	0	5.033341970948095E+002	2.9639360E-001	4.2035979E-005
3	0	5.038341970821784E+002	2.9540497E-001	-3.4306191E-005
3	0	5.043341970695474E+002	2.9448441E-001	-3.4306191E-005
3	0	5.048341970569163E+002	2.9363632E-001	3.8648941E-006
3	0	5.053341970442852E+002	2.9288241E-001	3.8648941E-006
3	0	5.058341970316542E+002	2.9216769E-001	-3.4306191E-005
3	0	5.063341970190231E+002	2.9147413E-001	-5.3391734E-005
3	0	5.068341970063921E+002	2.9081905E-001	6.1121522E-005
3	0	5.073341969937610E+002	2.9018468E-001	2.2950437E-005
3	0	5.078341969811299E+002	2.8956410E-001	-1.1064836E-004
3	0	5.083341969684989E+002	2.8893831E-001	3.8648941E-006
3	0	5.088341969558678E+002	2.8832448E-001	-1.2973390E-004
3	0	5.093341969432367E+002	2.8775743E-001	-5.3391734E-005
3	0	5.098341969306057E+002	2.8720114E-001	8.0207064E-005
3	0	5.103341969179746E+002	2.8664589E-001	-3.4306191E-005
3	0	5.108341969053436E+002	2.8609744E-001	-3.4306191E-005
3	0	5.113341968927125E+002	2.8556097E-001	3.8648941E-006
3	0	5.118341968800814E+002	2.8502488E-001	-7.2477276E-005
3	0	5.123341968674504E+002	2.8447729E-001	-7.2477276E-005
3	0	5.128341968548193E+002	2.8391713E-001	-5.3391734E-005
3	0	5.133341968421882E+002	2.8340626E-001	-7.2477276E-005
3	0	5.138341968295572E+002	2.8289419E-001	-7.2477276E-005
3	0	5.143341968169261E+002	2.8238806E-001	-1.5220648E-005
3	0	5.148341968042951E+002	2.8188828E-001	3.8648941E-006
3	0	5.153341967916640E+002	2.8139025E-001	4.2035979E-005
3	0	5.158341967790329E+002	2.8088194E-001	-9.1562819E-005
3	0	5.163341967664019E+002	2.8036594E-001	-1.2973390E-004
3	0	5.168341967537708E+002	2.7984819E-001	2.2950437E-005
3	0	5.173341967411397E+002	2.7936745E-001	-1.2973390E-004
3	0	5.178341967285087E+002	2.7889818E-001	-1.1064836E-004
3	0	5.183341967158776E+002	2.7842203E-001	2.2950437E-005
3	0	5.188341967032466E+002	2.7794755E-001	-1.4881945E-004
3	0	5.193341966906155E+002	2.7748248E-001	-5.3391734E-005
3	0	5.198341966779844E+002	2.7700898E-001	-7.2477276E-005
3	0	5.203341966653534E+002	2.7652186E-001	-3.4306191E-005
3	0	5.208341966527223E+002	2.7603227E-001	-1.2973390E-004
3	0	5.213341966400913E+002	2.7558950E-001	-1.6790499E-004
3	0	5.218341966274602E+002	2.7514365E-001	-1.1064836E-004
3	0	5.223341966148291E+002	2.7470401E-001	-5.3391734E-005
3	0	5.228341966021981E+002	2.7426821E-001	-9.1562819E-005
3	0	5.233341965895670E+002	2.7383161E-001	-7.2477276E-005
3	0	5.238341965769359E+002	2.7339560E-001	-7.2477276E-005
3	0	5.243341965643049E+002	2.7294472E-001	4.2035979E-005
3	0	5.248341965516738E+002	2.7249342E-001	-1.1064836E-004
3	0	5.248345965516637E+002	2.7233449E-001	-3.4306191E-005