EC-Lab ASCII FILE
Nb header lines : 48                          

Open Circuit Voltage

Run on channel : 1 (SN 81504)
User : 
CE vs. WE compliance from -10 V to 10 V
Electrode connection : standard
Potential control : Ewe
Ewe ctrl range : min = -2.50 V, max = 2.50 V
Safety Limits :
	Do not start on E overload
Acquisition started on : 05/07/2026 14:16:32.051
Loaded Setting File :  C:\PEM-WE_measurements\2026\372_IV_IV IrOx, 5 min Pt, 30 min C, etched cathode\new station\Loopeis new\1,46 V different time gaps open cell\Loopeis 1,46V_30s_2_PEIS from 65kHz to 10kHz.mps
Saved on :
	File : L_02_Loopeis 1,46V_30s_2_PEIS from 65kHz to 10kHz_02_OCV_C01.mpr
	Directory : C:\PEM-WE_measurements\2026\372_IV_IV IrOx, 5 min Pt, 30 min C, etched cathode\new station\Loopeis new\1,46 V different time gaps open cell\
	Host : 192.168.0.2
Device : SP-150e (SN .005491)
Address : 192.168.0.91
EC-LAB for windows v11.71 (software)
Internet server v28.00 (firmware)
Command interpretor v14.01 (firmware)
Electrode material : 
Initial state : 
Electrolyte : 
Comments : 
Current amplifier : SP-150eB-20A
Electrode surface area : 0.001 cm²
Characteristic mass : 0.001 g
Equivalent Weight : 0.000 g/eq.
Density : 0.000 g/cm3
Volume (V) : 0.001 cm³
Record Analogic IN 1
Text export
   Mode : Standard
   Time format : Elapsed
Cycle Definition : Charge/Discharge alternance
tR (h:m:s)          0:00:30.0000        
dER/dt (mV/h)       1.0                 
record              <Ewe>               
dER (mV)            10.00               
dtR (s)             0.5000              
E range min (V)     -2.500              
E range max (V)     2.500               

mode	error	time/s	<Ewe/V>	Analog IN 1/V	
3	0	4.549979885057837E+001	1.2438561E+000	-3.4306191E-005
3	0	4.599979883794731E+001	1.2101635E+000	-9.1562819E-005
3	0	4.649979882531625E+001	1.0337782E+000	-1.2973390E-004
3	0	4.699979881268519E+001	5.3965700E-001	3.8648941E-006
3	0	4.749979880005412E+001	3.5629764E-001	-1.5220648E-005
3	0	4.799979878742306E+001	3.3185565E-001	-1.5220648E-005
3	0	4.849979877479200E+001	3.2355401E-001	-1.5220648E-005
3	0	4.899979876216094E+001	3.1715074E-001	2.2950437E-005
3	0	4.949979874952987E+001	3.1232011E-001	4.2035979E-005
3	0	4.999979873689881E+001	3.0871221E-001	3.8648941E-006
3	0	5.049979872426775E+001	3.0594730E-001	-5.3391734E-005
3	0	5.099979871163669E+001	3.0376723E-001	3.8648941E-006
3	0	5.149979869900562E+001	3.0199757E-001	4.2035979E-005
3	0	5.199979868637456E+001	3.0050999E-001	-1.2973390E-004
3	0	5.249979867374350E+001	2.9923135E-001	-1.1064836E-004
3	0	5.299979866111244E+001	2.9809469E-001	2.2950437E-005
3	0	5.349979864848137E+001	2.9704514E-001	-1.5220648E-005
3	0	5.399979863585031E+001	2.9611832E-001	3.8648941E-006
3	0	5.449979862321925E+001	2.9528394E-001	3.8648941E-006
3	0	5.499979861058819E+001	2.9450870E-001	-3.4306191E-005
3	0	5.549979859795712E+001	2.9377219E-001	-9.1562819E-005
3	0	5.599979858532606E+001	2.9307577E-001	-7.2477276E-005
3	0	5.649979857269500E+001	2.9240686E-001	-7.2477276E-005
3	0	5.699979856006394E+001	2.9173195E-001	8.0207064E-005
3	0	5.749979854743287E+001	2.9105338E-001	-9.1562819E-005
3	0	5.799979853480181E+001	2.9042372E-001	-3.4306191E-005
3	0	5.849979852217075E+001	2.8983080E-001	-1.1064836E-004
3	0	5.899979850953969E+001	2.8924683E-001	-1.5220648E-005
3	0	5.949979849690862E+001	2.8868532E-001	4.2035979E-005
3	0	5.999979848427756E+001	2.8813553E-001	-9.1562819E-005
3	0	6.049979847164650E+001	2.8757191E-001	-1.4881945E-004
3	0	6.099979845901544E+001	2.8699812E-001	4.2035979E-005
3	0	6.149979844638438E+001	2.8641543E-001	1.3746369E-004
3	0	6.199979843375331E+001	2.8585851E-001	-1.6790499E-004
3	0	6.249979842112225E+001	2.8532305E-001	-1.5220648E-005
3	0	6.299979840849119E+001	2.8479889E-001	6.1121522E-005
3	0	6.349979839586013E+001	2.8428537E-001	-5.3391734E-005
3	0	6.399979838322906E+001	2.8377339E-001	8.0207064E-005
3	0	6.449979837059800E+001	2.8326046E-001	1.1837815E-004
3	0	6.499979835796694E+001	2.8272343E-001	6.1121522E-005
3	0	6.549979834533588E+001	2.8218082E-001	4.2035979E-005
3	0	6.599979833270481E+001	2.8165737E-001	3.8648941E-006
3	0	6.649979832007375E+001	2.8115135E-001	2.2950437E-005
3	0	6.699979830744269E+001	2.8065664E-001	3.8648941E-006
3	0	6.749979829481163E+001	2.8016332E-001	-1.1064836E-004
3	0	6.799979828218056E+001	2.7968505E-001	-3.4306191E-005
3	0	6.849979826954950E+001	2.7920395E-001	-1.5220648E-005
3	0	6.899979825691844E+001	2.7869931E-001	6.1121522E-005
3	0	6.949979824428738E+001	2.7817929E-001	-1.2973390E-004
3	0	6.999979823165631E+001	2.7768850E-001	-1.5220648E-005
3	0	7.049979821902525E+001	2.7721936E-001	-5.3391734E-005
3	0	7.099979820639419E+001	2.7675176E-001	-1.5220648E-005
3	0	7.149979819376313E+001	2.7628440E-001	-1.6790499E-004
3	0	7.199979818113206E+001	2.7583149E-001	-5.3391734E-005
3	0	7.249979816850100E+001	2.7536803E-001	-1.5220648E-005
3	0	7.299979815586994E+001	2.7489093E-001	2.2950437E-005
3	0	7.349979814323888E+001	2.7440476E-001	-1.8699054E-004
3	0	7.399979813060781E+001	2.7394950E-001	8.0207064E-005
3	0	7.449979811797675E+001	2.7350816E-001	-1.4881945E-004
3	0	7.499979810534569E+001	2.7307382E-001	-1.5220648E-005
3	0	7.500019810533558E+001	2.7287838E-001	-1.1064836E-004