EC-Lab ASCII FILE
Nb header lines : 55                          

Open Circuit Voltage

Run on channel : 1 (SN 81504)
User : 
CE vs. WE compliance from -10 V to 10 V
Electrode connection : standard
Potential control : Ewe
Ewe ctrl range : min = -2.50 V, max = 2.50 V
Safety Limits :
	Do not start on E overload
Acquisition started on : 05/07/2026 14:29:10.843
Loaded Setting File :  C:\PEM-WE_measurements\2026\372_IV_IV IrOx, 5 min Pt, 30 min C, etched cathode\new station\Loopeis new\1,46 V different time gaps open cell\Loopeis 1,46V_30s_3_PEIS from 6500Hz to 1000Hz.mps
Saved on :
	File : L_03_Loopeis 1,46V_30s_3_PEIS from 6500Hz to 1000Hz_06_OCV_C01.mpr
	Directory : C:\PEM-WE_measurements\2026\372_IV_IV IrOx, 5 min Pt, 30 min C, etched cathode\new station\Loopeis new\1,46 V different time gaps open cell\
	Host : 192.168.0.2
Device : SP-150e (SN .005491)
Address : 192.168.0.91
EC-LAB for windows v11.71 (software)
Internet server v28.00 (firmware)
Command interpretor v14.01 (firmware)
Electrode material : 
Initial state : 
Electrolyte : 
Comments : 
Current amplifier : SP-150eB-20A
Electrode surface area : 0.001 cm²
Characteristic mass : 0.001 g
Equivalent Weight : 0.000 g/eq.
Density : 0.000 g/cm3
Volume (V) : 0.001 cm³
Record Analogic IN 1
Text export
   Mode : Standard
   Time format : Elapsed
Cycle Definition : Charge/Discharge alternance
External device configuration :
   device type : Temperature Probe
   device name : Other
   Analog IN 1 : 
      unit : T/Â°C
      max : 100.000 at 2.000 V
      min : 0.000 at 1.460 V
tR (h:m:s)          0:00:30.0000        
dER/dt (mV/h)       1.0                 
record              <Ewe>               
dER (mV)            10.00               
dtR (s)             0.5000              
E range min (V)     -2.500              
E range max (V)     2.500               

mode	error	time/s	<Ewe/V>	Analog IN 1/V	
3	0	1.956865983441821E+002	1.2615300E+000	-2.7038742E+002
3	0	1.961865983315511E+002	1.2415110E+000	-2.7039093E+002
3	0	1.966865983189200E+002	1.1517164E+000	-2.7036972E+002
3	0	1.971865983062889E+002	8.2589537E-001	-2.7038385E+002
3	0	1.976865982936579E+002	4.2379427E-001	-2.7039447E+002
3	0	1.981865982810268E+002	3.4380436E-001	-2.7038385E+002
3	0	1.986865982683958E+002	3.3195302E-001	-2.7037326E+002
3	0	1.991865982557647E+002	3.2415608E-001	-2.7037326E+002
3	0	1.996865982431336E+002	3.1800660E-001	-2.7036618E+002
3	0	2.001865982305026E+002	3.1337425E-001	-2.7037326E+002
3	0	2.006865982178715E+002	3.0986014E-001	-2.7037326E+002
3	0	2.011865982052404E+002	3.0712464E-001	-2.7038385E+002
3	0	2.016865981926094E+002	3.0490243E-001	-2.7038742E+002
3	0	2.021865981799783E+002	3.0305851E-001	-2.7035559E+002
3	0	2.026865981673473E+002	3.0149895E-001	-2.7037677E+002
3	0	2.031865981547162E+002	3.0018175E-001	-2.7037677E+002
3	0	2.036865981420851E+002	2.9903480E-001	-2.7039447E+002
3	0	2.041865981294541E+002	2.9801410E-001	-2.7038031E+002
3	0	2.046865981168230E+002	2.9707465E-001	-2.7035205E+002
3	0	2.051865981041919E+002	2.9620776E-001	-2.7039801E+002
3	0	2.056865980915609E+002	2.9538739E-001	-2.7038031E+002
3	0	2.061865980789298E+002	2.9458058E-001	-2.7037326E+002
3	0	2.066865980662988E+002	2.9382479E-001	-2.7038742E+002
3	0	2.071865980536677E+002	2.9314640E-001	-2.7036972E+002
3	0	2.076865980410366E+002	2.9249030E-001	-2.7035559E+002
3	0	2.081865980284056E+002	2.9185602E-001	-2.7037326E+002
3	0	2.086865980157745E+002	2.9124686E-001	-2.7038742E+002
3	0	2.091865980031434E+002	2.9064274E-001	-2.7038385E+002
3	0	2.096865979905124E+002	2.9004198E-001	-2.7040155E+002
3	0	2.101865979778813E+002	2.8942218E-001	-2.7038031E+002
3	0	2.106865979652503E+002	2.8882551E-001	-2.7039093E+002
3	0	2.111865979526192E+002	2.8828126E-001	-2.7038742E+002
3	0	2.116865979399881E+002	2.8772780E-001	-2.7036972E+002
3	0	2.121865979273571E+002	2.8718901E-001	-2.7038385E+002
3	0	2.126865979147260E+002	2.8665751E-001	-2.7036267E+002
3	0	2.131865979020949E+002	2.8613132E-001	-2.7035559E+002
3	0	2.136865978894639E+002	2.8558958E-001	-2.7040860E+002
3	0	2.141865978768328E+002	2.8503054E-001	-2.7038031E+002
3	0	2.146865978642018E+002	2.8448710E-001	-2.7039447E+002
3	0	2.151865978515707E+002	2.8397861E-001	-2.7038031E+002
3	0	2.156865978389396E+002	2.8347906E-001	-2.7037677E+002
3	0	2.161865978263086E+002	2.8298500E-001	-2.7035559E+002
3	0	2.166865978136775E+002	2.8249174E-001	-2.7036972E+002
3	0	2.171865978010464E+002	2.8200161E-001	-2.7041214E+002
3	0	2.176865977884154E+002	2.8150189E-001	-2.7038742E+002
3	0	2.181865977757843E+002	2.8098124E-001	-2.7038742E+002
3	0	2.186865977631533E+002	2.8047708E-001	-2.7037326E+002
3	0	2.191865977505222E+002	2.8001818E-001	-2.7036618E+002
3	0	2.196865977378911E+002	2.7957284E-001	-2.7036618E+002
3	0	2.201865977252601E+002	2.7911690E-001	-2.7036267E+002
3	0	2.206865977126290E+002	2.7866706E-001	-2.7037677E+002
3	0	2.211865976999979E+002	2.7821958E-001	-2.7038385E+002
3	0	2.216865976873669E+002	2.7775291E-001	-2.7038385E+002
3	0	2.221865976747358E+002	2.7726665E-001	-2.7038385E+002
3	0	2.226865976621048E+002	2.7679020E-001	-2.7037677E+002
3	0	2.231865976494737E+002	2.7635148E-001	-2.7036972E+002
3	0	2.236865976368426E+002	2.7592185E-001	-2.7038742E+002
3	0	2.241865976242116E+002	2.7548981E-001	-2.7034497E+002
3	0	2.246865976115805E+002	2.7505487E-001	-2.7035559E+002
3	0	2.251865975989494E+002	2.7463695E-001	-2.7036972E+002
3	0	2.251869975989393E+002	2.7430966E-001	-2.7038385E+002