EC-Lab ASCII FILE
Nb header lines : 55                          

Open Circuit Voltage

Run on channel : 1 (SN 81504)
User : 
CE vs. WE compliance from -10 V to 10 V
Electrode connection : standard
Potential control : Ewe
Ewe ctrl range : min = -2.50 V, max = 2.50 V
Safety Limits :
	Do not start on E overload
Acquisition started on : 05/07/2026 14:29:10.843
Loaded Setting File :  C:\PEM-WE_measurements\2026\372_IV_IV IrOx, 5 min Pt, 30 min C, etched cathode\new station\Loopeis new\1,46 V different time gaps open cell\Loopeis 1,46V_30s_3_PEIS from 6500Hz to 1000Hz.mps
Saved on :
	File : L_03_Loopeis 1,46V_30s_3_PEIS from 6500Hz to 1000Hz_20_OCV_C01.mpr
	Directory : C:\PEM-WE_measurements\2026\372_IV_IV IrOx, 5 min Pt, 30 min C, etched cathode\new station\Loopeis new\1,46 V different time gaps open cell\
	Host : 192.168.0.2
Device : SP-150e (SN .005491)
Address : 192.168.0.91
EC-LAB for windows v11.71 (software)
Internet server v28.00 (firmware)
Command interpretor v14.01 (firmware)
Electrode material : 
Initial state : 
Electrolyte : 
Comments : 
Current amplifier : SP-150eB-20A
Electrode surface area : 0.001 cm²
Characteristic mass : 0.001 g
Equivalent Weight : 0.000 g/eq.
Density : 0.000 g/cm3
Volume (V) : 0.001 cm³
Record Analogic IN 1
Text export
   Mode : Standard
   Time format : Elapsed
Cycle Definition : Charge/Discharge alternance
External device configuration :
   device type : Temperature Probe
   device name : Other
   Analog IN 1 : 
      unit : T/Â°C
      max : 100.000 at 2.000 V
      min : 0.000 at 1.460 V
tR (h:m:s)          0:00:30.0000        
dER/dt (mV/h)       1.0                 
record              <Ewe>               
dER (mV)            10.00               
dtR (s)             0.5000              
E range min (V)     -2.500              
E range max (V)     2.500               

mode	error	time/s	<Ewe/V>	Analog IN 1/V	
3	0	7.272315984904708E+002	1.0308323E+000	-2.7038031E+002
3	0	7.277315984778397E+002	1.2035755E+000	-2.7038385E+002
3	0	7.282315984652087E+002	1.1283253E+000	-2.7038031E+002
3	0	7.287315984525776E+002	8.8259888E-001	-2.7035913E+002
3	0	7.292315984399465E+002	4.4036803E-001	-2.7039801E+002
3	0	7.297315984273155E+002	3.2200161E-001	-2.7039801E+002
3	0	7.302315984146844E+002	3.0908293E-001	-2.7037677E+002
3	0	7.307315984020534E+002	3.0208367E-001	-2.7038031E+002
3	0	7.312315983894223E+002	2.9613382E-001	-2.7038742E+002
3	0	7.317315983767912E+002	2.9147026E-001	-2.7038031E+002
3	0	7.322315983641602E+002	2.8788459E-001	-2.7040506E+002
3	0	7.327315983515291E+002	2.8508908E-001	-2.7039093E+002
3	0	7.332315983388980E+002	2.8284353E-001	-2.7039093E+002
3	0	7.337315983262670E+002	2.8099844E-001	-2.7039801E+002
3	0	7.342315983136359E+002	2.7947345E-001	-2.7040506E+002
3	0	7.347315983010049E+002	2.7818617E-001	-2.7037326E+002
3	0	7.352315982883738E+002	2.7705890E-001	-2.7038742E+002
3	0	7.357315982757427E+002	2.7606013E-001	-2.7038742E+002
3	0	7.362315982631117E+002	2.7515861E-001	-2.7038385E+002
3	0	7.367315982504806E+002	2.7433813E-001	-2.7038031E+002
3	0	7.372315982378495E+002	2.7355269E-001	-2.7037677E+002
3	0	7.377315982252185E+002	2.7280253E-001	-2.7038742E+002
3	0	7.382315982125874E+002	2.7211636E-001	-2.7040506E+002
3	0	7.387315981999564E+002	2.7146953E-001	-2.7034851E+002
3	0	7.392315981873253E+002	2.7085534E-001	-2.7039447E+002
3	0	7.397315981746942E+002	2.7025652E-001	-2.7038031E+002
3	0	7.402315981620632E+002	2.6968136E-001	-2.7036972E+002
3	0	7.407315981494321E+002	2.6912189E-001	-2.7036972E+002
3	0	7.412315981368010E+002	2.6854885E-001	-2.7036267E+002
3	0	7.417315981241700E+002	2.6797846E-001	-2.7038031E+002
3	0	7.422315981115389E+002	2.6743138E-001	-2.7035913E+002
3	0	7.427315980989079E+002	2.6691923E-001	-2.7038031E+002
3	0	7.432315980862768E+002	2.6640049E-001	-2.7036267E+002
3	0	7.437315980736457E+002	2.6589713E-001	-2.7037677E+002
3	0	7.442315980610147E+002	2.6539955E-001	-2.7036267E+002
3	0	7.447315980483836E+002	2.6489791E-001	-2.7039801E+002
3	0	7.452315980357525E+002	2.6438487E-001	-2.7039447E+002
3	0	7.457315980231215E+002	2.6386145E-001	-2.7038031E+002
3	0	7.462315980104904E+002	2.6336738E-001	-2.7036267E+002
3	0	7.467315979978594E+002	2.6289472E-001	-2.7036618E+002
3	0	7.472315979852283E+002	2.6241410E-001	-2.7039093E+002
3	0	7.477315979725972E+002	2.6194721E-001	-2.7035913E+002
3	0	7.482315979599662E+002	2.6148012E-001	-2.7039447E+002
3	0	7.487315979473351E+002	2.6101202E-001	-2.7039093E+002
3	0	7.492315979347040E+002	2.6053247E-001	-2.7040506E+002
3	0	7.497315979220730E+002	2.6003471E-001	-2.7037326E+002
3	0	7.502315979094419E+002	2.5957355E-001	-2.7038385E+002
3	0	7.507315978968109E+002	2.5912777E-001	-2.7035913E+002
3	0	7.512315978841798E+002	2.5868335E-001	-2.7039447E+002
3	0	7.517315978715487E+002	2.5824511E-001	-2.7035559E+002
3	0	7.522315978589177E+002	2.5780699E-001	-2.7038385E+002
3	0	7.527315978462866E+002	2.5736743E-001	-2.7037326E+002
3	0	7.532315978336555E+002	2.5691089E-001	-2.7038031E+002
3	0	7.537315978210245E+002	2.5644609E-001	-2.7037326E+002
3	0	7.542315978083934E+002	2.5601020E-001	-2.7039447E+002
3	0	7.547315977957624E+002	2.5559744E-001	-2.7038385E+002
3	0	7.552315977831313E+002	2.5517890E-001	-2.7037677E+002
3	0	7.557315977705002E+002	2.5477305E-001	-2.7036618E+002
3	0	7.562315977578692E+002	2.5436884E-001	-2.7038031E+002
3	0	7.567315977452381E+002	2.5395840E-001	-2.7036972E+002
3	0	7.567561977446167E+002	2.5374439E-001	-2.7038385E+002