EC-Lab ASCII FILE
Nb header lines : 55                          

Open Circuit Voltage

Run on channel : 1 (SN 81504)
User : 
CE vs. WE compliance from -10 V to 10 V
Electrode connection : standard
Potential control : Ewe
Ewe ctrl range : min = -2.50 V, max = 2.50 V
Safety Limits :
	Do not start on E overload
Acquisition started on : 05/07/2026 14:29:10.843
Loaded Setting File :  C:\PEM-WE_measurements\2026\372_IV_IV IrOx, 5 min Pt, 30 min C, etched cathode\new station\Loopeis new\1,46 V different time gaps open cell\Loopeis 1,46V_30s_3_PEIS from 6500Hz to 1000Hz.mps
Saved on :
	File : L_03_Loopeis 1,46V_30s_3_PEIS from 6500Hz to 1000Hz_10_OCV_C01.mpr
	Directory : C:\PEM-WE_measurements\2026\372_IV_IV IrOx, 5 min Pt, 30 min C, etched cathode\new station\Loopeis new\1,46 V different time gaps open cell\
	Host : 192.168.0.2
Device : SP-150e (SN .005491)
Address : 192.168.0.91
EC-LAB for windows v11.71 (software)
Internet server v28.00 (firmware)
Command interpretor v14.01 (firmware)
Electrode material : 
Initial state : 
Electrolyte : 
Comments : 
Current amplifier : SP-150eB-20A
Electrode surface area : 0.001 cm²
Characteristic mass : 0.001 g
Equivalent Weight : 0.000 g/eq.
Density : 0.000 g/cm3
Volume (V) : 0.001 cm³
Record Analogic IN 1
Text export
   Mode : Standard
   Time format : Elapsed
Cycle Definition : Charge/Discharge alternance
External device configuration :
   device type : Temperature Probe
   device name : Other
   Analog IN 1 : 
      unit : T/Â°C
      max : 100.000 at 2.000 V
      min : 0.000 at 1.460 V
tR (h:m:s)          0:00:30.0000        
dER/dt (mV/h)       1.0                 
record              <Ewe>               
dER (mV)            10.00               
dtR (s)             0.5000              
E range min (V)     -2.500              
E range max (V)     2.500               

mode	error	time/s	<Ewe/V>	Analog IN 1/V	
3	0	3.456453978269565E+002	1.2616692E+000	-2.7039447E+002
3	0	3.461453978143254E+002	1.2427794E+000	-2.7037326E+002
3	0	3.466453978016943E+002	1.1572431E+000	-2.7038742E+002
3	0	3.471453977890633E+002	8.5724944E-001	-2.7037677E+002
3	0	3.476453977764322E+002	4.3653631E-001	-2.7038385E+002
3	0	3.481453977638012E+002	3.4445223E-001	-2.7036618E+002
3	0	3.486453977511701E+002	3.3166996E-001	-2.7037326E+002
3	0	3.491453977385390E+002	3.2373500E-001	-2.7037677E+002
3	0	3.496453977259080E+002	3.1745279E-001	-2.7039093E+002
3	0	3.501453977132769E+002	3.1270194E-001	-2.7039447E+002
3	0	3.506453977006458E+002	3.0912578E-001	-2.7039093E+002
3	0	3.511453976880148E+002	3.0634159E-001	-2.7038031E+002
3	0	3.516453976753837E+002	3.0410600E-001	-2.7036618E+002
3	0	3.521453976627527E+002	3.0227125E-001	-2.7037677E+002
3	0	3.526453976501216E+002	3.0071560E-001	-2.7036972E+002
3	0	3.531453976374905E+002	2.9936439E-001	-2.7037677E+002
3	0	3.536453976248595E+002	2.9817045E-001	-2.7039447E+002
3	0	3.541453976122284E+002	2.9709870E-001	-2.7038385E+002
3	0	3.546453975995973E+002	2.9615808E-001	-2.7037326E+002
3	0	3.551453975869663E+002	2.9528624E-001	-2.7039093E+002
3	0	3.556453975743352E+002	2.9447737E-001	-2.7038385E+002
3	0	3.561453975617042E+002	2.9372084E-001	-2.7037677E+002
3	0	3.566453975490731E+002	2.9300240E-001	-2.7039447E+002
3	0	3.571453975364420E+002	2.9229975E-001	-2.7037677E+002
3	0	3.576453975238110E+002	2.9160875E-001	-2.7035913E+002
3	0	3.581453975111799E+002	2.9093876E-001	-2.7036267E+002
3	0	3.586453974985488E+002	2.9032284E-001	-2.7037326E+002
3	0	3.591453974859178E+002	2.8972515E-001	-2.7038031E+002
3	0	3.596453974732867E+002	2.8913456E-001	-2.7037677E+002
3	0	3.601453974606557E+002	2.8856513E-001	-2.7038031E+002
3	0	3.606453974480246E+002	2.8799784E-001	-2.7035559E+002
3	0	3.611453974353935E+002	2.8743070E-001	-2.7039447E+002
3	0	3.616453974227625E+002	2.8685090E-001	-2.7037677E+002
3	0	3.621453974101314E+002	2.8626934E-001	-2.7038031E+002
3	0	3.626453973975003E+002	2.8573751E-001	-2.7040506E+002
3	0	3.631453973848693E+002	2.8520831E-001	-2.7038031E+002
3	0	3.636453973722382E+002	2.8467405E-001	-2.7039801E+002
3	0	3.641453973596072E+002	2.8415534E-001	-2.7038385E+002
3	0	3.646453973469761E+002	2.8363594E-001	-2.7037326E+002
3	0	3.651453973343450E+002	2.8311759E-001	-2.7036267E+002
3	0	3.656453973217140E+002	2.8258708E-001	-2.7039801E+002
3	0	3.661453973090829E+002	2.8206015E-001	-2.7037326E+002
3	0	3.666453972964518E+002	2.8155810E-001	-2.7039093E+002
3	0	3.671453972838208E+002	2.8107169E-001	-2.7037326E+002
3	0	3.676453972711897E+002	2.8058347E-001	-2.7036972E+002
3	0	3.681453972585587E+002	2.8009564E-001	-2.7039093E+002
3	0	3.686453972459276E+002	2.7961996E-001	-2.7038385E+002
3	0	3.691453972332965E+002	2.7913532E-001	-2.7036618E+002
3	0	3.696453972206655E+002	2.7864233E-001	-2.7036618E+002
3	0	3.701453972080344E+002	2.7814186E-001	-2.7036972E+002
3	0	3.706453971954033E+002	2.7767837E-001	-2.7038742E+002
3	0	3.711453971827723E+002	2.7722365E-001	-2.7037677E+002
3	0	3.716453971701412E+002	2.7676648E-001	-2.7035559E+002
3	0	3.721453971575102E+002	2.7630728E-001	-2.7035913E+002
3	0	3.726453971448791E+002	2.7586499E-001	-2.7038742E+002
3	0	3.731453971322480E+002	2.7541256E-001	-2.7037326E+002
3	0	3.736453971196170E+002	2.7494460E-001	-2.7036972E+002
3	0	3.741453971069859E+002	2.7448595E-001	-2.7038742E+002
3	0	3.746453970943548E+002	2.7406076E-001	-2.7038385E+002
3	0	3.751453970817238E+002	2.7363905E-001	-2.7039093E+002
3	0	3.751457970817137E+002	2.7346998E-001	-2.7040506E+002