EC-Lab ASCII FILE
Nb header lines : 55                          

Open Circuit Voltage

Run on channel : 1 (SN 81504)
User : 
CE vs. WE compliance from -10 V to 10 V
Electrode connection : standard
Potential control : Ewe
Ewe ctrl range : min = -2.50 V, max = 2.50 V
Safety Limits :
	Do not start on E overload
Acquisition started on : 05/07/2026 14:29:10.843
Loaded Setting File :  C:\PEM-WE_measurements\2026\372_IV_IV IrOx, 5 min Pt, 30 min C, etched cathode\new station\Loopeis new\1,46 V different time gaps open cell\Loopeis 1,46V_30s_3_PEIS from 6500Hz to 1000Hz.mps
Saved on :
	File : L_03_Loopeis 1,46V_30s_3_PEIS from 6500Hz to 1000Hz_08_OCV_C01.mpr
	Directory : C:\PEM-WE_measurements\2026\372_IV_IV IrOx, 5 min Pt, 30 min C, etched cathode\new station\Loopeis new\1,46 V different time gaps open cell\
	Host : 192.168.0.2
Device : SP-150e (SN .005491)
Address : 192.168.0.91
EC-LAB for windows v11.71 (software)
Internet server v28.00 (firmware)
Command interpretor v14.01 (firmware)
Electrode material : 
Initial state : 
Electrolyte : 
Comments : 
Current amplifier : SP-150eB-20A
Electrode surface area : 0.001 cm²
Characteristic mass : 0.001 g
Equivalent Weight : 0.000 g/eq.
Density : 0.000 g/cm3
Volume (V) : 0.001 cm³
Record Analogic IN 1
Text export
   Mode : Standard
   Time format : Elapsed
Cycle Definition : Charge/Discharge alternance
External device configuration :
   device type : Temperature Probe
   device name : Other
   Analog IN 1 : 
      unit : T/Â°C
      max : 100.000 at 2.000 V
      min : 0.000 at 1.460 V
tR (h:m:s)          0:00:30.0000        
dER/dt (mV/h)       1.0                 
record              <Ewe>               
dER (mV)            10.00               
dtR (s)             0.5000              
E range min (V)     -2.500              
E range max (V)     2.500               

mode	error	time/s	<Ewe/V>	Analog IN 1/V	
3	0	2.706213997222221E+002	1.0232356E+000	-2.7038031E+002
3	0	2.711213997095911E+002	1.1959416E+000	-2.7038385E+002
3	0	2.716213996969600E+002	1.1062388E+000	-2.7038031E+002
3	0	2.721213996843289E+002	7.8837919E-001	-2.7038742E+002
3	0	2.726213996716979E+002	3.9515647E-001	-2.7039093E+002
3	0	2.731213996590668E+002	3.1447959E-001	-2.7037326E+002
3	0	2.736213996464357E+002	3.0486557E-001	-2.7039447E+002
3	0	2.741213996338047E+002	2.9826352E-001	-2.7038031E+002
3	0	2.746213996211736E+002	2.9275283E-001	-2.7037326E+002
3	0	2.751213996085426E+002	2.8846461E-001	-2.7038031E+002
3	0	2.756213995959115E+002	2.8517318E-001	-2.7038031E+002
3	0	2.761213995832804E+002	2.8259867E-001	-2.7038031E+002
3	0	2.766213995706494E+002	2.8053489E-001	-2.7036972E+002
3	0	2.771213995580183E+002	2.7884272E-001	-2.7037326E+002
3	0	2.776213995453872E+002	2.7739847E-001	-2.7038385E+002
3	0	2.781213995327562E+002	2.7615106E-001	-2.7038385E+002
3	0	2.786213995201251E+002	2.7508375E-001	-2.7039447E+002
3	0	2.791213995074941E+002	2.7414876E-001	-2.7038031E+002
3	0	2.796213994948630E+002	2.7329946E-001	-2.7039801E+002
3	0	2.801213994822319E+002	2.7251294E-001	-2.7037677E+002
3	0	2.806213994696009E+002	2.7179018E-001	-2.7038031E+002
3	0	2.811213994569698E+002	2.7108645E-001	-2.7035913E+002
3	0	2.816213994443387E+002	2.7040765E-001	-2.7038742E+002
3	0	2.821213994317077E+002	2.6974142E-001	-2.7038385E+002
3	0	2.826213994190766E+002	2.6914123E-001	-2.7039801E+002
3	0	2.831213994064456E+002	2.6856390E-001	-2.7036972E+002
3	0	2.836213993938145E+002	2.6801112E-001	-2.7040155E+002
3	0	2.841213993811834E+002	2.6746160E-001	-2.7039093E+002
3	0	2.846213993685524E+002	2.6692575E-001	-2.7037326E+002
3	0	2.851213993559213E+002	2.6638868E-001	-2.7035559E+002
3	0	2.856213993432903E+002	2.6584825E-001	-2.7038031E+002
3	0	2.861213993306592E+002	2.6529768E-001	-2.7038385E+002
3	0	2.866213993180281E+002	2.6478648E-001	-2.7039093E+002
3	0	2.871213993053971E+002	2.6429960E-001	-2.7034851E+002
3	0	2.876213992927660E+002	2.6381972E-001	-2.7040155E+002
3	0	2.881213992801349E+002	2.6333490E-001	-2.7036972E+002
3	0	2.886213992675039E+002	2.6285392E-001	-2.7037326E+002
3	0	2.891213992548728E+002	2.6236212E-001	-2.7040155E+002
3	0	2.896213992422418E+002	2.6185596E-001	-2.7036618E+002
3	0	2.901213992296107E+002	2.6134548E-001	-2.7038385E+002
3	0	2.906213992169796E+002	2.6086900E-001	-2.7038031E+002
3	0	2.911213992043486E+002	2.6040721E-001	-2.7037677E+002
3	0	2.916213991917175E+002	2.5994268E-001	-2.7036618E+002
3	0	2.921213991790864E+002	2.5949121E-001	-2.7039447E+002
3	0	2.926213991664554E+002	2.5903937E-001	-2.7036618E+002
3	0	2.931213991538243E+002	2.5857669E-001	-2.7038385E+002
3	0	2.936213991411933E+002	2.5810426E-001	-2.7038031E+002
3	0	2.941213991285622E+002	2.5762066E-001	-2.7038742E+002
3	0	2.946213991159311E+002	2.5716254E-001	-2.7037326E+002
3	0	2.951213991033001E+002	2.5672880E-001	-2.7036267E+002
3	0	2.956213990906690E+002	2.5629738E-001	-2.7039447E+002
3	0	2.961213990780379E+002	2.5586495E-001	-2.7038742E+002
3	0	2.966213990654069E+002	2.5543770E-001	-2.7035913E+002
3	0	2.971213990527758E+002	2.5500122E-001	-2.7038385E+002
3	0	2.976213990401448E+002	2.5454882E-001	-2.7035559E+002
3	0	2.981213990275137E+002	2.5409481E-001	-2.7038031E+002
3	0	2.986213990148826E+002	2.5367260E-001	-2.7038031E+002
3	0	2.991213990022516E+002	2.5326598E-001	-2.7036267E+002
3	0	2.996213989896205E+002	2.5286913E-001	-2.7040155E+002
3	0	3.001213989769894E+002	2.5246078E-001	-2.7038385E+002
3	0	3.001447989763983E+002	2.5224316E-001	-2.7037677E+002