EC-Lab ASCII FILE
Nb header lines : 55                          

Open Circuit Voltage

Run on channel : 1 (SN 81504)
User : 
CE vs. WE compliance from -10 V to 10 V
Electrode connection : standard
Potential control : Ewe
Ewe ctrl range : min = -2.50 V, max = 2.50 V
Safety Limits :
	Do not start on E overload
Acquisition started on : 05/07/2026 14:41:51.868
Loaded Setting File :  C:\PEM-WE_measurements\2026\372_IV_IV IrOx, 5 min Pt, 30 min C, etched cathode\new station\Loopeis new\1,46 V different time gaps open cell\Loopeis 1,46V_30s_4_PEIS from 650Hz to 100Hz.mps
Saved on :
	File : L_04_Loopeis 1,46V_30s_4_PEIS from 650Hz to 100Hz_06_OCV_C01.mpr
	Directory : C:\PEM-WE_measurements\2026\372_IV_IV IrOx, 5 min Pt, 30 min C, etched cathode\new station\Loopeis new\1,46 V different time gaps open cell\
	Host : 192.168.0.2
Device : SP-150e (SN .005491)
Address : 192.168.0.91
EC-LAB for windows v11.71 (software)
Internet server v28.00 (firmware)
Command interpretor v14.01 (firmware)
Electrode material : 
Initial state : 
Electrolyte : 
Comments : 
Current amplifier : SP-150eB-20A
Electrode surface area : 0.001 cm²
Characteristic mass : 0.001 g
Equivalent Weight : 0.000 g/eq.
Density : 0.000 g/cm3
Volume (V) : 0.001 cm³
Record Analogic IN 1
Text export
   Mode : Standard
   Time format : Elapsed
Cycle Definition : Charge/Discharge alternance
External device configuration :
   device type : Temperature Probe
   device name : Other
   Analog IN 1 : 
      unit : T/Â°C
      max : 100.000 at 2.000 V
      min : 0.000 at 1.460 V
tR (h:m:s)          0:00:30.0000        
dER/dt (mV/h)       1.0                 
record              <Ewe>               
dER (mV)            10.00               
dtR (s)             0.5000              
E range min (V)     -2.500              
E range max (V)     2.500               

mode	error	time/s	<Ewe/V>	Analog IN 1/V	
3	0	1.954775983342552E+002	1.2695885E+000	-2.7038742E+002
3	0	1.959775983216241E+002	1.2564095E+000	-2.7037326E+002
3	0	1.964775983089930E+002	1.1938366E+000	-2.7038031E+002
3	0	1.969775982963620E+002	1.0308464E+000	-2.7035559E+002
3	0	1.974775982837309E+002	5.4904193E-001	-2.7038031E+002
3	0	1.979775982710999E+002	3.6260217E-001	-2.7038031E+002
3	0	1.984775982584688E+002	3.3882627E-001	-2.7037326E+002
3	0	1.989775982458377E+002	3.2987753E-001	-2.7037677E+002
3	0	1.994775982332067E+002	3.2270789E-001	-2.7036618E+002
3	0	1.999775982205756E+002	3.1724125E-001	-2.7038031E+002
3	0	2.004775982079445E+002	3.1310546E-001	-2.7034851E+002
3	0	2.009775981953135E+002	3.0989683E-001	-2.7038385E+002
3	0	2.014775981826824E+002	3.0735934E-001	-2.7039447E+002
3	0	2.019775981700514E+002	3.0530083E-001	-2.7039447E+002
3	0	2.024775981574203E+002	3.0358869E-001	-2.7035913E+002
3	0	2.029775981447892E+002	3.0212680E-001	-2.7039447E+002
3	0	2.034775981321582E+002	3.0084521E-001	-2.7036618E+002
3	0	2.039775981195271E+002	2.9970399E-001	-2.7037326E+002
3	0	2.044775981068960E+002	2.9866844E-001	-2.7038385E+002
3	0	2.049775980942650E+002	2.9770231E-001	-2.7037677E+002
3	0	2.054775980816339E+002	2.9679868E-001	-2.7038385E+002
3	0	2.059775980690029E+002	2.9598323E-001	-2.7038385E+002
3	0	2.064775980563718E+002	2.9522285E-001	-2.7038031E+002
3	0	2.069775980437407E+002	2.9449823E-001	-2.7036972E+002
3	0	2.074775980311097E+002	2.9381025E-001	-2.7038742E+002
3	0	2.079775980184786E+002	2.9314047E-001	-2.7038742E+002
3	0	2.084775980058475E+002	2.9247737E-001	-2.7035205E+002
3	0	2.089775979932165E+002	2.9181284E-001	-2.7036267E+002
3	0	2.094775979805854E+002	2.9116341E-001	-2.7038031E+002
3	0	2.099775979679544E+002	2.9056960E-001	-2.7038742E+002
3	0	2.104775979553233E+002	2.8998432E-001	-2.7038031E+002
3	0	2.109775979426922E+002	2.8941473E-001	-2.7036618E+002
3	0	2.114775979300612E+002	2.8885984E-001	-2.7036618E+002
3	0	2.119775979174301E+002	2.8830707E-001	-2.7036972E+002
3	0	2.124775979047990E+002	2.8775182E-001	-2.7039801E+002
3	0	2.129775978921680E+002	2.8716794E-001	-2.7040860E+002
3	0	2.134775978795369E+002	2.8659919E-001	-2.7038031E+002
3	0	2.139775978669059E+002	2.8606346E-001	-2.7039447E+002
3	0	2.144775978542748E+002	2.8554925E-001	-2.7036618E+002
3	0	2.149775978416437E+002	2.8503156E-001	-2.7036618E+002
3	0	2.154775978290127E+002	2.8452277E-001	-2.7039447E+002
3	0	2.159775978163816E+002	2.8401816E-001	-2.7035559E+002
3	0	2.164775978037505E+002	2.8349826E-001	-2.7038031E+002
3	0	2.169775977911195E+002	2.8296909E-001	-2.7036972E+002
3	0	2.174775977784884E+002	2.8244174E-001	-2.7036972E+002
3	0	2.179775977658574E+002	2.8195351E-001	-2.7038031E+002
3	0	2.184775977532263E+002	2.8146785E-001	-2.7038031E+002
3	0	2.189775977405952E+002	2.8098640E-001	-2.7036618E+002
3	0	2.194775977279642E+002	2.8051457E-001	-2.7035913E+002
3	0	2.199775977153331E+002	2.8003412E-001	-2.7040506E+002
3	0	2.204775977027020E+002	2.7955407E-001	-2.7041919E+002
3	0	2.209775976900710E+002	2.7905372E-001	-2.7038031E+002
3	0	2.214775976774399E+002	2.7856961E-001	-2.7035205E+002
3	0	2.219775976648089E+002	2.7811947E-001	-2.7037677E+002
3	0	2.224775976521778E+002	2.7766764E-001	-2.7036972E+002
3	0	2.229775976395467E+002	2.7721435E-001	-2.7037326E+002
3	0	2.234775976269157E+002	2.7677625E-001	-2.7035913E+002
3	0	2.239775976142846E+002	2.7633613E-001	-2.7038031E+002
3	0	2.244775976016535E+002	2.7588370E-001	-2.7038031E+002
3	0	2.249775975890225E+002	2.7541435E-001	-2.7038385E+002
3	0	2.249779975890124E+002	2.7514935E-001	-2.7037326E+002