EC-Lab ASCII FILE
Nb header lines : 55                          

Open Circuit Voltage

Run on channel : 1 (SN 81504)
User : 
CE vs. WE compliance from -10 V to 10 V
Electrode connection : standard
Potential control : Ewe
Ewe ctrl range : min = -2.50 V, max = 2.50 V
Safety Limits :
	Do not start on E overload
Acquisition started on : 05/07/2026 14:41:51.868
Loaded Setting File :  C:\PEM-WE_measurements\2026\372_IV_IV IrOx, 5 min Pt, 30 min C, etched cathode\new station\Loopeis new\1,46 V different time gaps open cell\Loopeis 1,46V_30s_4_PEIS from 650Hz to 100Hz.mps
Saved on :
	File : L_04_Loopeis 1,46V_30s_4_PEIS from 650Hz to 100Hz_14_OCV_C01.mpr
	Directory : C:\PEM-WE_measurements\2026\372_IV_IV IrOx, 5 min Pt, 30 min C, etched cathode\new station\Loopeis new\1,46 V different time gaps open cell\
	Host : 192.168.0.2
Device : SP-150e (SN .005491)
Address : 192.168.0.91
EC-LAB for windows v11.71 (software)
Internet server v28.00 (firmware)
Command interpretor v14.01 (firmware)
Electrode material : 
Initial state : 
Electrolyte : 
Comments : 
Current amplifier : SP-150eB-20A
Electrode surface area : 0.001 cm²
Characteristic mass : 0.001 g
Equivalent Weight : 0.000 g/eq.
Density : 0.000 g/cm3
Volume (V) : 0.001 cm³
Record Analogic IN 1
Text export
   Mode : Standard
   Time format : Elapsed
Cycle Definition : Charge/Discharge alternance
External device configuration :
   device type : Temperature Probe
   device name : Other
   Analog IN 1 : 
      unit : T/Â°C
      max : 100.000 at 2.000 V
      min : 0.000 at 1.460 V
tR (h:m:s)          0:00:30.0000        
dER/dt (mV/h)       1.0                 
record              <Ewe>               
dER (mV)            10.00               
dtR (s)             0.5000              
E range min (V)     -2.500              
E range max (V)     2.500               

mode	error	time/s	<Ewe/V>	Analog IN 1/V	
3	0	4.976541974071006E+002	1.2708505E+000	-2.7037326E+002
3	0	4.981541973944695E+002	1.2586944E+000	-2.7037326E+002
3	0	4.986541973818385E+002	1.1993922E+000	-2.7037677E+002
3	0	4.991541973692074E+002	1.0472945E+000	-2.7036618E+002
3	0	4.996541973565763E+002	5.6689143E-001	-2.7038385E+002
3	0	5.001541973439453E+002	3.6662015E-001	-2.7038031E+002
3	0	5.006541973313142E+002	3.4121341E-001	-2.7038031E+002
3	0	5.011541973186831E+002	3.3205092E-001	-2.7036618E+002
3	0	5.016541973060521E+002	3.2475379E-001	-2.7040155E+002
3	0	5.021541972934210E+002	3.1920442E-001	-2.7037677E+002
3	0	5.026541972807900E+002	3.1501776E-001	-2.7041919E+002
3	0	5.031541972681589E+002	3.1180412E-001	-2.7038385E+002
3	0	5.036541972555278E+002	3.0924761E-001	-2.7036618E+002
3	0	5.041541972428968E+002	3.0715376E-001	-2.7036267E+002
3	0	5.046541972302657E+002	3.0538130E-001	-2.7038385E+002
3	0	5.051541972176346E+002	3.0387396E-001	-2.7037326E+002
3	0	5.056541972050036E+002	3.0258268E-001	-2.7039801E+002
3	0	5.061541971923725E+002	3.0144003E-001	-2.7038385E+002
3	0	5.066541971797415E+002	3.0040148E-001	-2.7035559E+002
3	0	5.071541971671104E+002	2.9945990E-001	-2.7039801E+002
3	0	5.076541971544793E+002	2.9858184E-001	-2.7036972E+002
3	0	5.081541971418483E+002	2.9774740E-001	-2.7036618E+002
3	0	5.086541971292172E+002	2.9692864E-001	-2.7039447E+002
3	0	5.091541971165861E+002	2.9616714E-001	-2.7038385E+002
3	0	5.096541971039551E+002	2.9547223E-001	-2.7037677E+002
3	0	5.101541970913240E+002	2.9479975E-001	-2.7038385E+002
3	0	5.106541970786930E+002	2.9415396E-001	-2.7038742E+002
3	0	5.111541970660619E+002	2.9352856E-001	-2.7036972E+002
3	0	5.116541970534308E+002	2.9291907E-001	-2.7036618E+002
3	0	5.121541970407998E+002	2.9230055E-001	-2.7036972E+002
3	0	5.126541970281687E+002	2.9167053E-001	-2.7037677E+002
3	0	5.131541970155376E+002	2.9105979E-001	-2.7039093E+002
3	0	5.136541970029066E+002	2.9048774E-001	-2.7038031E+002
3	0	5.141541969902755E+002	2.8993252E-001	-2.7037677E+002
3	0	5.146541969776445E+002	2.8938016E-001	-2.7038031E+002
3	0	5.151541969650134E+002	2.8884521E-001	-2.7039093E+002
3	0	5.156541969523823E+002	2.8830454E-001	-2.7038742E+002
3	0	5.161541969397513E+002	2.8775370E-001	-2.7038385E+002
3	0	5.166541969271202E+002	2.8718638E-001	-2.7036618E+002
3	0	5.171541969144891E+002	2.8664312E-001	-2.7037677E+002
3	0	5.176541969018581E+002	2.8612202E-001	-2.7037677E+002
3	0	5.181541968892270E+002	2.8561205E-001	-2.7036267E+002
3	0	5.186541968765960E+002	2.8510624E-001	-2.7038385E+002
3	0	5.191541968639649E+002	2.8460863E-001	-2.7036618E+002
3	0	5.196541968513338E+002	2.8410861E-001	-2.7039093E+002
3	0	5.201541968387028E+002	2.8359431E-001	-2.7038385E+002
3	0	5.206541968260717E+002	2.8306639E-001	-2.7039447E+002
3	0	5.211541968134406E+002	2.8255844E-001	-2.7036972E+002
3	0	5.216541968008096E+002	2.8208581E-001	-2.7036972E+002
3	0	5.221541967881785E+002	2.8161421E-001	-2.7039447E+002
3	0	5.226541967755475E+002	2.8113618E-001	-2.7039093E+002
3	0	5.231541967629164E+002	2.8067353E-001	-2.7040506E+002
3	0	5.236541967502853E+002	2.8020650E-001	-2.7037326E+002
3	0	5.241541967376543E+002	2.7973059E-001	-2.7038031E+002
3	0	5.246541967250232E+002	2.7924010E-001	-2.7037326E+002
3	0	5.251541967123922E+002	2.7876568E-001	-2.7036972E+002
3	0	5.256541966997611E+002	2.7832243E-001	-2.7037677E+002
3	0	5.261541966871300E+002	2.7788100E-001	-2.7040860E+002
3	0	5.266541966744990E+002	2.7743828E-001	-2.7039093E+002
3	0	5.271541966618679E+002	2.7700448E-001	-2.7039801E+002
3	0	5.271545966618578E+002	2.7676195E-001	-2.7039093E+002