EC-Lab ASCII FILE
Nb header lines : 55                          

Open Circuit Voltage

Run on channel : 1 (SN 81504)
User : 
CE vs. WE compliance from -10 V to 10 V
Electrode connection : standard
Potential control : Ewe
Ewe ctrl range : min = -2.50 V, max = 2.50 V
Safety Limits :
	Do not start on E overload
Acquisition started on : 05/07/2026 14:41:51.868
Loaded Setting File :  C:\PEM-WE_measurements\2026\372_IV_IV IrOx, 5 min Pt, 30 min C, etched cathode\new station\Loopeis new\1,46 V different time gaps open cell\Loopeis 1,46V_30s_4_PEIS from 650Hz to 100Hz.mps
Saved on :
	File : L_04_Loopeis 1,46V_30s_4_PEIS from 650Hz to 100Hz_16_OCV_C01.mpr
	Directory : C:\PEM-WE_measurements\2026\372_IV_IV IrOx, 5 min Pt, 30 min C, etched cathode\new station\Loopeis new\1,46 V different time gaps open cell\
	Host : 192.168.0.2
Device : SP-150e (SN .005491)
Address : 192.168.0.91
EC-LAB for windows v11.71 (software)
Internet server v28.00 (firmware)
Command interpretor v14.01 (firmware)
Electrode material : 
Initial state : 
Electrolyte : 
Comments : 
Current amplifier : SP-150eB-20A
Electrode surface area : 0.001 cm²
Characteristic mass : 0.001 g
Equivalent Weight : 0.000 g/eq.
Density : 0.000 g/cm3
Volume (V) : 0.001 cm³
Record Analogic IN 1
Text export
   Mode : Standard
   Time format : Elapsed
Cycle Definition : Charge/Discharge alternance
External device configuration :
   device type : Temperature Probe
   device name : Other
   Analog IN 1 : 
      unit : T/Â°C
      max : 100.000 at 2.000 V
      min : 0.000 at 1.460 V
tR (h:m:s)          0:00:30.0000        
dER/dt (mV/h)       1.0                 
record              <Ewe>               
dER (mV)            10.00               
dtR (s)             0.5000              
E range min (V)     -2.500              
E range max (V)     2.500               

mode	error	time/s	<Ewe/V>	Analog IN 1/V	
3	0	5.748367988920654E+002	1.0530833E+000	-2.7039801E+002
3	0	5.753367988794344E+002	1.2216351E+000	-2.7038031E+002
3	0	5.758367988668033E+002	1.1766042E+000	-2.7035913E+002
3	0	5.763367988541722E+002	1.0694783E+000	-2.7036267E+002
3	0	5.768367988415412E+002	6.6231418E-001	-2.7036267E+002
3	0	5.773367988289101E+002	3.6712176E-001	-2.7036618E+002
3	0	5.778367988162790E+002	3.2585895E-001	-2.7040506E+002
3	0	5.783367988036480E+002	3.1703505E-001	-2.7035913E+002
3	0	5.788367987910169E+002	3.0994129E-001	-2.7036972E+002
3	0	5.793367987783859E+002	3.0433419E-001	-2.7038031E+002
3	0	5.798367987657548E+002	3.0003682E-001	-2.7037677E+002
3	0	5.803367987531237E+002	2.9671776E-001	-2.7037326E+002
3	0	5.808367987404927E+002	2.9408947E-001	-2.7038031E+002
3	0	5.813367987278616E+002	2.9199213E-001	-2.7037677E+002
3	0	5.818367987152305E+002	2.9024732E-001	-2.7037677E+002
3	0	5.823367987025995E+002	2.8878286E-001	-2.7039447E+002
3	0	5.828367986899684E+002	2.8750914E-001	-2.7039093E+002
3	0	5.833367986773374E+002	2.8637969E-001	-2.7039801E+002
3	0	5.838367986647063E+002	2.8535855E-001	-2.7036972E+002
3	0	5.843367986520752E+002	2.8441069E-001	-2.7035913E+002
3	0	5.848367986394442E+002	2.8352246E-001	-2.7037326E+002
3	0	5.853367986268131E+002	2.8272265E-001	-2.7039801E+002
3	0	5.858367986141820E+002	2.8198478E-001	-2.7036618E+002
3	0	5.863367986015510E+002	2.8127605E-001	-2.7038031E+002
3	0	5.868367985889199E+002	2.8060335E-001	-2.7036618E+002
3	0	5.873367985762889E+002	2.7995071E-001	-2.7037677E+002
3	0	5.878367985636578E+002	2.7932113E-001	-2.7036267E+002
3	0	5.883367985510267E+002	2.7868679E-001	-2.7036972E+002
3	0	5.888367985383957E+002	2.7805483E-001	-2.7038031E+002
3	0	5.893367985257646E+002	2.7746886E-001	-2.7037326E+002
3	0	5.898367985131335E+002	2.7689850E-001	-2.7038031E+002
3	0	5.903367985005025E+002	2.7633750E-001	-2.7039093E+002
3	0	5.908367984878714E+002	2.7578947E-001	-2.7035913E+002
3	0	5.913367984752404E+002	2.7523914E-001	-2.7036618E+002
3	0	5.918367984626093E+002	2.7469933E-001	-2.7038385E+002
3	0	5.923367984499782E+002	2.7415204E-001	-2.7035559E+002
3	0	5.928367984373472E+002	2.7359235E-001	-2.7038385E+002
3	0	5.933367984247161E+002	2.7306902E-001	-2.7039801E+002
3	0	5.938367984120850E+002	2.7255946E-001	-2.7038385E+002
3	0	5.943367983994540E+002	2.7205911E-001	-2.7037326E+002
3	0	5.948367983868229E+002	2.7155563E-001	-2.7037326E+002
3	0	5.953367983741919E+002	2.7105239E-001	-2.7037326E+002
3	0	5.958367983615608E+002	2.7054471E-001	-2.7039447E+002
3	0	5.963367983489297E+002	2.7002123E-001	-2.7036267E+002
3	0	5.968367983362987E+002	2.6950049E-001	-2.7037677E+002
3	0	5.973367983236676E+002	2.6901489E-001	-2.7039093E+002
3	0	5.978367983110365E+002	2.6853028E-001	-2.7039801E+002
3	0	5.983367982984055E+002	2.6805502E-001	-2.7037677E+002
3	0	5.988367982857744E+002	2.6757732E-001	-2.7040155E+002
3	0	5.993367982731434E+002	2.6711127E-001	-2.7038742E+002
3	0	5.998367982605123E+002	2.6663077E-001	-2.7038031E+002
3	0	6.003367982478812E+002	2.6613781E-001	-2.7037677E+002
3	0	6.008367982352502E+002	2.6564613E-001	-2.7036972E+002
3	0	6.013367982226191E+002	2.6518813E-001	-2.7037677E+002
3	0	6.018367982099880E+002	2.6473835E-001	-2.7035559E+002
3	0	6.023367981973570E+002	2.6429608E-001	-2.7037677E+002
3	0	6.028367981847259E+002	2.6385692E-001	-2.7038031E+002
3	0	6.033367981720949E+002	2.6341912E-001	-2.7039093E+002
3	0	6.038367981594638E+002	2.6297733E-001	-2.7038742E+002
3	0	6.043367981468327E+002	2.6251331E-001	-2.7036618E+002
3	0	6.043623981461860E+002	2.6227906E-001	-2.7038742E+002