EC-Lab ASCII FILE
Nb header lines : 55                          

Open Circuit Voltage

Run on channel : 1 (SN 81504)
User : 
CE vs. WE compliance from -10 V to 10 V
Electrode connection : standard
Potential control : Ewe
Ewe ctrl range : min = -2.50 V, max = 2.50 V
Safety Limits :
	Do not start on E overload
Acquisition started on : 05/07/2026 14:41:51.868
Loaded Setting File :  C:\PEM-WE_measurements\2026\372_IV_IV IrOx, 5 min Pt, 30 min C, etched cathode\new station\Loopeis new\1,46 V different time gaps open cell\Loopeis 1,46V_30s_4_PEIS from 650Hz to 100Hz.mps
Saved on :
	File : L_04_Loopeis 1,46V_30s_4_PEIS from 650Hz to 100Hz_04_OCV_C01.mpr
	Directory : C:\PEM-WE_measurements\2026\372_IV_IV IrOx, 5 min Pt, 30 min C, etched cathode\new station\Loopeis new\1,46 V different time gaps open cell\
	Host : 192.168.0.2
Device : SP-150e (SN .005491)
Address : 192.168.0.91
EC-LAB for windows v11.71 (software)
Internet server v28.00 (firmware)
Command interpretor v14.01 (firmware)
Electrode material : 
Initial state : 
Electrolyte : 
Comments : 
Current amplifier : SP-150eB-20A
Electrode surface area : 0.001 cm²
Characteristic mass : 0.001 g
Equivalent Weight : 0.000 g/eq.
Density : 0.000 g/cm3
Volume (V) : 0.001 cm³
Record Analogic IN 1
Text export
   Mode : Standard
   Time format : Elapsed
Cycle Definition : Charge/Discharge alternance
External device configuration :
   device type : Temperature Probe
   device name : Other
   Analog IN 1 : 
      unit : T/Â°C
      max : 100.000 at 2.000 V
      min : 0.000 at 1.460 V
tR (h:m:s)          0:00:30.0000        
dER/dt (mV/h)       1.0                 
record              <Ewe>               
dER (mV)            10.00               
dtR (s)             0.5000              
E range min (V)     -2.500              
E range max (V)     2.500               

mode	error	time/s	<Ewe/V>	Analog IN 1/V	
3	0	1.204536002295208E+002	1.0369127E+000	-2.7039093E+002
3	0	1.209536002168898E+002	1.2098597E+000	-2.7039801E+002
3	0	1.214536002042587E+002	1.1452147E+000	-2.7038385E+002
3	0	1.219536001916276E+002	9.5075846E-001	-2.7038031E+002
3	0	1.224536001789966E+002	4.8316595E-001	-2.7038385E+002
3	0	1.229536001663655E+002	3.3221969E-001	-2.7037326E+002
3	0	1.234536001537344E+002	3.1560841E-001	-2.7038385E+002
3	0	1.239536001411034E+002	3.0812687E-001	-2.7038742E+002
3	0	1.244536001284723E+002	3.0177307E-001	-2.7039801E+002
3	0	1.249536001158413E+002	2.9678270E-001	-2.7037326E+002
3	0	1.254536001032102E+002	2.9294461E-001	-2.7038385E+002
3	0	1.259536000905791E+002	2.8997904E-001	-2.7036972E+002
3	0	1.264536000779481E+002	2.8761926E-001	-2.7038031E+002
3	0	1.269536000653170E+002	2.8569350E-001	-2.7035559E+002
3	0	1.274536000526859E+002	2.8408310E-001	-2.7039093E+002
3	0	1.279536000400549E+002	2.8269956E-001	-2.7039093E+002
3	0	1.284536000274238E+002	2.8148979E-001	-2.7037326E+002
3	0	1.289536000147928E+002	2.8039369E-001	-2.7038385E+002
3	0	1.294536000021617E+002	2.7941060E-001	-2.7037326E+002
3	0	1.299535999895306E+002	2.7854693E-001	-2.7039801E+002
3	0	1.304535999768996E+002	2.7775505E-001	-2.7036972E+002
3	0	1.309535999642685E+002	2.7701220E-001	-2.7041214E+002
3	0	1.314535999516374E+002	2.7630901E-001	-2.7038742E+002
3	0	1.319535999390064E+002	2.7564582E-001	-2.7038031E+002
3	0	1.324535999263753E+002	2.7499142E-001	-2.7038742E+002
3	0	1.329535999137443E+002	2.7435720E-001	-2.7040155E+002
3	0	1.334535999011132E+002	2.7372539E-001	-2.7038031E+002
3	0	1.339535998884821E+002	2.7313739E-001	-2.7037326E+002
3	0	1.344535998758511E+002	2.7257881E-001	-2.7038385E+002
3	0	1.349535998632200E+002	2.7203500E-001	-2.7036972E+002
3	0	1.354535998505889E+002	2.7149889E-001	-2.7038742E+002
3	0	1.359535998379579E+002	2.7095631E-001	-2.7038742E+002
3	0	1.364535998253268E+002	2.7042091E-001	-2.7038031E+002
3	0	1.369535998126958E+002	2.6986712E-001	-2.7037677E+002
3	0	1.374535998000647E+002	2.6932323E-001	-2.7038385E+002
3	0	1.379535997874336E+002	2.6881894E-001	-2.7035559E+002
3	0	1.384535997748026E+002	2.6832390E-001	-2.7036618E+002
3	0	1.389535997621715E+002	2.6783347E-001	-2.7036972E+002
3	0	1.394535997495404E+002	2.6734659E-001	-2.7039447E+002
3	0	1.399535997369094E+002	2.6686350E-001	-2.7039093E+002
3	0	1.404535997242783E+002	2.6636350E-001	-2.7035913E+002
3	0	1.409535997116473E+002	2.6585376E-001	-2.7040860E+002
3	0	1.414535996990162E+002	2.6534104E-001	-2.7038031E+002
3	0	1.419535996863851E+002	2.6486835E-001	-2.7035913E+002
3	0	1.424535996737541E+002	2.6440623E-001	-2.7038031E+002
3	0	1.429535996611230E+002	2.6394388E-001	-2.7036267E+002
3	0	1.434535996484919E+002	2.6348665E-001	-2.7039447E+002
3	0	1.439535996358609E+002	2.6302972E-001	-2.7037326E+002
3	0	1.444535996232298E+002	2.6256129E-001	-2.7039093E+002
3	0	1.449535996105988E+002	2.6207453E-001	-2.7040506E+002
3	0	1.454535995979677E+002	2.6158839E-001	-2.7036972E+002
3	0	1.459535995853366E+002	2.6114523E-001	-2.7036972E+002
3	0	1.464535995727056E+002	2.6070541E-001	-2.7038031E+002
3	0	1.469535995600745E+002	2.6026955E-001	-2.7037677E+002
3	0	1.474535995474434E+002	2.5983471E-001	-2.7035913E+002
3	0	1.479535995348124E+002	2.5941020E-001	-2.7037677E+002
3	0	1.484535995221813E+002	2.5897485E-001	-2.7038742E+002
3	0	1.489535995095503E+002	2.5852245E-001	-2.7038742E+002
3	0	1.494535994969192E+002	2.5807020E-001	-2.7038385E+002
3	0	1.499535994842881E+002	2.5766587E-001	-2.7036267E+002
3	0	1.499769994836970E+002	2.5745845E-001	-2.7042273E+002