EC-Lab ASCII FILE
Nb header lines : 55                          

Open Circuit Voltage

Run on channel : 1 (SN 81504)
User : 
CE vs. WE compliance from -10 V to 10 V
Electrode connection : standard
Potential control : Ewe
Ewe ctrl range : min = -2.50 V, max = 2.50 V
Safety Limits :
	Do not start on E overload
Acquisition started on : 05/07/2026 14:41:51.868
Loaded Setting File :  C:\PEM-WE_measurements\2026\372_IV_IV IrOx, 5 min Pt, 30 min C, etched cathode\new station\Loopeis new\1,46 V different time gaps open cell\Loopeis 1,46V_30s_4_PEIS from 650Hz to 100Hz.mps
Saved on :
	File : L_04_Loopeis 1,46V_30s_4_PEIS from 650Hz to 100Hz_08_OCV_C01.mpr
	Directory : C:\PEM-WE_measurements\2026\372_IV_IV IrOx, 5 min Pt, 30 min C, etched cathode\new station\Loopeis new\1,46 V different time gaps open cell\
	Host : 192.168.0.2
Device : SP-150e (SN .005491)
Address : 192.168.0.91
EC-LAB for windows v11.71 (software)
Internet server v28.00 (firmware)
Command interpretor v14.01 (firmware)
Electrode material : 
Initial state : 
Electrolyte : 
Comments : 
Current amplifier : SP-150eB-20A
Electrode surface area : 0.001 cm²
Characteristic mass : 0.001 g
Equivalent Weight : 0.000 g/eq.
Density : 0.000 g/cm3
Volume (V) : 0.001 cm³
Record Analogic IN 1
Text export
   Mode : Standard
   Time format : Elapsed
Cycle Definition : Charge/Discharge alternance
External device configuration :
   device type : Temperature Probe
   device name : Other
   Analog IN 1 : 
      unit : T/Â°C
      max : 100.000 at 2.000 V
      min : 0.000 at 1.460 V
tR (h:m:s)          0:00:30.0000        
dER/dt (mV/h)       1.0                 
record              <Ewe>               
dER (mV)            10.00               
dtR (s)             0.5000              
E range min (V)     -2.500              
E range max (V)     2.500               

mode	error	time/s	<Ewe/V>	Analog IN 1/V	
3	0	2.704303997131501E+002	1.0419811E+000	-2.7037677E+002
3	0	2.709303997005190E+002	1.2105029E+000	-2.7038031E+002
3	0	2.714303996878880E+002	1.1482234E+000	-2.7039093E+002
3	0	2.719303996752569E+002	9.7208452E-001	-2.7040506E+002
3	0	2.724303996626259E+002	5.0191522E-001	-2.7039093E+002
3	0	2.729303996499948E+002	3.3184066E-001	-2.7036267E+002
3	0	2.734303996373637E+002	3.1327534E-001	-2.7039447E+002
3	0	2.739303996247327E+002	3.0578390E-001	-2.7036972E+002
3	0	2.744303996121016E+002	2.9942930E-001	-2.7037677E+002
3	0	2.749303995994705E+002	2.9444689E-001	-2.7039801E+002
3	0	2.754303995868395E+002	2.9062307E-001	-2.7040506E+002
3	0	2.759303995742084E+002	2.8765041E-001	-2.7035559E+002
3	0	2.764303995615774E+002	2.8527099E-001	-2.7039801E+002
3	0	2.769303995489463E+002	2.8331959E-001	-2.7036972E+002
3	0	2.774303995363152E+002	2.8170946E-001	-2.7038031E+002
3	0	2.779303995236842E+002	2.8034413E-001	-2.7035913E+002
3	0	2.784303995110531E+002	2.7917686E-001	-2.7037677E+002
3	0	2.789303994984220E+002	2.7814075E-001	-2.7036267E+002
3	0	2.794303994857910E+002	2.7720100E-001	-2.7038031E+002
3	0	2.799303994731599E+002	2.7633706E-001	-2.7040506E+002
3	0	2.804303994605289E+002	2.7552056E-001	-2.7037326E+002
3	0	2.809303994478978E+002	2.7473810E-001	-2.7038742E+002
3	0	2.814303994352667E+002	2.7403158E-001	-2.7037677E+002
3	0	2.819303994226357E+002	2.7336949E-001	-2.7038031E+002
3	0	2.824303994100046E+002	2.7273896E-001	-2.7037677E+002
3	0	2.829303993973735E+002	2.7214321E-001	-2.7038742E+002
3	0	2.834303993847425E+002	2.7155656E-001	-2.7040155E+002
3	0	2.839303993721114E+002	2.7097833E-001	-2.7038385E+002
3	0	2.844303993594804E+002	2.7038756E-001	-2.7038385E+002
3	0	2.849303993468493E+002	2.6979771E-001	-2.7035913E+002
3	0	2.854303993342182E+002	2.6924399E-001	-2.7038742E+002
3	0	2.859303993215872E+002	2.6870668E-001	-2.7039447E+002
3	0	2.864303993089561E+002	2.6819107E-001	-2.7037677E+002
3	0	2.869303992963250E+002	2.6767948E-001	-2.7037677E+002
3	0	2.874303992836940E+002	2.6717392E-001	-2.7037677E+002
3	0	2.879303992710629E+002	2.6665780E-001	-2.7038385E+002
3	0	2.884303992584319E+002	2.6612809E-001	-2.7037326E+002
3	0	2.889303992458008E+002	2.6559752E-001	-2.7038385E+002
3	0	2.894303992331697E+002	2.6509255E-001	-2.7037326E+002
3	0	2.899303992205387E+002	2.6461747E-001	-2.7039093E+002
3	0	2.904303992079076E+002	2.6414093E-001	-2.7035913E+002
3	0	2.909303991952766E+002	2.6366860E-001	-2.7037677E+002
3	0	2.914303991826455E+002	2.6320049E-001	-2.7037326E+002
3	0	2.919303991700144E+002	2.6272517E-001	-2.7036267E+002
3	0	2.924303991573834E+002	2.6223251E-001	-2.7039447E+002
3	0	2.929303991447523E+002	2.6173422E-001	-2.7035913E+002
3	0	2.934303991321212E+002	2.6125914E-001	-2.7037677E+002
3	0	2.939303991194902E+002	2.6080140E-001	-2.7039801E+002
3	0	2.944303991068591E+002	2.6035258E-001	-2.7037326E+002
3	0	2.949303990942281E+002	2.5991020E-001	-2.7037326E+002
3	0	2.954303990815970E+002	2.5944650E-001	-2.7038742E+002
3	0	2.959303990689659E+002	2.5899538E-001	-2.7035913E+002
3	0	2.964303990563349E+002	2.5854000E-001	-2.7035913E+002
3	0	2.969303990437038E+002	2.5807908E-001	-2.7038385E+002
3	0	2.974303990310727E+002	2.5764772E-001	-2.7038031E+002
3	0	2.979303990184417E+002	2.5721818E-001	-2.7035913E+002
3	0	2.984303990058106E+002	2.5679290E-001	-2.7037326E+002
3	0	2.989303989931796E+002	2.5637156E-001	-2.7038031E+002
3	0	2.994303989805485E+002	2.5595543E-001	-2.7038742E+002
3	0	2.999303989679174E+002	2.5553253E-001	-2.7039093E+002
3	0	2.999537989673263E+002	2.5530636E-001	-2.7040506E+002