EC-Lab ASCII FILE
Nb header lines : 55                          

Open Circuit Voltage

Run on channel : 1 (SN 81504)
User : 
CE vs. WE compliance from -10 V to 10 V
Electrode connection : standard
Potential control : Ewe
Ewe ctrl range : min = -2.50 V, max = 2.50 V
Safety Limits :
	Do not start on E overload
Acquisition started on : 05/07/2026 14:41:51.868
Loaded Setting File :  C:\PEM-WE_measurements\2026\372_IV_IV IrOx, 5 min Pt, 30 min C, etched cathode\new station\Loopeis new\1,46 V different time gaps open cell\Loopeis 1,46V_30s_4_PEIS from 650Hz to 100Hz.mps
Saved on :
	File : L_04_Loopeis 1,46V_30s_4_PEIS from 650Hz to 100Hz_12_OCV_C01.mpr
	Directory : C:\PEM-WE_measurements\2026\372_IV_IV IrOx, 5 min Pt, 30 min C, etched cathode\new station\Loopeis new\1,46 V different time gaps open cell\
	Host : 192.168.0.2
Device : SP-150e (SN .005491)
Address : 192.168.0.91
EC-LAB for windows v11.71 (software)
Internet server v28.00 (firmware)
Command interpretor v14.01 (firmware)
Electrode material : 
Initial state : 
Electrolyte : 
Comments : 
Current amplifier : SP-150eB-20A
Electrode surface area : 0.001 cm²
Characteristic mass : 0.001 g
Equivalent Weight : 0.000 g/eq.
Density : 0.000 g/cm3
Volume (V) : 0.001 cm³
Record Analogic IN 1
Text export
   Mode : Standard
   Time format : Elapsed
Cycle Definition : Charge/Discharge alternance
External device configuration :
   device type : Temperature Probe
   device name : Other
   Analog IN 1 : 
      unit : T/Â°C
      max : 100.000 at 2.000 V
      min : 0.000 at 1.460 V
tR (h:m:s)          0:00:30.0000        
dER/dt (mV/h)       1.0                 
record              <Ewe>               
dER (mV)            10.00               
dtR (s)             0.5000              
E range min (V)     -2.500              
E range max (V)     2.500               

mode	error	time/s	<Ewe/V>	Analog IN 1/V	
3	0	4.226289993023966E+002	1.0402654E+000	-2.7037326E+002
3	0	4.231289992897655E+002	1.2106109E+000	-2.7037326E+002
3	0	4.236289992771344E+002	1.1481308E+000	-2.7038031E+002
3	0	4.241289992645034E+002	9.7182131E-001	-2.7038385E+002
3	0	4.246289992518723E+002	5.0278819E-001	-2.7036618E+002
3	0	4.251289992392412E+002	3.3264846E-001	-2.7036972E+002
3	0	4.256289992266102E+002	3.1379670E-001	-2.7038031E+002
3	0	4.261289992139791E+002	3.0627623E-001	-2.7036972E+002
3	0	4.266289992013481E+002	2.9989025E-001	-2.7039093E+002
3	0	4.271289991887170E+002	2.9486871E-001	-2.7039447E+002
3	0	4.276289991760859E+002	2.9101664E-001	-2.7038031E+002
3	0	4.281289991634549E+002	2.8801569E-001	-2.7036618E+002
3	0	4.286289991508238E+002	2.8561696E-001	-2.7034143E+002
3	0	4.291289991381927E+002	2.8366649E-001	-2.7039093E+002
3	0	4.296289991255617E+002	2.8206015E-001	-2.7036618E+002
3	0	4.301289991129306E+002	2.8069541E-001	-2.7039447E+002
3	0	4.306289991002996E+002	2.7950835E-001	-2.7038742E+002
3	0	4.311289990876685E+002	2.7846053E-001	-2.7037326E+002
3	0	4.316289990750374E+002	2.7751353E-001	-2.7035913E+002
3	0	4.321289990624064E+002	2.7662966E-001	-2.7037677E+002
3	0	4.326289990497753E+002	2.7580109E-001	-2.7038385E+002
3	0	4.331289990371442E+002	2.7503482E-001	-2.7038031E+002
3	0	4.336289990245132E+002	2.7434450E-001	-2.7037326E+002
3	0	4.341289990118821E+002	2.7368358E-001	-2.7038742E+002
3	0	4.346289989992511E+002	2.7304909E-001	-2.7041919E+002
3	0	4.351289989866200E+002	2.7243903E-001	-2.7039093E+002
3	0	4.356289989739889E+002	2.7185386E-001	-2.7038385E+002
3	0	4.361289989613579E+002	2.7125919E-001	-2.7038385E+002
3	0	4.366289989487268E+002	2.7066657E-001	-2.7038031E+002
3	0	4.371289989360957E+002	2.7008575E-001	-2.7035913E+002
3	0	4.376289989234647E+002	2.6955780E-001	-2.7036618E+002
3	0	4.381289989108336E+002	2.6903069E-001	-2.7038385E+002
3	0	4.386289988982026E+002	2.6850989E-001	-2.7039447E+002
3	0	4.391289988855715E+002	2.6800346E-001	-2.7038031E+002
3	0	4.396289988729404E+002	2.6749387E-001	-2.7038385E+002
3	0	4.401289988603094E+002	2.6696411E-001	-2.7036972E+002
3	0	4.406289988476783E+002	2.6642811E-001	-2.7035913E+002
3	0	4.411289988350472E+002	2.6590967E-001	-2.7037677E+002
3	0	4.416289988224162E+002	2.6542163E-001	-2.7035913E+002
3	0	4.421289988097851E+002	2.6493880E-001	-2.7038742E+002
3	0	4.426289987971541E+002	2.6446515E-001	-2.7038742E+002
3	0	4.431289987845230E+002	2.6399186E-001	-2.7039093E+002
3	0	4.436289987718919E+002	2.6351699E-001	-2.7038742E+002
3	0	4.441289987592609E+002	2.6303518E-001	-2.7040506E+002
3	0	4.446289987466298E+002	2.6252669E-001	-2.7037677E+002
3	0	4.451289987339987E+002	2.6203215E-001	-2.7038742E+002
3	0	4.456289987213677E+002	2.6157099E-001	-2.7038742E+002
3	0	4.461289987087366E+002	2.6111236E-001	-2.7036972E+002
3	0	4.466289986961056E+002	2.6065248E-001	-2.7038031E+002
3	0	4.471289986834745E+002	2.6019439E-001	-2.7039447E+002
3	0	4.476289986708434E+002	2.5974628E-001	-2.7036267E+002
3	0	4.481289986582124E+002	2.5929344E-001	-2.7038385E+002
3	0	4.486289986455813E+002	2.5881466E-001	-2.7037326E+002
3	0	4.491289986329502E+002	2.5835472E-001	-2.7037677E+002
3	0	4.496289986203192E+002	2.5793552E-001	-2.7038031E+002
3	0	4.501289986076881E+002	2.5751460E-001	-2.7038385E+002
3	0	4.506289985950571E+002	2.5708559E-001	-2.7036618E+002
3	0	4.511289985824260E+002	2.5667676E-001	-2.7038385E+002
3	0	4.516289985697949E+002	2.5626233E-001	-2.7040155E+002
3	0	4.521289985571639E+002	2.5583422E-001	-2.7037677E+002
3	0	4.521535985565424E+002	2.5559846E-001	-2.7039447E+002