EC-Lab ASCII FILE
Nb header lines : 55                          

Open Circuit Voltage

Run on channel : 1 (SN 81504)
User : 
CE vs. WE compliance from -10 V to 10 V
Electrode connection : standard
Potential control : Ewe
Ewe ctrl range : min = -2.50 V, max = 2.50 V
Safety Limits :
	Do not start on E overload
Acquisition started on : 05/07/2026 14:41:51.868
Loaded Setting File :  C:\PEM-WE_measurements\2026\372_IV_IV IrOx, 5 min Pt, 30 min C, etched cathode\new station\Loopeis new\1,46 V different time gaps open cell\Loopeis 1,46V_30s_4_PEIS from 650Hz to 100Hz.mps
Saved on :
	File : L_04_Loopeis 1,46V_30s_4_PEIS from 650Hz to 100Hz_10_OCV_C01.mpr
	Directory : C:\PEM-WE_measurements\2026\372_IV_IV IrOx, 5 min Pt, 30 min C, etched cathode\new station\Loopeis new\1,46 V different time gaps open cell\
	Host : 192.168.0.2
Device : SP-150e (SN .005491)
Address : 192.168.0.91
EC-LAB for windows v11.71 (software)
Internet server v28.00 (firmware)
Command interpretor v14.01 (firmware)
Electrode material : 
Initial state : 
Electrolyte : 
Comments : 
Current amplifier : SP-150eB-20A
Electrode surface area : 0.001 cm²
Characteristic mass : 0.001 g
Equivalent Weight : 0.000 g/eq.
Density : 0.000 g/cm3
Volume (V) : 0.001 cm³
Record Analogic IN 1
Text export
   Mode : Standard
   Time format : Elapsed
Cycle Definition : Charge/Discharge alternance
External device configuration :
   device type : Temperature Probe
   device name : Other
   Analog IN 1 : 
      unit : T/Â°C
      max : 100.000 at 2.000 V
      min : 0.000 at 1.460 V
tR (h:m:s)          0:00:30.0000        
dER/dt (mV/h)       1.0                 
record              <Ewe>               
dER (mV)            10.00               
dtR (s)             0.5000              
E range min (V)     -2.500              
E range max (V)     2.500               

mode	error	time/s	<Ewe/V>	Analog IN 1/V	
3	0	3.454543978178845E+002	1.2709265E+000	-2.7038031E+002
3	0	3.459543978052534E+002	1.2587167E+000	-2.7040860E+002
3	0	3.464543977926223E+002	1.1993282E+000	-2.7037677E+002
3	0	3.469543977799913E+002	1.0466301E+000	-2.7041214E+002
3	0	3.474543977673602E+002	5.6553674E-001	-2.7038031E+002
3	0	3.479543977547291E+002	3.6631650E-001	-2.7036618E+002
3	0	3.484543977420981E+002	3.4110638E-001	-2.7038742E+002
3	0	3.489543977294670E+002	3.3196297E-001	-2.7038385E+002
3	0	3.494543977168360E+002	3.2469502E-001	-2.7038031E+002
3	0	3.499543977042049E+002	3.1917453E-001	-2.7037326E+002
3	0	3.504543976915738E+002	3.1501538E-001	-2.7037326E+002
3	0	3.509543976789428E+002	3.1181961E-001	-2.7038031E+002
3	0	3.514543976663117E+002	3.0928203E-001	-2.7037677E+002
3	0	3.519543976536806E+002	3.0720347E-001	-2.7036972E+002
3	0	3.524543976410496E+002	3.0544621E-001	-2.7039093E+002
3	0	3.529543976284185E+002	3.0392760E-001	-2.7037677E+002
3	0	3.534543976157875E+002	3.0263129E-001	-2.7037677E+002
3	0	3.539543976031564E+002	3.0149356E-001	-2.7039447E+002
3	0	3.544543975905253E+002	3.0046400E-001	-2.7037326E+002
3	0	3.549543975778943E+002	2.9952547E-001	-2.7038031E+002
3	0	3.554543975652632E+002	2.9865572E-001	-2.7037326E+002
3	0	3.559543975526321E+002	2.9783869E-001	-2.7040860E+002
3	0	3.564543975400011E+002	2.9703778E-001	-2.7040155E+002
3	0	3.569543975273700E+002	2.9625851E-001	-2.7035205E+002
3	0	3.574543975147390E+002	2.9554716E-001	-2.7038742E+002
3	0	3.579543975021079E+002	2.9487902E-001	-2.7038385E+002
3	0	3.584543974894768E+002	2.9422733E-001	-2.7038031E+002
3	0	3.589543974768458E+002	2.9359984E-001	-2.7038031E+002
3	0	3.594543974642147E+002	2.9298919E-001	-2.7038031E+002
3	0	3.599543974515836E+002	2.9238009E-001	-2.7037677E+002
3	0	3.604543974389526E+002	2.9176229E-001	-2.7036972E+002
3	0	3.609543974263215E+002	2.9113606E-001	-2.7036267E+002
3	0	3.614543974136905E+002	2.9055434E-001	-2.7037677E+002
3	0	3.619543974010594E+002	2.8999868E-001	-2.7038742E+002
3	0	3.624543973884283E+002	2.8944305E-001	-2.7038385E+002
3	0	3.629543973757973E+002	2.8890392E-001	-2.7035913E+002
3	0	3.634543973631662E+002	2.8836784E-001	-2.7037326E+002
3	0	3.639543973505351E+002	2.8782380E-001	-2.7038385E+002
3	0	3.644543973379041E+002	2.8726169E-001	-2.7038031E+002
3	0	3.649543973252730E+002	2.8670043E-001	-2.7038031E+002
3	0	3.654543973126420E+002	2.8617007E-001	-2.7036972E+002
3	0	3.659543973000109E+002	2.8566393E-001	-2.7038031E+002
3	0	3.664543972873798E+002	2.8515774E-001	-2.7035913E+002
3	0	3.669543972747488E+002	2.8465387E-001	-2.7036618E+002
3	0	3.674543972621177E+002	2.8415668E-001	-2.7037677E+002
3	0	3.679543972494866E+002	2.8365180E-001	-2.7036267E+002
3	0	3.684543972368556E+002	2.8313214E-001	-2.7035913E+002
3	0	3.689543972242245E+002	2.8259805E-001	-2.7039447E+002
3	0	3.694543972115935E+002	2.8211257E-001	-2.7040860E+002
3	0	3.699543971989624E+002	2.8163791E-001	-2.7037677E+002
3	0	3.704543971863313E+002	2.8116465E-001	-2.7036267E+002
3	0	3.709543971737003E+002	2.8069410E-001	-2.7039447E+002
3	0	3.714543971610692E+002	2.8023013E-001	-2.7037677E+002
3	0	3.719543971484381E+002	2.7976283E-001	-2.7037326E+002
3	0	3.724543971358071E+002	2.7927828E-001	-2.7038742E+002
3	0	3.729543971231760E+002	2.7879024E-001	-2.7040155E+002
3	0	3.734543971105450E+002	2.7833760E-001	-2.7038031E+002
3	0	3.739543970979139E+002	2.7790117E-001	-2.7037677E+002
3	0	3.744543970852828E+002	2.7746409E-001	-2.7035205E+002
3	0	3.749543970726518E+002	2.7702975E-001	-2.7037677E+002
3	0	3.749547970726417E+002	2.7680010E-001	-2.7037677E+002