EC-Lab ASCII FILE
Nb header lines : 55                          

Open Circuit Voltage

Run on channel : 1 (SN 81504)
User : 
CE vs. WE compliance from -10 V to 10 V
Electrode connection : standard
Potential control : Ewe
Ewe ctrl range : min = -2.50 V, max = 2.50 V
Safety Limits :
	Do not start on E overload
Acquisition started on : 05/07/2026 14:54:34.266
Loaded Setting File :  C:\PEM-WE_measurements\2026\372_IV_IV IrOx, 5 min Pt, 30 min C, etched cathode\new station\Loopeis new\1,46 V different time gaps open cell\Loopeis 1,46V_30s_5_PEIS from 65Hz to 10Hz.mps
Saved on :
	File : L_05_Loopeis 1,46V_30s_5_PEIS from 65Hz to 10Hz_02_OCV_C01.mpr
	Directory : C:\PEM-WE_measurements\2026\372_IV_IV IrOx, 5 min Pt, 30 min C, etched cathode\new station\Loopeis new\1,46 V different time gaps open cell\
	Host : 192.168.0.2
Device : SP-150e (SN .005491)
Address : 192.168.0.91
EC-LAB for windows v11.71 (software)
Internet server v28.00 (firmware)
Command interpretor v14.01 (firmware)
Electrode material : 
Initial state : 
Electrolyte : 
Comments : 
Current amplifier : SP-150eB-20A
Electrode surface area : 0.001 cm²
Characteristic mass : 0.001 g
Equivalent Weight : 0.000 g/eq.
Density : 0.000 g/cm3
Volume (V) : 0.001 cm³
Record Analogic IN 1
Text export
   Mode : Standard
   Time format : Elapsed
Cycle Definition : Charge/Discharge alternance
External device configuration :
   device type : Temperature Probe
   device name : Other
   Analog IN 1 : 
      unit : T/Â°C
      max : 100.000 at 2.000 V
      min : 0.000 at 1.460 V
tR (h:m:s)          0:00:30.0000        
dER/dt (mV/h)       1.0                 
record              <Ewe>               
dER (mV)            10.00               
dtR (s)             0.5000              
E range min (V)     -2.500              
E range max (V)     2.500               

mode	error	time/s	<Ewe/V>	Analog IN 1/V	
3	0	4.549979885057837E+001	1.2752889E+000	-2.7038031E+002
3	0	4.599979883794731E+001	1.2678972E+000	-2.7036972E+002
3	0	4.649979882531625E+001	1.2218955E+000	-2.7037677E+002
3	0	4.699979881268519E+001	1.1202493E+000	-2.7039801E+002
3	0	4.749979880005412E+001	7.2632951E-001	-2.7036972E+002
3	0	4.799979878742306E+001	4.0239659E-001	-2.7036972E+002
3	0	4.849979877479200E+001	3.5197103E-001	-2.7039093E+002
3	0	4.899979876216094E+001	3.4124291E-001	-2.7039447E+002
3	0	4.949979874952987E+001	3.3316970E-001	-2.7035913E+002
3	0	4.999979873689881E+001	3.2699645E-001	-2.7036972E+002
3	0	5.049979872426775E+001	3.2234251E-001	-2.7037326E+002
3	0	5.099979871163669E+001	3.1876156E-001	-2.7036618E+002
3	0	5.149979869900562E+001	3.1596667E-001	-2.7037677E+002
3	0	5.199979868637456E+001	3.1372538E-001	-2.7037677E+002
3	0	5.249979867374350E+001	3.1185204E-001	-2.7038742E+002
3	0	5.299979866111244E+001	3.1025892E-001	-2.7040506E+002
3	0	5.349979864848137E+001	3.0887553E-001	-2.7039093E+002
3	0	5.399979863585031E+001	3.0765724E-001	-2.7036972E+002
3	0	5.449979862321925E+001	3.0654082E-001	-2.7036618E+002
3	0	5.499979861058819E+001	3.0550656E-001	-2.7038742E+002
3	0	5.549979859795712E+001	3.0455875E-001	-2.7037677E+002
3	0	5.599979858532606E+001	3.0370754E-001	-2.7036267E+002
3	0	5.649979857269500E+001	3.0289409E-001	-2.7038031E+002
3	0	5.699979856006394E+001	3.0212846E-001	-2.7037326E+002
3	0	5.749979854743287E+001	3.0138808E-001	-2.7039093E+002
3	0	5.799979853480181E+001	3.0068359E-001	-2.7036618E+002
3	0	5.849979852217075E+001	2.9998377E-001	-2.7038742E+002
3	0	5.899979850953969E+001	2.9928091E-001	-2.7035559E+002
3	0	5.949979849690862E+001	2.9861745E-001	-2.7039801E+002
3	0	5.999979848427756E+001	2.9800341E-001	-2.7037677E+002
3	0	6.049979847164650E+001	2.9738098E-001	-2.7039447E+002
3	0	6.099979845901544E+001	2.9677671E-001	-2.7035913E+002
3	0	6.149979844638438E+001	2.9618096E-001	-2.7037677E+002
3	0	6.199979843375331E+001	2.9560170E-001	-2.7038385E+002
3	0	6.249979842112225E+001	2.9500914E-001	-2.7040506E+002
3	0	6.299979840849119E+001	2.9440197E-001	-2.7038385E+002
3	0	6.349979839586013E+001	2.9382715E-001	-2.7038031E+002
3	0	6.399979838322906E+001	2.9328385E-001	-2.7038742E+002
3	0	6.449979837059800E+001	2.9272956E-001	-2.7037326E+002
3	0	6.499979835796694E+001	2.9218477E-001	-2.7040155E+002
3	0	6.549979834533588E+001	2.9164836E-001	-2.7038385E+002
3	0	6.599979833270481E+001	2.9111347E-001	-2.7038385E+002
3	0	6.649979832007375E+001	2.9056865E-001	-2.7037326E+002
3	0	6.699979830744269E+001	2.9001024E-001	-2.7036972E+002
3	0	6.749979829481163E+001	2.8946567E-001	-2.7038031E+002
3	0	6.799979828218056E+001	2.8895834E-001	-2.7035913E+002
3	0	6.849979826954950E+001	2.8844732E-001	-2.7039093E+002
3	0	6.899979825691844E+001	2.8793979E-001	-2.7038031E+002
3	0	6.949979824428738E+001	2.8743812E-001	-2.7034497E+002
3	0	6.999979823165631E+001	2.8694168E-001	-2.7038031E+002
3	0	7.049979821902525E+001	2.8643253E-001	-2.7035205E+002
3	0	7.099979820639419E+001	2.8590804E-001	-2.7034143E+002
3	0	7.149979819376313E+001	2.8540584E-001	-2.7037326E+002
3	0	7.199979818113206E+001	2.8493413E-001	-2.7038385E+002
3	0	7.249979816850100E+001	2.8446028E-001	-2.7036618E+002
3	0	7.299979815586994E+001	2.8399423E-001	-2.7037677E+002
3	0	7.349979814323888E+001	2.8352877E-001	-2.7038385E+002
3	0	7.399979813060781E+001	2.8306627E-001	-2.7036618E+002
3	0	7.449979811797675E+001	2.8259084E-001	-2.7037677E+002
3	0	7.499979810534569E+001	2.8211078E-001	-2.7034851E+002
3	0	7.500019810533558E+001	2.8199092E-001	-2.7036267E+002