EC-Lab ASCII FILE
Nb header lines : 55                          

Open Circuit Voltage

Run on channel : 1 (SN 81504)
User : 
CE vs. WE compliance from -10 V to 10 V
Electrode connection : standard
Potential control : Ewe
Ewe ctrl range : min = -2.50 V, max = 2.50 V
Safety Limits :
	Do not start on E overload
Acquisition started on : 05/07/2026 14:54:34.266
Loaded Setting File :  C:\PEM-WE_measurements\2026\372_IV_IV IrOx, 5 min Pt, 30 min C, etched cathode\new station\Loopeis new\1,46 V different time gaps open cell\Loopeis 1,46V_30s_5_PEIS from 65Hz to 10Hz.mps
Saved on :
	File : L_05_Loopeis 1,46V_30s_5_PEIS from 65Hz to 10Hz_04_OCV_C01.mpr
	Directory : C:\PEM-WE_measurements\2026\372_IV_IV IrOx, 5 min Pt, 30 min C, etched cathode\new station\Loopeis new\1,46 V different time gaps open cell\
	Host : 192.168.0.2
Device : SP-150e (SN .005491)
Address : 192.168.0.91
EC-LAB for windows v11.71 (software)
Internet server v28.00 (firmware)
Command interpretor v14.01 (firmware)
Electrode material : 
Initial state : 
Electrolyte : 
Comments : 
Current amplifier : SP-150eB-20A
Electrode surface area : 0.001 cm²
Characteristic mass : 0.001 g
Equivalent Weight : 0.000 g/eq.
Density : 0.000 g/cm3
Volume (V) : 0.001 cm³
Record Analogic IN 1
Text export
   Mode : Standard
   Time format : Elapsed
Cycle Definition : Charge/Discharge alternance
External device configuration :
   device type : Temperature Probe
   device name : Other
   Analog IN 1 : 
      unit : T/Â°C
      max : 100.000 at 2.000 V
      min : 0.000 at 1.460 V
tR (h:m:s)          0:00:30.0000        
dER/dt (mV/h)       1.0                 
record              <Ewe>               
dER (mV)            10.00               
dtR (s)             0.5000              
E range min (V)     -2.500              
E range max (V)     2.500               

mode	error	time/s	<Ewe/V>	Analog IN 1/V	
3	0	5.730496217266773E+002	1.2780141E+000	-2.7037677E+002
3	0	5.735496217140462E+002	1.2745082E+000	-2.7038031E+002
3	0	5.740496217014152E+002	1.2376571E+000	-2.7034497E+002
3	0	5.745496216887841E+002	1.1621194E+000	-2.7038385E+002
3	0	5.750496216761530E+002	8.9895993E-001	-2.7038031E+002
3	0	5.755496216635220E+002	4.6358195E-001	-2.7036972E+002
3	0	5.760496216508909E+002	3.6503235E-001	-2.7036972E+002
3	0	5.765496216382599E+002	3.5013485E-001	-2.7038385E+002
3	0	5.770496216256288E+002	3.4103966E-001	-2.7034143E+002
3	0	5.775496216129977E+002	3.3413374E-001	-2.7036618E+002
3	0	5.780496216003667E+002	3.2905018E-001	-2.7038385E+002
3	0	5.785496215877356E+002	3.2522187E-001	-2.7039093E+002
3	0	5.790496215751045E+002	3.2226840E-001	-2.7039093E+002
3	0	5.795496215624735E+002	3.1992003E-001	-2.7036972E+002
3	0	5.800496215498424E+002	3.1800300E-001	-2.7038031E+002
3	0	5.805496215372114E+002	3.1638461E-001	-2.7036972E+002
3	0	5.810496215245803E+002	3.1497326E-001	-2.7034851E+002
3	0	5.815496215119492E+002	3.1373778E-001	-2.7037326E+002
3	0	5.820496214993182E+002	3.1262311E-001	-2.7039093E+002
3	0	5.825496214866871E+002	3.1158787E-001	-2.7038742E+002
3	0	5.830496214740560E+002	3.1064364E-001	-2.7040155E+002
3	0	5.835496214614250E+002	3.0978888E-001	-2.7035913E+002
3	0	5.840496214487939E+002	3.0898947E-001	-2.7038031E+002
3	0	5.845496214361629E+002	3.0823794E-001	-2.7036972E+002
3	0	5.850496214235318E+002	3.0750707E-001	-2.7038385E+002
3	0	5.855496214109007E+002	3.0680639E-001	-2.7038031E+002
3	0	5.860496213982697E+002	3.0611691E-001	-2.7035913E+002
3	0	5.865496213856386E+002	3.0542356E-001	-2.7038385E+002
3	0	5.870496213730075E+002	3.0475980E-001	-2.7036267E+002
3	0	5.875496213603765E+002	3.0414245E-001	-2.7036267E+002
3	0	5.880496213477454E+002	3.0354452E-001	-2.7038031E+002
3	0	5.885496213351144E+002	3.0295524E-001	-2.7035913E+002
3	0	5.890496213224833E+002	3.0236843E-001	-2.7037677E+002
3	0	5.895496213098522E+002	3.0179250E-001	-2.7036618E+002
3	0	5.900496212972212E+002	3.0120149E-001	-2.7039447E+002
3	0	5.905496212845901E+002	3.0059874E-001	-2.7038742E+002
3	0	5.910496212719590E+002	3.0001295E-001	-2.7038031E+002
3	0	5.915496212593280E+002	2.9946473E-001	-2.7035205E+002
3	0	5.920496212466969E+002	2.9892409E-001	-2.7036972E+002
3	0	5.925496212340659E+002	2.9840288E-001	-2.7036972E+002
3	0	5.930496212214348E+002	2.9787993E-001	-2.7036972E+002
3	0	5.935496212088037E+002	2.9735258E-001	-2.7035913E+002
3	0	5.940496211961727E+002	2.9682299E-001	-2.7036267E+002
3	0	5.945496211835416E+002	2.9628050E-001	-2.7039093E+002
3	0	5.950496211709105E+002	2.9574162E-001	-2.7039093E+002
3	0	5.955496211582795E+002	2.9524049E-001	-2.7039093E+002
3	0	5.960496211456484E+002	2.9474428E-001	-2.7036618E+002
3	0	5.965496211330174E+002	2.9425001E-001	-2.7037326E+002
3	0	5.970496211203863E+002	2.9376027E-001	-2.7039447E+002
3	0	5.975496211077552E+002	2.9327530E-001	-2.7039093E+002
3	0	5.980496210951242E+002	2.9277366E-001	-2.7036972E+002
3	0	5.985496210824931E+002	2.9225591E-001	-2.7039447E+002
3	0	5.990496210698620E+002	2.9175457E-001	-2.7037677E+002
3	0	5.995496210572310E+002	2.9128328E-001	-2.7038031E+002
3	0	6.000496210445999E+002	2.9082224E-001	-2.7038031E+002
3	0	6.005496210319689E+002	2.9035985E-001	-2.7037326E+002
3	0	6.010496210193378E+002	2.8989953E-001	-2.7038031E+002
3	0	6.015496210067067E+002	2.8943807E-001	-2.7036972E+002
3	0	6.020496209940757E+002	2.8897420E-001	-2.7039447E+002
3	0	6.025496209814446E+002	2.8849405E-001	-2.7036267E+002
3	0	6.025730209808535E+002	2.8824088E-001	-2.7039093E+002