EC-Lab ASCII FILE
Nb header lines : 55                          

Open Circuit Voltage

Run on channel : 1 (SN 81504)
User : 
CE vs. WE compliance from -10 V to 10 V
Electrode connection : standard
Potential control : Ewe
Ewe ctrl range : min = -2.50 V, max = 2.50 V
Safety Limits :
	Do not start on E overload
Acquisition started on : 05/07/2026 14:54:34.266
Loaded Setting File :  C:\PEM-WE_measurements\2026\372_IV_IV IrOx, 5 min Pt, 30 min C, etched cathode\new station\Loopeis new\1,46 V different time gaps open cell\Loopeis 1,46V_30s_5_PEIS from 65Hz to 10Hz.mps
Saved on :
	File : L_05_Loopeis 1,46V_30s_5_PEIS from 65Hz to 10Hz_20_OCV_C01.mpr
	Directory : C:\PEM-WE_measurements\2026\372_IV_IV IrOx, 5 min Pt, 30 min C, etched cathode\new station\Loopeis new\1,46 V different time gaps open cell\
	Host : 192.168.0.2
Device : SP-150e (SN .005491)
Address : 192.168.0.91
EC-LAB for windows v11.71 (software)
Internet server v28.00 (firmware)
Command interpretor v14.01 (firmware)
Electrode material : 
Initial state : 
Electrolyte : 
Comments : 
Current amplifier : SP-150eB-20A
Electrode surface area : 0.001 cm²
Characteristic mass : 0.001 g
Equivalent Weight : 0.000 g/eq.
Density : 0.000 g/cm3
Volume (V) : 0.001 cm³
Record Analogic IN 1
Text export
   Mode : Standard
   Time format : Elapsed
Cycle Definition : Charge/Discharge alternance
External device configuration :
   device type : Temperature Probe
   device name : Other
   Analog IN 1 : 
      unit : T/Â°C
      max : 100.000 at 2.000 V
      min : 0.000 at 1.460 V
tR (h:m:s)          0:00:30.0000        
dER/dt (mV/h)       1.0                 
record              <Ewe>               
dER (mV)            10.00               
dtR (s)             0.5000              
E range min (V)     -2.500              
E range max (V)     2.500               

mode	error	time/s	<Ewe/V>	Analog IN 1/V	
3	0	1.177406619872636E+003	1.2766902E+000	-2.7038742E+002
3	0	1.177906619860005E+003	1.2730603E+000	-2.7038742E+002
3	0	1.178406619847374E+003	1.2392036E+000	-2.7039093E+002
3	0	1.178906619834743E+003	1.1692729E+000	-2.7037677E+002
3	0	1.179406619822112E+003	9.5084292E-001	-2.7035559E+002
3	0	1.179906619809481E+003	4.8724315E-001	-2.7035913E+002
3	0	1.180406619796850E+003	3.5981071E-001	-2.7038385E+002
3	0	1.180906619784218E+003	3.4262887E-001	-2.7041214E+002
3	0	1.181406619771587E+003	3.3357608E-001	-2.7039093E+002
3	0	1.181906619758956E+003	3.2648009E-001	-2.7038385E+002
3	0	1.182406619746325E+003	3.2118800E-001	-2.7040506E+002
3	0	1.182906619733694E+003	3.1722170E-001	-2.7036618E+002
3	0	1.183406619721063E+003	3.1415153E-001	-2.7038385E+002
3	0	1.183906619708432E+003	3.1170580E-001	-2.7036972E+002
3	0	1.184406619695801E+003	3.0970421E-001	-2.7037326E+002
3	0	1.184906619683170E+003	3.0801678E-001	-2.7037326E+002
3	0	1.185406619670539E+003	3.0654818E-001	-2.7040506E+002
3	0	1.185906619657908E+003	3.0524454E-001	-2.7041214E+002
3	0	1.186406619645277E+003	3.0409145E-001	-2.7035205E+002
3	0	1.186906619632646E+003	3.0306846E-001	-2.7037677E+002
3	0	1.187406619620015E+003	3.0212936E-001	-2.7038742E+002
3	0	1.187906619607384E+003	3.0125996E-001	-2.7037677E+002
3	0	1.188406619594753E+003	3.0044955E-001	-2.7038742E+002
3	0	1.188906619582121E+003	2.9968932E-001	-2.7039447E+002
3	0	1.189406619569490E+003	2.9893312E-001	-2.7037326E+002
3	0	1.189906619556859E+003	2.9818740E-001	-2.7037326E+002
3	0	1.190406619544228E+003	2.9747733E-001	-2.7039801E+002
3	0	1.190906619531597E+003	2.9682019E-001	-2.7037326E+002
3	0	1.191406619518966E+003	2.9617780E-001	-2.7039801E+002
3	0	1.191906619506335E+003	2.9555622E-001	-2.7038031E+002
3	0	1.192406619493704E+003	2.9495585E-001	-2.7039093E+002
3	0	1.192906619481073E+003	2.9436430E-001	-2.7039447E+002
3	0	1.193406619468442E+003	2.9375580E-001	-2.7036267E+002
3	0	1.193906619455811E+003	2.9313615E-001	-2.7038742E+002
3	0	1.194406619443180E+003	2.9253361E-001	-2.7038031E+002
3	0	1.194906619430549E+003	2.9196811E-001	-2.7039447E+002
3	0	1.195406619417918E+003	2.9140228E-001	-2.7038742E+002
3	0	1.195906619405287E+003	2.9084921E-001	-2.7037326E+002
3	0	1.196406619392656E+003	2.9031149E-001	-2.7038031E+002
3	0	1.196906619380024E+003	2.8977653E-001	-2.7037677E+002
3	0	1.197406619367393E+003	2.8922328E-001	-2.7038031E+002
3	0	1.197906619354762E+003	2.8866115E-001	-2.7040155E+002
3	0	1.198406619342131E+003	2.8811410E-001	-2.7042273E+002
3	0	1.198906619329500E+003	2.8759813E-001	-2.7038031E+002
3	0	1.199406619316869E+003	2.8708908E-001	-2.7039447E+002
3	0	1.199906619304238E+003	2.8658438E-001	-2.7036618E+002
3	0	1.200406619291607E+003	2.8608632E-001	-2.7038742E+002
3	0	1.200906619278976E+003	2.8558305E-001	-2.7037677E+002
3	0	1.201406619266345E+003	2.8506404E-001	-2.7037326E+002
3	0	1.201906619253714E+003	2.8453976E-001	-2.7037326E+002
3	0	1.202406619241083E+003	2.8403783E-001	-2.7036267E+002
3	0	1.202906619228452E+003	2.8355697E-001	-2.7036972E+002
3	0	1.203406619215821E+003	2.8307331E-001	-2.7039093E+002
3	0	1.203906619203190E+003	2.8259632E-001	-2.7037326E+002
3	0	1.204406619190559E+003	2.8212887E-001	-2.7039093E+002
3	0	1.204906619177928E+003	2.8166127E-001	-2.7037326E+002
3	0	1.205406619165296E+003	2.8118214E-001	-2.7038385E+002
3	0	1.205906619152665E+003	2.8069767E-001	-2.7039093E+002
3	0	1.206406619140034E+003	2.8023654E-001	-2.7038742E+002
3	0	1.206906619127403E+003	2.7979794E-001	-2.7035913E+002
3	0	1.206931219126782E+003	2.7957436E-001	-2.7039801E+002