EC-Lab ASCII FILE
Nb header lines : 55                          

Open Circuit Voltage

Run on channel : 1 (SN 81504)
User : 
CE vs. WE compliance from -10 V to 10 V
Electrode connection : standard
Potential control : Ewe
Ewe ctrl range : min = -2.50 V, max = 2.50 V
Safety Limits :
	Do not start on E overload
Acquisition started on : 05/07/2026 14:54:34.266
Loaded Setting File :  C:\PEM-WE_measurements\2026\372_IV_IV IrOx, 5 min Pt, 30 min C, etched cathode\new station\Loopeis new\1,46 V different time gaps open cell\Loopeis 1,46V_30s_5_PEIS from 65Hz to 10Hz.mps
Saved on :
	File : L_05_Loopeis 1,46V_30s_5_PEIS from 65Hz to 10Hz_14_OCV_C01.mpr
	Directory : C:\PEM-WE_measurements\2026\372_IV_IV IrOx, 5 min Pt, 30 min C, etched cathode\new station\Loopeis new\1,46 V different time gaps open cell\
	Host : 192.168.0.2
Device : SP-150e (SN .005491)
Address : 192.168.0.91
EC-LAB for windows v11.71 (software)
Internet server v28.00 (firmware)
Command interpretor v14.01 (firmware)
Electrode material : 
Initial state : 
Electrolyte : 
Comments : 
Current amplifier : SP-150eB-20A
Electrode surface area : 0.001 cm²
Characteristic mass : 0.001 g
Equivalent Weight : 0.000 g/eq.
Density : 0.000 g/cm3
Volume (V) : 0.001 cm³
Record Analogic IN 1
Text export
   Mode : Standard
   Time format : Elapsed
Cycle Definition : Charge/Discharge alternance
External device configuration :
   device type : Temperature Probe
   device name : Other
   Analog IN 1 : 
      unit : T/Â°C
      max : 100.000 at 2.000 V
      min : 0.000 at 1.460 V
tR (h:m:s)          0:00:30.0000        
dER/dt (mV/h)       1.0                 
record              <Ewe>               
dER (mV)            10.00               
dtR (s)             0.5000              
E range min (V)     -2.500              
E range max (V)     2.500               

mode	error	time/s	<Ewe/V>	Analog IN 1/V	
3	0	9.491452188517724E+002	1.2761512E+000	-2.7038742E+002
3	0	9.496452188391413E+002	1.2693727E+000	-2.7040155E+002
3	0	9.501452188265102E+002	1.2292910E+000	-2.7036972E+002
3	0	9.506452188138792E+002	1.1475482E+000	-2.7036972E+002
3	0	9.511452188012481E+002	8.6489451E-001	-2.7038385E+002
3	0	9.516452187886171E+002	4.4709027E-001	-2.7038385E+002
3	0	9.521452187759860E+002	3.5182360E-001	-2.7036972E+002
3	0	9.526452187633549E+002	3.3812529E-001	-2.7039447E+002
3	0	9.531452187507239E+002	3.2953516E-001	-2.7036972E+002
3	0	9.536452187380928E+002	3.2280654E-001	-2.7036618E+002
3	0	9.541452187254617E+002	3.1773809E-001	-2.7037677E+002
3	0	9.546452187128307E+002	3.1389979E-001	-2.7036972E+002
3	0	9.551452187001996E+002	3.1093132E-001	-2.7039093E+002
3	0	9.556452186875686E+002	3.0854982E-001	-2.7036267E+002
3	0	9.561452186749375E+002	3.0658484E-001	-2.7038031E+002
3	0	9.566452186623064E+002	3.0492380E-001	-2.7036267E+002
3	0	9.571452186496754E+002	3.0349439E-001	-2.7038742E+002
3	0	9.576452186370443E+002	3.0221567E-001	-2.7039093E+002
3	0	9.581452186244132E+002	3.0105403E-001	-2.7037677E+002
3	0	9.586452186117822E+002	3.0000919E-001	-2.7040506E+002
3	0	9.591452185991511E+002	2.9908606E-001	-2.7035913E+002
3	0	9.596452185865201E+002	2.9823571E-001	-2.7039447E+002
3	0	9.601452185738890E+002	2.9742485E-001	-2.7038031E+002
3	0	9.606452185612579E+002	2.9666021E-001	-2.7038385E+002
3	0	9.611452185486269E+002	2.9592782E-001	-2.7039093E+002
3	0	9.616452185359958E+002	2.9520777E-001	-2.7036267E+002
3	0	9.621452185233647E+002	2.9449019E-001	-2.7039093E+002
3	0	9.626452185107337E+002	2.9381374E-001	-2.7038742E+002
3	0	9.631452184981026E+002	2.9319182E-001	-2.7038031E+002
3	0	9.636452184854716E+002	2.9257667E-001	-2.7035913E+002
3	0	9.641452184728405E+002	2.9197705E-001	-2.7038742E+002
3	0	9.646452184602094E+002	2.9138255E-001	-2.7036618E+002
3	0	9.651452184475784E+002	2.9079804E-001	-2.7039801E+002
3	0	9.656452184349473E+002	2.9020774E-001	-2.7040506E+002
3	0	9.661452184223162E+002	2.8960687E-001	-2.7039093E+002
3	0	9.666452184096852E+002	2.8902397E-001	-2.7036972E+002
3	0	9.671452183970541E+002	2.8848654E-001	-2.7037326E+002
3	0	9.676452183844231E+002	2.8795627E-001	-2.7037677E+002
3	0	9.681452183717920E+002	2.8742164E-001	-2.7039801E+002
3	0	9.686452183591609E+002	2.8689674E-001	-2.7035205E+002
3	0	9.691452183465299E+002	2.8636515E-001	-2.7038031E+002
3	0	9.696452183338988E+002	2.8583071E-001	-2.7040860E+002
3	0	9.701452183212677E+002	2.8528064E-001	-2.7037326E+002
3	0	9.706452183086367E+002	2.8474075E-001	-2.7039093E+002
3	0	9.711452182960056E+002	2.8424135E-001	-2.7038385E+002
3	0	9.716452182833746E+002	2.8374848E-001	-2.7035559E+002
3	0	9.721452182707435E+002	2.8325272E-001	-2.7036972E+002
3	0	9.726452182581124E+002	2.8275865E-001	-2.7037326E+002
3	0	9.731452182454814E+002	2.8226784E-001	-2.7036618E+002
3	0	9.736452182328503E+002	2.8176549E-001	-2.7038742E+002
3	0	9.741452182202192E+002	2.8124204E-001	-2.7036972E+002
3	0	9.746452182075882E+002	2.8075036E-001	-2.7040860E+002
3	0	9.751452181949571E+002	2.8028190E-001	-2.7036267E+002
3	0	9.756452181823261E+002	2.7982748E-001	-2.7038742E+002
3	0	9.761452181696950E+002	2.7937204E-001	-2.7037677E+002
3	0	9.766452181570639E+002	2.7891862E-001	-2.7036267E+002
3	0	9.771452181444329E+002	2.7847284E-001	-2.7037326E+002
3	0	9.776452181318018E+002	2.7801448E-001	-2.7039093E+002
3	0	9.781452181191708E+002	2.7754003E-001	-2.7035913E+002
3	0	9.786452181065397E+002	2.7707872E-001	-2.7037677E+002
3	0	9.786456181065296E+002	2.7673331E-001	-2.7038385E+002