EC-Lab ASCII FILE
Nb header lines : 56                          

Open Circuit Voltage

Run on channel : 1 (SN 81504)
User : 
CE vs. WE compliance from -10 V to 10 V
Electrode connection : standard
Potential control : Ewe
Ewe ctrl range : min = -2.50 V, max = 2.50 V
Safety Limits :
	Do not start on E overload
Acquisition started on : 05/07/2026 15:14:45.413
Loaded Setting File :  C:\PEM-WE_measurements\2026\372_IV_IV IrOx, 5 min Pt, 30 min C, etched cathode\new station\Loopeis new\1,46 V different time gaps open cell\Loopeis 1,46V_45s_1_initial_loops.mps
Saved on :
	File : L_06_Loopeis 1,46V_45s_1_initial_loops_02_OCV_C01.mpr
	Directory : C:\PEM-WE_measurements\2026\372_IV_IV IrOx, 5 min Pt, 30 min C, etched cathode\new station\Loopeis new\1,46 V different time gaps open cell\
	Host : 192.168.0.2
Device : SP-150e (SN .005491)
Address : 192.168.0.91
EC-LAB for windows v11.71 (software)
Internet server v28.00 (firmware)
Command interpretor v14.01 (firmware)
Electrode material : 
Initial state : 
Electrolyte : 
Comments : 
Current amplifier : SP-150eB-20A
Electrode surface area : 0.000 cm²
Characteristic mass : 0.001 g
Equivalent Weight : 0.000 g/eq.
Density : 0.000 g/cm3
Volume (V) : 0.001 cm³
Record Analogic IN 1
Record energy
Text export
   Mode : Standard
   Time format : Elapsed
Cycle Definition : Charge/Discharge alternance
External device configuration :
   device type : Temperature Probe
   device name : Other
   Analog IN 1 : 
      unit : T/Â°C
      max : 100.000 at 2.000 V
      min : 0.000 at 1.460 V
tR (h:m:s)          0:00:45.0000        
dER/dt (mV/h)       1.0                 
record              <Ewe>               
dER (mV)            10.00               
dtR (s)             0.5000              
E range min (V)     -2.500              
E range max (V)     2.500               

mode	error	time/s	<Ewe/V>	Analog IN 1/V	
3	0	4.549979885057837E+001	1.2769083E+000	-2.7039447E+002
3	0	4.599979883794731E+001	1.2715253E+000	-2.7037326E+002
3	0	4.649979882531625E+001	1.2340361E+000	-2.7038031E+002
3	0	4.699979881268519E+001	1.1564962E+000	-2.7040860E+002
3	0	4.749979880005412E+001	8.9323074E-001	-2.7038031E+002
3	0	4.799979878742306E+001	4.5967922E-001	-2.7039447E+002
3	0	4.849979877479200E+001	3.5669968E-001	-2.7037677E+002
3	0	4.899979876216094E+001	3.4187955E-001	-2.7038742E+002
3	0	4.949979874952987E+001	3.3291268E-001	-2.7040155E+002
3	0	4.999979873689881E+001	3.2598653E-001	-2.7036972E+002
3	0	5.049979872426775E+001	3.2081351E-001	-2.7038385E+002
3	0	5.099979871163669E+001	3.1689918E-001	-2.7037677E+002
3	0	5.149979869900562E+001	3.1383717E-001	-2.7038385E+002
3	0	5.199979868637456E+001	3.1137976E-001	-2.7038031E+002
3	0	5.249979867374350E+001	3.0937785E-001	-2.7039093E+002
3	0	5.299979866111244E+001	3.0770826E-001	-2.7035559E+002
3	0	5.349979864848137E+001	3.0626154E-001	-2.7038031E+002
3	0	5.399979863585031E+001	3.0498776E-001	-2.7035913E+002
3	0	5.449979862321925E+001	3.0385414E-001	-2.7035559E+002
3	0	5.499979861058819E+001	3.0281368E-001	-2.7035913E+002
3	0	5.549979859795712E+001	3.0183265E-001	-2.7036267E+002
3	0	5.599979858532606E+001	3.0090725E-001	-2.7035913E+002
3	0	5.649979857269500E+001	3.0008280E-001	-2.7036618E+002
3	0	5.699979856006394E+001	2.9930872E-001	-2.7037677E+002
3	0	5.749979854743287E+001	2.9857990E-001	-2.7036267E+002
3	0	5.799979853480181E+001	2.9787397E-001	-2.7037677E+002
3	0	5.849979852217075E+001	2.9719070E-001	-2.7038031E+002
3	0	5.899979850953969E+001	2.9650769E-001	-2.7036618E+002
3	0	5.949979849690862E+001	2.9583436E-001	-2.7039093E+002
3	0	5.999979848427756E+001	2.9516649E-001	-2.7037326E+002
3	0	6.049979847164650E+001	2.9455170E-001	-2.7036618E+002
3	0	6.099979845901544E+001	2.9395849E-001	-2.7038031E+002
3	0	6.149979844638438E+001	2.9338256E-001	-2.7036618E+002
3	0	6.199979843375331E+001	2.9280600E-001	-2.7039801E+002
3	0	6.249979842112225E+001	2.9223621E-001	-2.7035205E+002
3	0	6.299979840849119E+001	2.9165971E-001	-2.7037677E+002
3	0	6.349979839586013E+001	2.9106259E-001	-2.7039447E+002
3	0	6.399979838322906E+001	2.9046386E-001	-2.7035559E+002
3	0	6.449979837059800E+001	2.8992015E-001	-2.7039801E+002
3	0	6.499979835796694E+001	2.8938055E-001	-2.7036972E+002
3	0	6.549979834533588E+001	2.8885785E-001	-2.7038385E+002
3	0	6.599979833270481E+001	2.8833446E-001	-2.7037326E+002
3	0	6.649979832007375E+001	2.8781474E-001	-2.7038385E+002
3	0	6.699979830744269E+001	2.8729099E-001	-2.7037677E+002
3	0	6.749979829481163E+001	2.8675032E-001	-2.7038031E+002
3	0	6.799979828218056E+001	2.8620109E-001	-2.7038385E+002
3	0	6.849979826954950E+001	2.8569806E-001	-2.7036972E+002
3	0	6.899979825691844E+001	2.8520644E-001	-2.7037677E+002
3	0	6.949979824428738E+001	2.8471762E-001	-2.7039447E+002
3	0	6.999979823165631E+001	2.8423208E-001	-2.7036267E+002
3	0	7.049979821902525E+001	2.8374469E-001	-2.7040506E+002
3	0	7.099979820639419E+001	2.8325492E-001	-2.7036618E+002
3	0	7.149979819376313E+001	2.8274435E-001	-2.7037326E+002
3	0	7.199979818113206E+001	2.8224346E-001	-2.7040155E+002
3	0	7.249979816850100E+001	2.8177443E-001	-2.7038031E+002
3	0	7.299979815586994E+001	2.8132164E-001	-2.7038385E+002
3	0	7.349979814323888E+001	2.8086871E-001	-2.7034497E+002
3	0	7.399979813060781E+001	2.8042084E-001	-2.7037677E+002
3	0	7.449979811797675E+001	2.7996793E-001	-2.7037677E+002
3	0	7.499979810534569E+001	2.7951553E-001	-2.7037326E+002
3	0	7.549979809271463E+001	2.7904600E-001	-2.7037326E+002
3	0	7.599979808008356E+001	2.7857798E-001	-2.7038742E+002
3	0	7.649979806745250E+001	2.7814925E-001	-2.7039093E+002
3	0	7.699979805482144E+001	2.7773106E-001	-2.7039093E+002
3	0	7.749979804219038E+001	2.7731332E-001	-2.7038742E+002
3	0	7.799979802955932E+001	2.7689564E-001	-2.7038385E+002
3	0	7.849979801692825E+001	2.7648288E-001	-2.7035913E+002
3	0	7.899979800429719E+001	2.7606189E-001	-2.7039447E+002
3	0	7.949979799166613E+001	2.7562216E-001	-2.7038385E+002
3	0	7.999979797903507E+001	2.7517906E-001	-2.7038385E+002
3	0	8.049979796640400E+001	2.7478912E-001	-2.7037677E+002
3	0	8.099979795377294E+001	2.7441543E-001	-2.7038385E+002
3	0	8.149979794114188E+001	2.7402854E-001	-2.7038742E+002
3	0	8.199979792851082E+001	2.7364516E-001	-2.7034497E+002
3	0	8.249979791587975E+001	2.7326649E-001	-2.7037326E+002
3	0	8.299979790324869E+001	2.7287248E-001	-2.7039093E+002
3	0	8.349979789061763E+001	2.7246493E-001	-2.7037326E+002
3	0	8.399979787798657E+001	2.7206266E-001	-2.7036267E+002
3	0	8.449979786535550E+001	2.7170336E-001	-2.7039447E+002
3	0	8.499979785272444E+001	2.7133861E-001	-2.7036267E+002
3	0	8.549979784009338E+001	2.7098635E-001	-2.7036618E+002
3	0	8.599979782746232E+001	2.7063781E-001	-2.7037326E+002
3	0	8.649979781483125E+001	2.7028972E-001	-2.7036618E+002
3	0	8.699979780220019E+001	2.6992765E-001	-2.7036267E+002
3	0	8.749979778956913E+001	2.6955515E-001	-2.7037326E+002
3	0	8.799979777693807E+001	2.6918125E-001	-2.7038742E+002
3	0	8.849979776430700E+001	2.6884967E-001	-2.7038385E+002
3	0	8.899979775167594E+001	2.6852751E-001	-2.7040155E+002
3	0	8.949979773904488E+001	2.6820403E-001	-2.7039447E+002
3	0	8.999979772641382E+001	2.6788050E-001	-2.7040155E+002
3	0	9.000019772640371E+001	2.6778299E-001	-2.7039447E+002
3	0	1.355007965769619E+002	1.2763476E+000	-2.7039447E+002
3	0	1.360007965643308E+002	1.2704592E+000	-2.7039447E+002
3	0	1.365007965516998E+002	1.2319803E+000	-2.7039447E+002
3	0	1.370007965390687E+002	1.1517587E+000	-2.7038742E+002
3	0	1.375007965264376E+002	8.7400258E-001	-2.7039801E+002
3	0	1.380007965138066E+002	4.5095882E-001	-2.7035913E+002
3	0	1.385007965011755E+002	3.5353789E-001	-2.7037326E+002
3	0	1.390007964885444E+002	3.3944476E-001	-2.7038031E+002
3	0	1.395007964759134E+002	3.3067906E-001	-2.7035559E+002
3	0	1.400007964632823E+002	3.2385758E-001	-2.7037677E+002
3	0	1.405007964506513E+002	3.1874692E-001	-2.7037326E+002
3	0	1.410007964380202E+002	3.1488463E-001	-2.7038742E+002
3	0	1.415007964253891E+002	3.1186631E-001	-2.7038385E+002
3	0	1.420007964127581E+002	3.0944657E-001	-2.7037677E+002
3	0	1.425007964001270E+002	3.0746400E-001	-2.7038742E+002
3	0	1.430007963874959E+002	3.0576581E-001	-2.7039447E+002
3	0	1.435007963748649E+002	3.0428669E-001	-2.7038742E+002
3	0	1.440007963622338E+002	3.0297804E-001	-2.7036618E+002
3	0	1.445007963496028E+002	3.0183992E-001	-2.7038385E+002
3	0	1.450007963369717E+002	3.0081430E-001	-2.7036618E+002
3	0	1.455007963243406E+002	2.9987675E-001	-2.7036972E+002
3	0	1.460007963117096E+002	2.9899961E-001	-2.7040155E+002
3	0	1.465007962990785E+002	2.9818860E-001	-2.7038385E+002
3	0	1.470007962864474E+002	2.9739553E-001	-2.7038385E+002
3	0	1.475007962738164E+002	2.9661846E-001	-2.7037326E+002
3	0	1.480007962611853E+002	2.9586682E-001	-2.7036972E+002
3	0	1.485007962485543E+002	2.9518101E-001	-2.7035205E+002
3	0	1.490007962359232E+002	2.9452664E-001	-2.7036267E+002
3	0	1.495007962232921E+002	2.9389471E-001	-2.7036972E+002
3	0	1.500007962106611E+002	2.9327631E-001	-2.7036267E+002
3	0	1.505007961980300E+002	2.9266712E-001	-2.7040155E+002
3	0	1.510007961853989E+002	2.9206705E-001	-2.7036972E+002
3	0	1.515007961727679E+002	2.9144081E-001	-2.7038031E+002
3	0	1.520007961601368E+002	2.9081830E-001	-2.7040155E+002
3	0	1.525007961475058E+002	2.9024890E-001	-2.7037677E+002
3	0	1.530007961348747E+002	2.8969330E-001	-2.7038385E+002
3	0	1.535007961222436E+002	2.8913876E-001	-2.7038742E+002
3	0	1.540007961096126E+002	2.8859919E-001	-2.7039093E+002
3	0	1.545007960969815E+002	2.8806493E-001	-2.7039093E+002
3	0	1.550007960843504E+002	2.8751561E-001	-2.7036267E+002
3	0	1.555007960717194E+002	2.8695545E-001	-2.7035913E+002
3	0	1.560007960590883E+002	2.8639296E-001	-2.7036267E+002
3	0	1.565007960464573E+002	2.8587174E-001	-2.7039447E+002
3	0	1.570007960338262E+002	2.8536522E-001	-2.7036972E+002
3	0	1.575007960211951E+002	2.8486052E-001	-2.7038031E+002
3	0	1.580007960085641E+002	2.8436098E-001	-2.7038385E+002
3	0	1.585007959959330E+002	2.8386322E-001	-2.7036972E+002
3	0	1.590007959833019E+002	2.8335106E-001	-2.7040506E+002
3	0	1.595007959706709E+002	2.8282332E-001	-2.7035559E+002
3	0	1.600007959580398E+002	2.8230590E-001	-2.7036972E+002
3	0	1.605007959454088E+002	2.8182057E-001	-2.7039093E+002
3	0	1.610007959327777E+002	2.8134206E-001	-2.7037326E+002
3	0	1.615007959201466E+002	2.8086966E-001	-2.7035559E+002
3	0	1.620007959075156E+002	2.8040019E-001	-2.7036972E+002
3	0	1.625007958948845E+002	2.7994111E-001	-2.7035913E+002
3	0	1.630007958822534E+002	2.7946937E-001	-2.7036267E+002
3	0	1.635007958696224E+002	2.7898586E-001	-2.7037326E+002
3	0	1.640007958569913E+002	2.7849939E-001	-2.7037326E+002
3	0	1.645007958443603E+002	2.7805129E-001	-2.7037677E+002
3	0	1.650007958317292E+002	2.7760696E-001	-2.7038385E+002
3	0	1.655007958190981E+002	2.7716792E-001	-2.7039801E+002
3	0	1.660007958064671E+002	2.7673307E-001	-2.7036972E+002
3	0	1.665007957938360E+002	2.7630016E-001	-2.7036618E+002
3	0	1.670007957812049E+002	2.7585843E-001	-2.7036618E+002
3	0	1.675007957685739E+002	2.7540535E-001	-2.7037677E+002
3	0	1.680007957559428E+002	2.7494866E-001	-2.7036972E+002
3	0	1.685007957433118E+002	2.7454185E-001	-2.7040506E+002
3	0	1.690007957306807E+002	2.7413976E-001	-2.7039093E+002
3	0	1.695007957180496E+002	2.7373645E-001	-2.7036267E+002
3	0	1.700007957054186E+002	2.7333346E-001	-2.7036267E+002
3	0	1.705007956927875E+002	2.7293694E-001	-2.7036267E+002
3	0	1.710007956801564E+002	2.7252904E-001	-2.7038031E+002
3	0	1.715007956675254E+002	2.7211541E-001	-2.7039447E+002
3	0	1.720007956548943E+002	2.7169394E-001	-2.7037326E+002
3	0	1.725007956422633E+002	2.7130863E-001	-2.7038385E+002
3	0	1.730007956296322E+002	2.7093941E-001	-2.7038031E+002
3	0	1.735007956170011E+002	2.7056772E-001	-2.7038385E+002
3	0	1.740007956043701E+002	2.7019653E-001	-2.7036618E+002
3	0	1.745007955917390E+002	2.6983070E-001	-2.7035559E+002
3	0	1.750007955791079E+002	2.6946607E-001	-2.7038385E+002
3	0	1.755007955664769E+002	2.6907679E-001	-2.7036267E+002
3	0	1.760007955538458E+002	2.6868549E-001	-2.7038031E+002
3	0	1.765007955412148E+002	2.6834077E-001	-2.7038742E+002
3	0	1.770007955285837E+002	2.6800364E-001	-2.7037326E+002
3	0	1.775007955159526E+002	2.6766002E-001	-2.7039093E+002
3	0	1.780007955033216E+002	2.6731721E-001	-2.7038031E+002
3	0	1.785007954906905E+002	2.6698348E-001	-2.7037326E+002
3	0	1.790007954780594E+002	2.6663622E-001	-2.7037677E+002
3	0	1.795007954654284E+002	2.6627433E-001	-2.7036267E+002
3	0	1.800007954527973E+002	2.6591876E-001	-2.7038385E+002
3	0	1.800011954527872E+002	2.6583645E-001	-2.7039801E+002
3	0	2.255017943033454E+002	1.2764529E+000	-2.7038742E+002
3	0	2.260017942907143E+002	1.2702584E+000	-2.7038031E+002
3	0	2.265017942780833E+002	1.2316544E+000	-2.7037677E+002
3	0	2.270017942654522E+002	1.1520120E+000	-2.7037326E+002
3	0	2.275017942528211E+002	8.8652700E-001	-2.7038031E+002
3	0	2.280017942401901E+002	4.5686692E-001	-2.7036618E+002
3	0	2.285017942275590E+002	3.5224956E-001	-2.7038031E+002
3	0	2.290017942149279E+002	3.3758441E-001	-2.7035205E+002
3	0	2.295017942022969E+002	3.2885632E-001	-2.7036972E+002
3	0	2.300017941896658E+002	3.2201916E-001	-2.7037677E+002
3	0	2.305017941770348E+002	3.1688946E-001	-2.7036267E+002
3	0	2.310017941644037E+002	3.1298515E-001	-2.7035559E+002
3	0	2.315017941517726E+002	3.0993044E-001	-2.7037326E+002
3	0	2.320017941391416E+002	3.0748105E-001	-2.7038031E+002
3	0	2.325017941265105E+002	3.0548173E-001	-2.7038385E+002
3	0	2.330017941138794E+002	3.0379346E-001	-2.7036972E+002
3	0	2.335017941012484E+002	3.0234602E-001	-2.7038385E+002
3	0	2.340017940886173E+002	3.0107853E-001	-2.7037677E+002
3	0	2.345017940759863E+002	2.9994258E-001	-2.7037677E+002
3	0	2.350017940633552E+002	2.9890901E-001	-2.7037677E+002
3	0	2.355017940507241E+002	2.9793873E-001	-2.7039093E+002
3	0	2.360017940380931E+002	2.9703021E-001	-2.7036618E+002
3	0	2.365017940254620E+002	2.9621539E-001	-2.7039447E+002
3	0	2.370017940128309E+002	2.9543874E-001	-2.7038031E+002
3	0	2.375017940001999E+002	2.9470396E-001	-2.7038031E+002
3	0	2.380017939875688E+002	2.9399806E-001	-2.7037326E+002
3	0	2.385017939749378E+002	2.9332811E-001	-2.7036618E+002
3	0	2.390017939623067E+002	2.9266036E-001	-2.7038031E+002
3	0	2.395017939496756E+002	2.9199138E-001	-2.7040155E+002
3	0	2.400017939370446E+002	2.9132742E-001	-2.7037326E+002
3	0	2.405017939244135E+002	2.9071128E-001	-2.7039801E+002
3	0	2.410017939117824E+002	2.9011634E-001	-2.7037326E+002
3	0	2.415017938991514E+002	2.8952318E-001	-2.7037677E+002
3	0	2.420017938865203E+002	2.8895199E-001	-2.7036972E+002
3	0	2.425017938738893E+002	2.8839222E-001	-2.7036267E+002
3	0	2.430017938612582E+002	2.8782323E-001	-2.7037326E+002
3	0	2.435017938486271E+002	2.8723043E-001	-2.7037326E+002
3	0	2.440017938359961E+002	2.8664643E-001	-2.7039447E+002
3	0	2.445017938233650E+002	2.8610110E-001	-2.7039801E+002
3	0	2.450017938107339E+002	2.8556791E-001	-2.7035913E+002
3	0	2.455017937981029E+002	2.8502953E-001	-2.7036972E+002
3	0	2.460017937854718E+002	2.8450063E-001	-2.7037677E+002
3	0	2.465017937728408E+002	2.8398687E-001	-2.7038031E+002
3	0	2.470017937602097E+002	2.8346017E-001	-2.7038385E+002
3	0	2.475017937475786E+002	2.8291747E-001	-2.7036618E+002
3	0	2.480017937349476E+002	2.8238073E-001	-2.7036972E+002
3	0	2.485017937223165E+002	2.8188890E-001	-2.7039801E+002
3	0	2.490017937096854E+002	2.8138703E-001	-2.7037677E+002
3	0	2.495017936970544E+002	2.8089437E-001	-2.7039447E+002
3	0	2.500017936844233E+002	2.8041020E-001	-2.7036972E+002
3	0	2.505017936717923E+002	2.7992630E-001	-2.7038742E+002
3	0	2.510017936591612E+002	2.7944207E-001	-2.7038385E+002
3	0	2.515017936465301E+002	2.7895060E-001	-2.7038385E+002
3	0	2.520017936338991E+002	2.7844507E-001	-2.7040155E+002
3	0	2.525017936212680E+002	2.7798980E-001	-2.7039093E+002
3	0	2.530017936086369E+002	2.7752894E-001	-2.7037326E+002
3	0	2.535017935960059E+002	2.7707005E-001	-2.7038742E+002
3	0	2.540017935833748E+002	2.7662289E-001	-2.7038742E+002
3	0	2.545017935707438E+002	2.7617538E-001	-2.7038031E+002
3	0	2.550017935581127E+002	2.7571976E-001	-2.7039447E+002
3	0	2.555017935454816E+002	2.7524346E-001	-2.7039801E+002
3	0	2.560017935328506E+002	2.7478325E-001	-2.7036618E+002
3	0	2.565017935202195E+002	2.7436751E-001	-2.7038385E+002
3	0	2.570017935075884E+002	2.7393696E-001	-2.7037326E+002
3	0	2.575017934949574E+002	2.7351451E-001	-2.7036618E+002
3	0	2.580017934823263E+002	2.7309501E-001	-2.7039801E+002
3	0	2.585017934696953E+002	2.7268112E-001	-2.7036267E+002
3	0	2.590017934570642E+002	2.7226666E-001	-2.7036267E+002
3	0	2.595017934444331E+002	2.7183086E-001	-2.7037677E+002
3	0	2.600017934318021E+002	2.7138844E-001	-2.7036972E+002
3	0	2.605017934191710E+002	2.7099806E-001	-2.7037677E+002
3	0	2.610017934065399E+002	2.7060485E-001	-2.7036972E+002
3	0	2.615017933939089E+002	2.7021110E-001	-2.7039801E+002
3	0	2.620017933812778E+002	2.6982659E-001	-2.7035913E+002
3	0	2.625017933686468E+002	2.6944998E-001	-2.7034851E+002
3	0	2.630017933560157E+002	2.6906601E-001	-2.7039093E+002
3	0	2.635017933433846E+002	2.6866007E-001	-2.7037326E+002
3	0	2.640017933307536E+002	2.6825553E-001	-2.7040506E+002
3	0	2.645017933181225E+002	2.6789609E-001	-2.7036618E+002
3	0	2.650017933054914E+002	2.6753101E-001	-2.7039093E+002
3	0	2.655017932928604E+002	2.6716822E-001	-2.7036618E+002
3	0	2.660017932802293E+002	2.6681158E-001	-2.7034497E+002
3	0	2.665017932675983E+002	2.6644868E-001	-2.7039447E+002
3	0	2.670017932549672E+002	2.6608831E-001	-2.7037326E+002
3	0	2.675017932423361E+002	2.6571611E-001	-2.7038385E+002
3	0	2.680017932297051E+002	2.6534334E-001	-2.7039093E+002
3	0	2.685017932170740E+002	2.6500878E-001	-2.7039447E+002
3	0	2.690017932044429E+002	2.6468572E-001	-2.7037677E+002
3	0	2.695017931918119E+002	2.6436523E-001	-2.7037677E+002
3	0	2.700017931791808E+002	2.6404187E-001	-2.7036618E+002
3	0	2.700021931791707E+002	2.6390895E-001	-2.7038031E+002
3	0	3.155027920297289E+002	1.2761363E+000	-2.7037326E+002
3	0	3.160027920170978E+002	1.2699898E+000	-2.7038385E+002
3	0	3.165027920044668E+002	1.2308586E+000	-2.7039093E+002
3	0	3.170027919918357E+002	1.1496774E+000	-2.7038385E+002
3	0	3.175027919792046E+002	8.7136060E-001	-2.7038742E+002
3	0	3.180027919665736E+002	4.5009348E-001	-2.7035913E+002
3	0	3.185027919539425E+002	3.5210508E-001	-2.7038031E+002
3	0	3.190027919413114E+002	3.3798081E-001	-2.7036972E+002
3	0	3.195027919286804E+002	3.2922071E-001	-2.7037326E+002
3	0	3.200027919160493E+002	3.2239020E-001	-2.7035205E+002
3	0	3.205027919034183E+002	3.1730264E-001	-2.7037677E+002
3	0	3.210027918907872E+002	3.1344742E-001	-2.7038742E+002
3	0	3.215027918781561E+002	3.1043670E-001	-2.7038031E+002
3	0	3.220027918655251E+002	3.0802459E-001	-2.7034851E+002
3	0	3.225027918528940E+002	3.0603236E-001	-2.7036972E+002
3	0	3.230027918402629E+002	3.0433437E-001	-2.7039447E+002
3	0	3.235027918276319E+002	3.0285427E-001	-2.7038742E+002
3	0	3.240027918150008E+002	3.0154726E-001	-2.7036972E+002
3	0	3.245027918023698E+002	3.0041000E-001	-2.7038742E+002
3	0	3.250027917897387E+002	2.9938924E-001	-2.7035913E+002
3	0	3.255027917771076E+002	2.9845095E-001	-2.7038742E+002
3	0	3.260027917644766E+002	2.9757687E-001	-2.7038742E+002
3	0	3.265027917518455E+002	2.9675233E-001	-2.7036267E+002
3	0	3.270027917392144E+002	2.9594988E-001	-2.7039093E+002
3	0	3.275027917265834E+002	2.9516837E-001	-2.7036972E+002
3	0	3.280027917139523E+002	2.9442042E-001	-2.7035913E+002
3	0	3.285027917013213E+002	2.9373467E-001	-2.7038742E+002
3	0	3.290027916886902E+002	2.9308563E-001	-2.7039801E+002
3	0	3.295027916760591E+002	2.9244894E-001	-2.7037677E+002
3	0	3.300027916634281E+002	2.9182604E-001	-2.7035913E+002
3	0	3.305027916507970E+002	2.9121044E-001	-2.7036267E+002
3	0	3.310027916381659E+002	2.9060450E-001	-2.7036618E+002
3	0	3.315027916255349E+002	2.8997922E-001	-2.7035559E+002
3	0	3.320027916129038E+002	2.8936315E-001	-2.7039447E+002
3	0	3.325027916002728E+002	2.8879482E-001	-2.7035913E+002
3	0	3.330027915876417E+002	2.8824148E-001	-2.7038742E+002
3	0	3.335027915750106E+002	2.8768808E-001	-2.7037326E+002
3	0	3.340027915623796E+002	2.8714257E-001	-2.7038742E+002
3	0	3.345027915497485E+002	2.8660548E-001	-2.7038385E+002
3	0	3.350027915371174E+002	2.8605863E-001	-2.7036972E+002
3	0	3.355027915244864E+002	2.8549823E-001	-2.7036267E+002
3	0	3.360027915118553E+002	2.8493679E-001	-2.7037326E+002
3	0	3.365027914992243E+002	2.8441986E-001	-2.7036618E+002
3	0	3.370027914865932E+002	2.8391257E-001	-2.7038385E+002
3	0	3.375027914739621E+002	2.8340441E-001	-2.7038031E+002
3	0	3.380027914613311E+002	2.8289625E-001	-2.7039093E+002
3	0	3.385027914487000E+002	2.8240114E-001	-2.7039093E+002
3	0	3.390027914360689E+002	2.8189608E-001	-2.7038742E+002
3	0	3.395027914234379E+002	2.8136870E-001	-2.7039801E+002
3	0	3.400027914108068E+002	2.8084767E-001	-2.7036267E+002
3	0	3.405027913981758E+002	2.8036749E-001	-2.7037326E+002
3	0	3.410027913855447E+002	2.7989858E-001	-2.7036972E+002
3	0	3.415027913729136E+002	2.7943158E-001	-2.7040155E+002
3	0	3.420027913602826E+002	2.7896491E-001	-2.7039093E+002
3	0	3.425027913476515E+002	2.7850360E-001	-2.7039801E+002
3	0	3.430027913350204E+002	2.7803808E-001	-2.7036618E+002
3	0	3.435027913223894E+002	2.7754638E-001	-2.7037326E+002
3	0	3.440027913097583E+002	2.7705264E-001	-2.7037677E+002
3	0	3.445027912971273E+002	2.7661154E-001	-2.7035913E+002
3	0	3.450027912844962E+002	2.7617306E-001	-2.7038031E+002
3	0	3.455027912718651E+002	2.7573580E-001	-2.7037326E+002
3	0	3.460027912592341E+002	2.7529103E-001	-2.7037326E+002
3	0	3.465027912466030E+002	2.7485898E-001	-2.7038031E+002
3	0	3.470027912339719E+002	2.7442238E-001	-2.7035205E+002
3	0	3.475027912213409E+002	2.7396801E-001	-2.7038031E+002
3	0	3.480027912087098E+002	2.7351159E-001	-2.7042273E+002
3	0	3.485027911960788E+002	2.7309379E-001	-2.7035913E+002
3	0	3.490027911834477E+002	2.7268773E-001	-2.7035559E+002
3	0	3.495027911708166E+002	2.7229384E-001	-2.7037677E+002
3	0	3.500027911581856E+002	2.7189666E-001	-2.7038742E+002
3	0	3.505027911455545E+002	2.7149189E-001	-2.7038385E+002
3	0	3.510027911329234E+002	2.7107579E-001	-2.7034851E+002
3	0	3.515027911202924E+002	2.7065665E-001	-2.7037326E+002
3	0	3.520027911076613E+002	2.7023262E-001	-2.7035913E+002
3	0	3.525027910950303E+002	2.6985389E-001	-2.7036267E+002
3	0	3.530027910823992E+002	2.6948884E-001	-2.7036972E+002
3	0	3.535027910697681E+002	2.6911855E-001	-2.7039093E+002
3	0	3.540027910571371E+002	2.6875111E-001	-2.7036267E+002
3	0	3.545027910445060E+002	2.6838112E-001	-2.7035913E+002
3	0	3.550027910318749E+002	2.6800498E-001	-2.7038742E+002
3	0	3.555027910192439E+002	2.6760671E-001	-2.7036618E+002
3	0	3.560027910066128E+002	2.6721844E-001	-2.7038742E+002
3	0	3.565027909939818E+002	2.6687536E-001	-2.7037677E+002
3	0	3.570027909813507E+002	2.6653358E-001	-2.7038385E+002
3	0	3.575027909687196E+002	2.6619190E-001	-2.7036972E+002
3	0	3.580027909560886E+002	2.6585469E-001	-2.7037677E+002
3	0	3.585027909434575E+002	2.6551703E-001	-2.7035913E+002
3	0	3.590027909308265E+002	2.6516968E-001	-2.7038385E+002
3	0	3.595027909181954E+002	2.6480514E-001	-2.7039447E+002
3	0	3.600027909055643E+002	2.6445299E-001	-2.7039801E+002
3	0	3.600031909055542E+002	2.6426202E-001	-2.7038742E+002
3	0	4.055037897561124E+002	1.2761790E+000	-2.7038031E+002
3	0	4.060037897434813E+002	1.2696147E+000	-2.7038742E+002
3	0	4.065037897308503E+002	1.2297219E+000	-2.7036972E+002
3	0	4.070037897182192E+002	1.1475810E+000	-2.7038742E+002
3	0	4.075037897055881E+002	8.7153190E-001	-2.7039447E+002
3	0	4.080037896929571E+002	4.5105544E-001	-2.7037677E+002
3	0	4.085037896803260E+002	3.5084310E-001	-2.7038742E+002
3	0	4.090037896676949E+002	3.3658797E-001	-2.7036618E+002
3	0	4.095037896550639E+002	3.2792693E-001	-2.7036618E+002
3	0	4.100037896424328E+002	3.2113865E-001	-2.7037677E+002
3	0	4.105037896298018E+002	3.1602868E-001	-2.7037326E+002
3	0	4.110037896171707E+002	3.1214282E-001	-2.7036972E+002
3	0	4.115037896045396E+002	3.0908811E-001	-2.7037326E+002
3	0	4.120037895919086E+002	3.0663246E-001	-2.7037326E+002
3	0	4.125037895792775E+002	3.0463040E-001	-2.7038031E+002
3	0	4.130037895666464E+002	3.0295509E-001	-2.7036618E+002
3	0	4.135037895540154E+002	3.0150658E-001	-2.7038742E+002
3	0	4.140037895413843E+002	3.0023617E-001	-2.7036618E+002
3	0	4.145037895287533E+002	2.9909661E-001	-2.7038031E+002
3	0	4.150037895161222E+002	2.9806146E-001	-2.7036618E+002
3	0	4.155037895034911E+002	2.9707950E-001	-2.7036267E+002
3	0	4.160037894908601E+002	2.9616302E-001	-2.7037326E+002
3	0	4.165037894782290E+002	2.9534259E-001	-2.7039447E+002
3	0	4.170037894655979E+002	2.9457587E-001	-2.7036267E+002
3	0	4.175037894529669E+002	2.9383966E-001	-2.7039447E+002
3	0	4.180037894403358E+002	2.9314357E-001	-2.7036972E+002
3	0	4.185037894277048E+002	2.9246593E-001	-2.7038742E+002
3	0	4.190037894150737E+002	2.9179618E-001	-2.7039447E+002
3	0	4.195037894024426E+002	2.9112792E-001	-2.7036972E+002
3	0	4.200037893898116E+002	2.9046738E-001	-2.7037677E+002
3	0	4.205037893771805E+002	2.8985000E-001	-2.7038385E+002
3	0	4.210037893645494E+002	2.8925812E-001	-2.7038385E+002
3	0	4.215037893519184E+002	2.8868112E-001	-2.7038031E+002
3	0	4.220037893392873E+002	2.8811318E-001	-2.7038385E+002
3	0	4.225037893266563E+002	2.8754613E-001	-2.7039093E+002
3	0	4.230037893140252E+002	2.8697732E-001	-2.7036972E+002
3	0	4.235037893013941E+002	2.8638643E-001	-2.7036618E+002
3	0	4.240037892887631E+002	2.8579915E-001	-2.7036267E+002
3	0	4.245037892761320E+002	2.8525719E-001	-2.7037326E+002
3	0	4.250037892635009E+002	2.8472072E-001	-2.7036972E+002
3	0	4.255037892508699E+002	2.8419811E-001	-2.7038385E+002
3	0	4.260037892382388E+002	2.8366587E-001	-2.7037677E+002
3	0	4.265037892256078E+002	2.8314734E-001	-2.7035913E+002
3	0	4.270037892129767E+002	2.8262138E-001	-2.7037326E+002
3	0	4.275037892003456E+002	2.8208554E-001	-2.7038385E+002
3	0	4.280037891877146E+002	2.8154027E-001	-2.7038385E+002
3	0	4.285037891750835E+002	2.8103754E-001	-2.7038742E+002
3	0	4.290037891624524E+002	2.8054956E-001	-2.7035559E+002
3	0	4.295037891498214E+002	2.8005815E-001	-2.7038031E+002
3	0	4.300037891371903E+002	2.7956930E-001	-2.7036972E+002
3	0	4.305037891245593E+002	2.7909699E-001	-2.7039093E+002
3	0	4.310037891119282E+002	2.7860937E-001	-2.7035205E+002
3	0	4.315037890992971E+002	2.7811277E-001	-2.7039093E+002
3	0	4.320037890866661E+002	2.7761182E-001	-2.7040860E+002
3	0	4.325037890740350E+002	2.7715054E-001	-2.7037677E+002
3	0	4.330037890614040E+002	2.7670398E-001	-2.7038031E+002
3	0	4.335037890487729E+002	2.7625257E-001	-2.7039801E+002
3	0	4.340037890361418E+002	2.7580723E-001	-2.7035205E+002
3	0	4.345037890235108E+002	2.7536023E-001	-2.7036618E+002
3	0	4.350037890108797E+002	2.7490324E-001	-2.7035559E+002
3	0	4.355037889982486E+002	2.7444470E-001	-2.7037677E+002
3	0	4.360037889856176E+002	2.7397832E-001	-2.7038742E+002
3	0	4.365037889729865E+002	2.7355173E-001	-2.7036618E+002
3	0	4.370037889603555E+002	2.7313349E-001	-2.7035559E+002
3	0	4.375037889477244E+002	2.7270895E-001	-2.7038742E+002
3	0	4.380037889350933E+002	2.7230102E-001	-2.7036618E+002
3	0	4.385037889224623E+002	2.7189127E-001	-2.7038385E+002
3	0	4.390037889098312E+002	2.7146927E-001	-2.7037677E+002
3	0	4.395037888972001E+002	2.7102524E-001	-2.7036972E+002
3	0	4.400037888845691E+002	2.7059788E-001	-2.7036972E+002
3	0	4.405037888719380E+002	2.7020177E-001	-2.7038031E+002
3	0	4.410037888593070E+002	2.6981828E-001	-2.7035913E+002
3	0	4.415037888466759E+002	2.6943532E-001	-2.7039093E+002
3	0	4.420037888340448E+002	2.6904812E-001	-2.7036972E+002
3	0	4.425037888214138E+002	2.6866794E-001	-2.7037326E+002
3	0	4.430037888087827E+002	2.6827896E-001	-2.7038385E+002
3	0	4.435037887961516E+002	2.6787546E-001	-2.7035913E+002
3	0	4.440037887835206E+002	2.6747090E-001	-2.7038742E+002
3	0	4.445037887708895E+002	2.6710641E-001	-2.7037326E+002
3	0	4.450037887582585E+002	2.6675236E-001	-2.7039093E+002
3	0	4.455037887456274E+002	2.6639327E-001	-2.7038385E+002
3	0	4.460037887329963E+002	2.6603529E-001	-2.7039093E+002
3	0	4.465037887203653E+002	2.6569057E-001	-2.7038742E+002
3	0	4.470037887077342E+002	2.6532099E-001	-2.7036618E+002
3	0	4.475037886951031E+002	2.6494151E-001	-2.7037326E+002
3	0	4.480037886824721E+002	2.6457599E-001	-2.7038031E+002
3	0	4.485037886698410E+002	2.6423916E-001	-2.7037677E+002
3	0	4.490037886572100E+002	2.6392058E-001	-2.7037677E+002
3	0	4.495037886445789E+002	2.6359940E-001	-2.7037677E+002
3	0	4.500037886319478E+002	2.6327416E-001	-2.7040506E+002
3	0	4.500041886319377E+002	2.6311699E-001	-2.7039447E+002
3	0	4.955047874824959E+002	1.2763838E+000	-2.7039447E+002
3	0	4.960047874698648E+002	1.2705642E+000	-2.7038385E+002
3	0	4.965047874572338E+002	1.2324387E+000	-2.7039093E+002
3	0	4.970047874446027E+002	1.1530706E+000	-2.7038742E+002
3	0	4.975047874319716E+002	8.8073903E-001	-2.7037677E+002
3	0	4.980047874193406E+002	4.5346808E-001	-2.7037677E+002
3	0	4.985047874067095E+002	3.5366341E-001	-2.7035559E+002
3	0	4.990047873940784E+002	3.3932602E-001	-2.7037326E+002
3	0	4.995047873814474E+002	3.3049032E-001	-2.7036972E+002
3	0	5.000047873688163E+002	3.2361448E-001	-2.7037677E+002
3	0	5.005047873561853E+002	3.1847802E-001	-2.7035559E+002
3	0	5.010047873435542E+002	3.1458494E-001	-2.7037677E+002
3	0	5.015047873309231E+002	3.1155530E-001	-2.7038031E+002
3	0	5.020047873182921E+002	3.0912185E-001	-2.7038742E+002
3	0	5.025047873056610E+002	3.0712306E-001	-2.7039093E+002
3	0	5.030047872930299E+002	3.0542526E-001	-2.7038385E+002
3	0	5.035047872803989E+002	3.0395252E-001	-2.7036618E+002
3	0	5.040047872677678E+002	3.0266079E-001	-2.7038742E+002
3	0	5.045047872551368E+002	3.0152500E-001	-2.7036267E+002
3	0	5.050047872425057E+002	3.0050147E-001	-2.7037677E+002
3	0	5.055047872298746E+002	2.9956442E-001	-2.7039093E+002
3	0	5.060047872172436E+002	2.9869330E-001	-2.7038031E+002
3	0	5.065047872046125E+002	2.9787499E-001	-2.7038385E+002
3	0	5.070047871919815E+002	2.9707602E-001	-2.7040155E+002
3	0	5.075047871793504E+002	2.9629982E-001	-2.7038742E+002
3	0	5.080047871667193E+002	2.9555553E-001	-2.7038385E+002
3	0	5.085047871540883E+002	2.9485968E-001	-2.7038385E+002
3	0	5.090047871414572E+002	2.9419893E-001	-2.7038031E+002
3	0	5.095047871288261E+002	2.9356149E-001	-2.7039801E+002
3	0	5.100047871161951E+002	2.9292870E-001	-2.7037326E+002
3	0	5.105047871035640E+002	2.9231185E-001	-2.7039801E+002
3	0	5.110047870909330E+002	2.9169920E-001	-2.7038031E+002
3	0	5.115047870783019E+002	2.9107997E-001	-2.7038031E+002
3	0	5.120047870656708E+002	2.9047152E-001	-2.7036972E+002
3	0	5.125047870530398E+002	2.8990555E-001	-2.7039801E+002
3	0	5.130047870404087E+002	2.8933644E-001	-2.7036618E+002
3	0	5.135047870277776E+002	2.8878197E-001	-2.7038385E+002
3	0	5.140047870151466E+002	2.8823382E-001	-2.7038742E+002
3	0	5.145047870025155E+002	2.8769189E-001	-2.7037677E+002
3	0	5.150047869898845E+002	2.8714076E-001	-2.7039801E+002
3	0	5.155047869772534E+002	2.8658080E-001	-2.7038385E+002
3	0	5.160047869646223E+002	2.8602096E-001	-2.7039093E+002
3	0	5.165047869519913E+002	2.8551024E-001	-2.7037677E+002
3	0	5.170047869393602E+002	2.8499064E-001	-2.7037677E+002
3	0	5.175047869267291E+002	2.8448239E-001	-2.7039447E+002
3	0	5.180047869140981E+002	2.8397873E-001	-2.7038385E+002
3	0	5.185047869014670E+002	2.8346744E-001	-2.7039801E+002
3	0	5.190047868888360E+002	2.8296420E-001	-2.7038385E+002
3	0	5.195047868762049E+002	2.8243327E-001	-2.7039093E+002
3	0	5.200047868635738E+002	2.8191760E-001	-2.7036972E+002
3	0	5.205047868509428E+002	2.8144029E-001	-2.7037677E+002
3	0	5.210047868383117E+002	2.8095880E-001	-2.7039447E+002
3	0	5.215047868256806E+002	2.8048038E-001	-2.7038742E+002
3	0	5.220047868130496E+002	2.8000605E-001	-2.7036972E+002
3	0	5.225047868004185E+002	2.7954033E-001	-2.7036267E+002
3	0	5.230047867877875E+002	2.7907556E-001	-2.7037326E+002
3	0	5.235047867751564E+002	2.7858686E-001	-2.7037677E+002
3	0	5.240047867625253E+002	2.7810535E-001	-2.7038031E+002
3	0	5.245047867498943E+002	2.7765644E-001	-2.7039801E+002
3	0	5.250047867372632E+002	2.7720705E-001	-2.7038385E+002
3	0	5.255047867246321E+002	2.7676445E-001	-2.7036618E+002
3	0	5.260047867120011E+002	2.7631852E-001	-2.7039801E+002
3	0	5.265047866993700E+002	2.7588958E-001	-2.7036972E+002
3	0	5.270047866867390E+002	2.7544349E-001	-2.7038385E+002
3	0	5.275047866741079E+002	2.7498409E-001	-2.7035559E+002
3	0	5.280047866614768E+002	2.7453649E-001	-2.7036972E+002
3	0	5.285047866488458E+002	2.7412799E-001	-2.7037326E+002
3	0	5.290047866362147E+002	2.7371156E-001	-2.7041568E+002
3	0	5.295047866235836E+002	2.7330464E-001	-2.7037326E+002
3	0	5.300047866109526E+002	2.7289596E-001	-2.7035559E+002
3	0	5.305047865983215E+002	2.7249804E-001	-2.7038031E+002
3	0	5.310047865856905E+002	2.7209589E-001	-2.7038031E+002
3	0	5.315047865730594E+002	2.7167252E-001	-2.7035559E+002
3	0	5.320047865604283E+002	2.7124780E-001	-2.7036618E+002
3	0	5.325047865477973E+002	2.7087376E-001	-2.7035913E+002
3	0	5.330047865351662E+002	2.7049440E-001	-2.7036267E+002
3	0	5.335047865225351E+002	2.7010623E-001	-2.7038742E+002
3	0	5.340047865099041E+002	2.6973400E-001	-2.7036267E+002
3	0	5.345047864972730E+002	2.6937234E-001	-2.7038385E+002
3	0	5.350047864846420E+002	2.6900271E-001	-2.7038031E+002
3	0	5.355047864720109E+002	2.6860213E-001	-2.7037326E+002
3	0	5.360047864593798E+002	2.6821974E-001	-2.7037677E+002
3	0	5.365047864467488E+002	2.6787436E-001	-2.7039093E+002
3	0	5.370047864341177E+002	2.6751938E-001	-2.7037677E+002
3	0	5.375047864214866E+002	2.6717147E-001	-2.7036618E+002
3	0	5.380047864088556E+002	2.6682591E-001	-2.7039447E+002
3	0	5.385047863962245E+002	2.6648402E-001	-2.7038031E+002
3	0	5.390047863835935E+002	2.6613533E-001	-2.7035913E+002
3	0	5.395047863709624E+002	2.6577431E-001	-2.7038742E+002
3	0	5.400047863583313E+002	2.6541826E-001	-2.7036972E+002
3	0	5.400051863583212E+002	2.6523528E-001	-2.7038031E+002
3	0	5.855057852088794E+002	1.2764946E+000	-2.7039447E+002
3	0	5.860057851962483E+002	1.2703284E+000	-2.7035559E+002
3	0	5.865057851836173E+002	1.2320943E+000	-2.7038031E+002
3	0	5.870057851709862E+002	1.1531386E+000	-2.7038742E+002
3	0	5.875057851583551E+002	8.9248031E-001	-2.7041214E+002
3	0	5.880057851457241E+002	4.5931941E-001	-2.7034497E+002
3	0	5.885057851330930E+002	3.5226467E-001	-2.7037677E+002
3	0	5.890057851204620E+002	3.3737886E-001	-2.7037326E+002
3	0	5.895057851078309E+002	3.2862499E-001	-2.7035913E+002
3	0	5.900057850951998E+002	3.2177019E-001	-2.7038031E+002
3	0	5.905057850825688E+002	3.1661007E-001	-2.7036972E+002
3	0	5.910057850699377E+002	3.1269541E-001	-2.7038031E+002
3	0	5.915057850573066E+002	3.0963153E-001	-2.7039093E+002
3	0	5.920057850446756E+002	3.0717239E-001	-2.7036267E+002
3	0	5.925057850320445E+002	3.0517614E-001	-2.7037677E+002
3	0	5.930057850194135E+002	3.0348691E-001	-2.7037677E+002
3	0	5.935057850067824E+002	3.0203769E-001	-2.7037677E+002
3	0	5.940057849941513E+002	3.0076870E-001	-2.7036618E+002
3	0	5.945057849815203E+002	2.9963517E-001	-2.7042273E+002
3	0	5.950057849688892E+002	2.9860193E-001	-2.7038742E+002
3	0	5.955057849562581E+002	2.9762733E-001	-2.7036972E+002
3	0	5.960057849436271E+002	2.9672182E-001	-2.7036972E+002
3	0	5.965057849309960E+002	2.9589522E-001	-2.7034497E+002
3	0	5.970057849183650E+002	2.9511386E-001	-2.7040506E+002
3	0	5.975057849057339E+002	2.9437223E-001	-2.7039447E+002
3	0	5.980057848931028E+002	2.9367626E-001	-2.7037326E+002
3	0	5.985057848804718E+002	2.9299912E-001	-2.7038031E+002
3	0	5.990057848678407E+002	2.9232499E-001	-2.7036972E+002
3	0	5.995057848552096E+002	2.9165527E-001	-2.7035913E+002
3	0	6.000057848425786E+002	2.9099891E-001	-2.7038385E+002
3	0	6.005057848299475E+002	2.9039162E-001	-2.7036618E+002
3	0	6.010057848173165E+002	2.8978792E-001	-2.7038385E+002
3	0	6.015057848046854E+002	2.8920162E-001	-2.7036618E+002
3	0	6.020057847920543E+002	2.8863114E-001	-2.7038031E+002
3	0	6.025057847794233E+002	2.8806841E-001	-2.7038031E+002
3	0	6.030057847667922E+002	2.8749439E-001	-2.7037326E+002
3	0	6.035057847541611E+002	2.8691089E-001	-2.7038385E+002
3	0	6.040057847415301E+002	2.8633097E-001	-2.7036618E+002
3	0	6.045057847288990E+002	2.8579995E-001	-2.7038031E+002
3	0	6.050057847162680E+002	2.8526306E-001	-2.7038385E+002
3	0	6.055057847036369E+002	2.8473595E-001	-2.7036618E+002
3	0	6.060057846910058E+002	2.8421539E-001	-2.7037326E+002
3	0	6.065057846783748E+002	2.8368837E-001	-2.7038031E+002
3	0	6.070057846657437E+002	2.8316352E-001	-2.7038742E+002
3	0	6.075057846531126E+002	2.8261697E-001	-2.7038742E+002
3	0	6.080057846404816E+002	2.8207818E-001	-2.7036618E+002
3	0	6.085057846278505E+002	2.8157622E-001	-2.7038385E+002
3	0	6.090057846152195E+002	2.8107432E-001	-2.7036972E+002
3	0	6.095057846025884E+002	2.8058341E-001	-2.7038031E+002
3	0	6.100057845899573E+002	2.8009239E-001	-2.7038742E+002
3	0	6.105057845773263E+002	2.7960736E-001	-2.7036267E+002
3	0	6.110057845646952E+002	2.7911583E-001	-2.7036972E+002
3	0	6.115057845520641E+002	2.7861509E-001	-2.7036267E+002
3	0	6.120057845394331E+002	2.7811652E-001	-2.7037677E+002
3	0	6.125057845268020E+002	2.7765137E-001	-2.7039447E+002
3	0	6.130057845141710E+002	2.7718776E-001	-2.7037326E+002
3	0	6.135057845015399E+002	2.7672952E-001	-2.7038031E+002
3	0	6.140057844889088E+002	2.7627030E-001	-2.7037677E+002
3	0	6.145057844762778E+002	2.7579832E-001	-2.7036972E+002
3	0	6.150057844636467E+002	2.7534047E-001	-2.7039093E+002
3	0	6.155057844510156E+002	2.7489445E-001	-2.7036972E+002
3	0	6.160057844383846E+002	2.7445498E-001	-2.7040506E+002
3	0	6.165057844257535E+002	2.7403808E-001	-2.7039447E+002
3	0	6.170057844131225E+002	2.7362528E-001	-2.7037677E+002
3	0	6.175057844004914E+002	2.7320459E-001	-2.7037677E+002
3	0	6.180057843878603E+002	2.7278566E-001	-2.7037677E+002
3	0	6.185057843752293E+002	2.7237087E-001	-2.7037677E+002
3	0	6.190057843625982E+002	2.7194923E-001	-2.7036972E+002
3	0	6.195057843499671E+002	2.7150121E-001	-2.7037326E+002
3	0	6.200057843373361E+002	2.7106163E-001	-2.7035559E+002
3	0	6.205057843247050E+002	2.7067327E-001	-2.7035205E+002
3	0	6.210057843120740E+002	2.7028212E-001	-2.7036618E+002
3	0	6.215057842994429E+002	2.6988956E-001	-2.7036267E+002
3	0	6.220057842868118E+002	2.6950252E-001	-2.7039093E+002
3	0	6.225057842741808E+002	2.6911697E-001	-2.7042627E+002
3	0	6.230057842615497E+002	2.6871762E-001	-2.7037677E+002
3	0	6.235057842489186E+002	2.6830947E-001	-2.7038385E+002
3	0	6.240057842362876E+002	2.6790822E-001	-2.7036618E+002
3	0	6.245057842236565E+002	2.6754168E-001	-2.7038385E+002
3	0	6.250057842110255E+002	2.6719162E-001	-2.7035913E+002
3	0	6.255057841983944E+002	2.6683214E-001	-2.7036618E+002
3	0	6.260057841857633E+002	2.6647228E-001	-2.7038385E+002
3	0	6.265057841731323E+002	2.6611170E-001	-2.7038742E+002
3	0	6.270057841605012E+002	2.6574463E-001	-2.7036972E+002
3	0	6.275057841478701E+002	2.6536161E-001	-2.7038742E+002
3	0	6.280057841352391E+002	2.6497900E-001	-2.7037326E+002
3	0	6.285057841226080E+002	2.6465112E-001	-2.7038742E+002
3	0	6.290057841099770E+002	2.6432270E-001	-2.7038742E+002
3	0	6.295057840973459E+002	2.6399168E-001	-2.7038031E+002
3	0	6.300057840847148E+002	2.6366317E-001	-2.7036618E+002
3	0	6.300061840847047E+002	2.6353684E-001	-2.7038742E+002
3	0	6.755067829352629E+002	1.2763246E+000	-2.7039447E+002
3	0	6.760067829226318E+002	1.2701932E+000	-2.7039447E+002
3	0	6.765067829100008E+002	1.2316804E+000	-2.7036618E+002
3	0	6.770067828973697E+002	1.1517272E+000	-2.7039093E+002
3	0	6.775067828847386E+002	8.8292307E-001	-2.7037677E+002
3	0	6.780067828721076E+002	4.5603049E-001	-2.7038031E+002
3	0	6.785067828594765E+002	3.5198352E-001	-2.7037677E+002
3	0	6.790067828468455E+002	3.3733746E-001	-2.7038385E+002
3	0	6.795067828342144E+002	3.2867169E-001	-2.7036618E+002
3	0	6.800067828215833E+002	3.2184643E-001	-2.7037326E+002
3	0	6.805067828089523E+002	3.1671709E-001	-2.7037677E+002
3	0	6.810067827963212E+002	3.1282568E-001	-2.7036618E+002
3	0	6.815067827836901E+002	3.0979055E-001	-2.7038385E+002
3	0	6.820067827710591E+002	3.0736062E-001	-2.7038742E+002
3	0	6.825067827584280E+002	3.0535090E-001	-2.7040155E+002
3	0	6.830067827457970E+002	3.0364856E-001	-2.7039801E+002
3	0	6.835067827331659E+002	3.0215806E-001	-2.7036618E+002
3	0	6.840067827205348E+002	3.0084339E-001	-2.7036267E+002
3	0	6.845067827079038E+002	2.9970443E-001	-2.7036972E+002
3	0	6.850067826952727E+002	2.9868338E-001	-2.7039801E+002
3	0	6.855067826826416E+002	2.9775125E-001	-2.7035559E+002
3	0	6.860067826700106E+002	2.9687655E-001	-2.7035559E+002
3	0	6.865067826573795E+002	2.9604906E-001	-2.7037326E+002
3	0	6.870067826447485E+002	2.9525778E-001	-2.7038742E+002
3	0	6.875067826321174E+002	2.9448503E-001	-2.7038031E+002
3	0	6.880067826194863E+002	2.9373500E-001	-2.7036972E+002
3	0	6.885067826068553E+002	2.9305601E-001	-2.7035559E+002
3	0	6.890067825942242E+002	2.9239151E-001	-2.7035559E+002
3	0	6.895067825815931E+002	2.9175392E-001	-2.7038031E+002
3	0	6.900067825689621E+002	2.9112458E-001	-2.7036618E+002
3	0	6.905067825563310E+002	2.9051378E-001	-2.7038742E+002
3	0	6.910067825437000E+002	2.8989959E-001	-2.7034497E+002
3	0	6.915067825310689E+002	2.8927588E-001	-2.7039801E+002
3	0	6.920067825184378E+002	2.8866318E-001	-2.7037677E+002
3	0	6.925067825058068E+002	2.8809386E-001	-2.7037677E+002
3	0	6.930067824931757E+002	2.8753403E-001	-2.7040155E+002
3	0	6.935067824805446E+002	2.8698340E-001	-2.7035913E+002
3	0	6.940067824679136E+002	2.8643277E-001	-2.7036267E+002
3	0	6.945067824552825E+002	2.8589565E-001	-2.7035205E+002
3	0	6.950067824426515E+002	2.8534439E-001	-2.7036618E+002
3	0	6.955067824300204E+002	2.8478473E-001	-2.7039093E+002
3	0	6.960067824173893E+002	2.8422338E-001	-2.7039093E+002
3	0	6.965067824047583E+002	2.8369969E-001	-2.7041568E+002
3	0	6.970067823921272E+002	2.8318667E-001	-2.7037677E+002
3	0	6.975067823794961E+002	2.8268507E-001	-2.7036618E+002
3	0	6.980067823668651E+002	2.8218767E-001	-2.7036618E+002
3	0	6.985067823542340E+002	2.8168553E-001	-2.7036618E+002
3	0	6.990067823416030E+002	2.8117186E-001	-2.7036972E+002
3	0	6.995067823289719E+002	2.8064802E-001	-2.7036618E+002
3	0	7.000067823163408E+002	2.8012690E-001	-2.7038031E+002
3	0	7.005067823037098E+002	2.7964848E-001	-2.7037326E+002
3	0	7.010067822910787E+002	2.7918032E-001	-2.7036972E+002
3	0	7.015067822784476E+002	2.7870509E-001	-2.7037677E+002
3	0	7.020067822658166E+002	2.7823365E-001	-2.7037326E+002
3	0	7.025067822531855E+002	2.7776408E-001	-2.7038031E+002
3	0	7.030067822405545E+002	2.7729258E-001	-2.7039801E+002
3	0	7.035067822279234E+002	2.7680314E-001	-2.7035205E+002
3	0	7.040067822152923E+002	2.7631417E-001	-2.7035559E+002
3	0	7.045067822026613E+002	2.7586630E-001	-2.7039447E+002
3	0	7.050067821900302E+002	2.7543071E-001	-2.7036267E+002
3	0	7.055067821773991E+002	2.7498847E-001	-2.7036267E+002
3	0	7.060067821647681E+002	2.7455986E-001	-2.7036972E+002
3	0	7.065067821521370E+002	2.7413058E-001	-2.7035913E+002
3	0	7.070067821395060E+002	2.7368501E-001	-2.7036267E+002
3	0	7.075067821268749E+002	2.7322719E-001	-2.7040155E+002
3	0	7.080067821142438E+002	2.7276674E-001	-2.7038742E+002
3	0	7.085067821016128E+002	2.7235758E-001	-2.7038385E+002
3	0	7.090067820889817E+002	2.7195936E-001	-2.7037677E+002
3	0	7.095067820763506E+002	2.7155063E-001	-2.7040506E+002
3	0	7.100067820637196E+002	2.7114818E-001	-2.7037677E+002
3	0	7.105067820510885E+002	2.7074820E-001	-2.7039447E+002
3	0	7.110067820384575E+002	2.7033594E-001	-2.7038031E+002
3	0	7.115067820258264E+002	2.6990694E-001	-2.7038742E+002
3	0	7.120067820131953E+002	2.6949778E-001	-2.7039447E+002
3	0	7.125067820005643E+002	2.6912463E-001	-2.7036618E+002
3	0	7.130067819879332E+002	2.6874822E-001	-2.7036972E+002
3	0	7.135067819753021E+002	2.6837397E-001	-2.7036972E+002
3	0	7.140067819626711E+002	2.6800847E-001	-2.7038385E+002
3	0	7.145067819500400E+002	2.6764077E-001	-2.7035559E+002
3	0	7.150067819374090E+002	2.6726326E-001	-2.7038742E+002
3	0	7.155067819247779E+002	2.6686653E-001	-2.7036618E+002
3	0	7.160067819121468E+002	2.6647553E-001	-2.7038742E+002
3	0	7.165067818995158E+002	2.6612800E-001	-2.7035913E+002
3	0	7.170067818868847E+002	2.6578996E-001	-2.7038385E+002
3	0	7.175067818742536E+002	2.6544508E-001	-2.7038031E+002
3	0	7.180067818616226E+002	2.6509807E-001	-2.7036618E+002
3	0	7.185067818489915E+002	2.6475653E-001	-2.7039093E+002
3	0	7.190067818363605E+002	2.6441532E-001	-2.7037677E+002
3	0	7.195067818237294E+002	2.6404756E-001	-2.7038742E+002
3	0	7.200067818110983E+002	2.6368701E-001	-2.7036972E+002
3	0	7.200071818110882E+002	2.6350820E-001	-2.7038742E+002
3	0	7.655077806616464E+002	1.2763693E+000	-2.7037326E+002
3	0	7.660077806490153E+002	1.2698162E+000	-2.7037326E+002
3	0	7.665077806363843E+002	1.2309622E+000	-2.7038742E+002
3	0	7.670077806237532E+002	1.1512779E+000	-2.7037326E+002
3	0	7.675077806111221E+002	8.9352328E-001	-2.7034143E+002
3	0	7.680077805984911E+002	4.6148694E-001	-2.7038742E+002
3	0	7.685077805858600E+002	3.5059673E-001	-2.7038031E+002
3	0	7.690077805732290E+002	3.3538249E-001	-2.7038385E+002
3	0	7.695077805605979E+002	3.2672715E-001	-2.7036972E+002
3	0	7.700077805479668E+002	3.1987992E-001	-2.7038031E+002
3	0	7.705077805353358E+002	3.1471917E-001	-2.7036972E+002
3	0	7.710077805227047E+002	3.1079260E-001	-2.7037677E+002
3	0	7.715077805100736E+002	3.0771270E-001	-2.7040506E+002
3	0	7.720077804974426E+002	3.0523744E-001	-2.7037326E+002
3	0	7.725077804848115E+002	3.0323285E-001	-2.7038742E+002
3	0	7.730077804721805E+002	3.0154550E-001	-2.7038742E+002
3	0	7.735077804595494E+002	3.0008960E-001	-2.7038385E+002
3	0	7.740077804469183E+002	2.9882044E-001	-2.7039093E+002
3	0	7.745077804342873E+002	2.9768634E-001	-2.7037677E+002
3	0	7.750077804216562E+002	2.9664791E-001	-2.7036267E+002
3	0	7.755077804090251E+002	2.9567003E-001	-2.7038031E+002
3	0	7.760077803963941E+002	2.9475963E-001	-2.7036618E+002
3	0	7.765077803837630E+002	2.9394338E-001	-2.7039801E+002
3	0	7.770077803711320E+002	2.9317987E-001	-2.7038385E+002
3	0	7.775077803585009E+002	2.9244307E-001	-2.7038385E+002
3	0	7.780077803458698E+002	2.9173666E-001	-2.7036618E+002
3	0	7.785077803332388E+002	2.9104713E-001	-2.7038031E+002
3	0	7.790077803206077E+002	2.9037458E-001	-2.7036618E+002
3	0	7.795077803079766E+002	2.8970286E-001	-2.7038031E+002
3	0	7.800077802953456E+002	2.8904688E-001	-2.7038742E+002
3	0	7.805077802827145E+002	2.8844035E-001	-2.7036618E+002
3	0	7.810077802700835E+002	2.8785026E-001	-2.7038031E+002
3	0	7.815077802574524E+002	2.8726774E-001	-2.7038742E+002
3	0	7.820077802448213E+002	2.8669116E-001	-2.7036618E+002
3	0	7.825077802321903E+002	2.8611657E-001	-2.7036618E+002
3	0	7.830077802195592E+002	2.8554496E-001	-2.7036618E+002
3	0	7.835077802069281E+002	2.8495529E-001	-2.7038742E+002
3	0	7.840077801942971E+002	2.8437933E-001	-2.7039801E+002
3	0	7.845077801816660E+002	2.8383562E-001	-2.7040155E+002
3	0	7.850077801690350E+002	2.8330597E-001	-2.7038031E+002
3	0	7.855077801564039E+002	2.8277919E-001	-2.7039093E+002
3	0	7.860077801437728E+002	2.8226382E-001	-2.7036972E+002
3	0	7.865077801311418E+002	2.8173980E-001	-2.7039801E+002
3	0	7.870077801185107E+002	2.8121388E-001	-2.7038031E+002
3	0	7.875077801058796E+002	2.8067046E-001	-2.7036972E+002
3	0	7.880077800932486E+002	2.8013182E-001	-2.7040155E+002
3	0	7.885077800806175E+002	2.7963510E-001	-2.7038385E+002
3	0	7.890077800679865E+002	2.7914846E-001	-2.7038385E+002
3	0	7.895077800553554E+002	2.7866203E-001	-2.7040155E+002
3	0	7.900077800427243E+002	2.7817824E-001	-2.7037326E+002
3	0	7.905077800300933E+002	2.7769667E-001	-2.7038385E+002
3	0	7.910077800174622E+002	2.7720726E-001	-2.7036972E+002
3	0	7.915077800048311E+002	2.7670017E-001	-2.7035205E+002
3	0	7.920077799922001E+002	2.7620271E-001	-2.7037326E+002
3	0	7.925077799795690E+002	2.7574304E-001	-2.7036267E+002
3	0	7.930077799669380E+002	2.7528894E-001	-2.7038742E+002
3	0	7.935077799543069E+002	2.7483201E-001	-2.7035913E+002
3	0	7.940077799416758E+002	2.7439600E-001	-2.7037326E+002
3	0	7.945077799290448E+002	2.7394763E-001	-2.7038385E+002
3	0	7.950077799164137E+002	2.7349147E-001	-2.7038031E+002
3	0	7.955077799037826E+002	2.7301371E-001	-2.7036618E+002
3	0	7.960077798911516E+002	2.7254820E-001	-2.7035913E+002
3	0	7.965077798785205E+002	2.7212709E-001	-2.7036267E+002
3	0	7.970077798658895E+002	2.7170977E-001	-2.7038031E+002
3	0	7.975077798532584E+002	2.7127951E-001	-2.7036618E+002
3	0	7.980077798406273E+002	2.7086133E-001	-2.7037326E+002
3	0	7.985077798279963E+002	2.7044576E-001	-2.7036618E+002
3	0	7.990077798153652E+002	2.7002662E-001	-2.7037677E+002
3	0	7.995077798027341E+002	2.6959205E-001	-2.7036972E+002
3	0	8.000077797901031E+002	2.6916093E-001	-2.7035913E+002
3	0	8.005077797774720E+002	2.6876649E-001	-2.7038385E+002
3	0	8.010077797648410E+002	2.6838142E-001	-2.7039447E+002
3	0	8.015077797522099E+002	2.6799598E-001	-2.7038385E+002
3	0	8.020077797395788E+002	2.6761404E-001	-2.7037677E+002
3	0	8.025077797269478E+002	2.6723096E-001	-2.7038385E+002
3	0	8.030077797143167E+002	2.6683655E-001	-2.7036972E+002
3	0	8.035077797016856E+002	2.6642722E-001	-2.7038742E+002
3	0	8.040077796890546E+002	2.6602376E-001	-2.7039093E+002
3	0	8.045077796764235E+002	2.6566422E-001	-2.7036267E+002
3	0	8.050077796637925E+002	2.6531115E-001	-2.7039093E+002
3	0	8.055077796511614E+002	2.6495042E-001	-2.7037677E+002
3	0	8.060077796385303E+002	2.6460233E-001	-2.7036972E+002
3	0	8.065077796258993E+002	2.6425222E-001	-2.7037326E+002
3	0	8.070077796132682E+002	2.6389256E-001	-2.7038031E+002
3	0	8.075077796006372E+002	2.6351309E-001	-2.7038385E+002
3	0	8.080077795880061E+002	2.6314530E-001	-2.7035913E+002
3	0	8.085077795753750E+002	2.6281351E-001	-2.7038031E+002
3	0	8.090077795627440E+002	2.6248148E-001	-2.7040155E+002
3	0	8.095077795501129E+002	2.6215130E-001	-2.7038031E+002
3	0	8.100077795374818E+002	2.6182327E-001	-2.7036972E+002
3	0	8.100081795374717E+002	2.6162845E-001	-2.7037326E+002
3	0	8.555087783880299E+002	1.2763106E+000	-2.7038031E+002
3	0	8.560087783753988E+002	1.2701836E+000	-2.7039093E+002
3	0	8.565087783627678E+002	1.2319769E+000	-2.7039093E+002
3	0	8.570087783501367E+002	1.1530823E+000	-2.7035559E+002
3	0	8.575087783375056E+002	8.9265037E-001	-2.7039801E+002
3	0	8.580087783248746E+002	4.6059772E-001	-2.7036972E+002
3	0	8.585087783122435E+002	3.5194635E-001	-2.7034143E+002
3	0	8.590087782996125E+002	3.3688274E-001	-2.7041214E+002
3	0	8.595087782869814E+002	3.2817718E-001	-2.7040506E+002
3	0	8.600087782743503E+002	3.2130805E-001	-2.7036972E+002
3	0	8.605087782617193E+002	3.1614625E-001	-2.7038385E+002
3	0	8.610087782490882E+002	3.1223217E-001	-2.7037326E+002
3	0	8.615087782364571E+002	3.0917859E-001	-2.7040506E+002
3	0	8.620087782238261E+002	3.0673003E-001	-2.7037326E+002
3	0	8.625087782111950E+002	3.0471215E-001	-2.7035559E+002
3	0	8.630087781985640E+002	3.0300060E-001	-2.7039093E+002
3	0	8.635087781859329E+002	3.0150834E-001	-2.7038385E+002
3	0	8.640087781733018E+002	3.0019191E-001	-2.7039447E+002
3	0	8.645087781606708E+002	2.9904804E-001	-2.7037677E+002
3	0	8.650087781480397E+002	2.9803023E-001	-2.7037677E+002
3	0	8.655087781354086E+002	2.9709128E-001	-2.7036618E+002
3	0	8.660087781227776E+002	2.9621634E-001	-2.7037677E+002
3	0	8.665087781101465E+002	2.9539600E-001	-2.7038031E+002
3	0	8.670087780975155E+002	2.9460454E-001	-2.7039093E+002
3	0	8.675087780848844E+002	2.9382846E-001	-2.7036972E+002
3	0	8.680087780722533E+002	2.9309162E-001	-2.7039093E+002
3	0	8.685087780596223E+002	2.9240510E-001	-2.7036267E+002
3	0	8.690087780469912E+002	2.9174748E-001	-2.7036972E+002
3	0	8.695087780343601E+002	2.9110134E-001	-2.7035913E+002
3	0	8.700087780217291E+002	2.9047745E-001	-2.7038742E+002
3	0	8.705087780090980E+002	2.8986356E-001	-2.7038385E+002
3	0	8.710087779964670E+002	2.8924927E-001	-2.7036618E+002
3	0	8.715087779838359E+002	2.8862441E-001	-2.7040155E+002
3	0	8.720087779712048E+002	2.8801182E-001	-2.7035559E+002
3	0	8.725087779585738E+002	2.8743583E-001	-2.7037677E+002
3	0	8.730087779459427E+002	2.8687689E-001	-2.7042273E+002
3	0	8.735087779333116E+002	2.8631777E-001	-2.7036267E+002
3	0	8.740087779206806E+002	2.8577340E-001	-2.7036972E+002
3	0	8.745087779080495E+002	2.8523168E-001	-2.7038385E+002
3	0	8.750087778954185E+002	2.8468451E-001	-2.7039093E+002
3	0	8.755087778827874E+002	2.8412318E-001	-2.7037677E+002
3	0	8.760087778701563E+002	2.8356084E-001	-2.7039093E+002
3	0	8.765087778575253E+002	2.8304040E-001	-2.7035559E+002
3	0	8.770087778448942E+002	2.8253475E-001	-2.7038385E+002
3	0	8.775087778322631E+002	2.8203368E-001	-2.7037326E+002
3	0	8.780087778196321E+002	2.8152785E-001	-2.7037677E+002
3	0	8.785087778070010E+002	2.8102329E-001	-2.7039093E+002
3	0	8.790087777943700E+002	2.8051931E-001	-2.7037677E+002
3	0	8.795087777817389E+002	2.7999273E-001	-2.7036618E+002
3	0	8.800087777691078E+002	2.7947700E-001	-2.7038031E+002
3	0	8.805087777564768E+002	2.7899545E-001	-2.7036267E+002
3	0	8.810087777438457E+002	2.7852535E-001	-2.7039447E+002
3	0	8.815087777312147E+002	2.7805322E-001	-2.7035559E+002
3	0	8.820087777185836E+002	2.7758163E-001	-2.7038742E+002
3	0	8.825087777059525E+002	2.7711505E-001	-2.7039801E+002
3	0	8.830087776933215E+002	2.7664977E-001	-2.7038385E+002
3	0	8.835087776806904E+002	2.7615482E-001	-2.7036267E+002
3	0	8.840087776680593E+002	2.7566797E-001	-2.7038385E+002
3	0	8.845087776554283E+002	2.7522096E-001	-2.7039447E+002
3	0	8.850087776427972E+002	2.7478477E-001	-2.7037677E+002
3	0	8.855087776301662E+002	2.7435380E-001	-2.7039447E+002
3	0	8.860087776175351E+002	2.7391547E-001	-2.7038742E+002
3	0	8.865087776049040E+002	2.7348408E-001	-2.7038742E+002
3	0	8.870087775922730E+002	2.7304897E-001	-2.7038031E+002
3	0	8.875087775796419E+002	2.7258742E-001	-2.7039447E+002
3	0	8.880087775670108E+002	2.7214333E-001	-2.7038742E+002
3	0	8.885087775543798E+002	2.7172923E-001	-2.7038385E+002
3	0	8.890087775417487E+002	2.7131292E-001	-2.7037326E+002
3	0	8.895087775291177E+002	2.7090976E-001	-2.7036267E+002
3	0	8.900087775164866E+002	2.7050659E-001	-2.7038031E+002
3	0	8.905087775038555E+002	2.7010036E-001	-2.7036972E+002
3	0	8.910087774912245E+002	2.6969832E-001	-2.7035913E+002
3	0	8.915087774785934E+002	2.6927438E-001	-2.7038385E+002
3	0	8.920087774659623E+002	2.6885441E-001	-2.7037326E+002
3	0	8.925087774533313E+002	2.6847363E-001	-2.7037326E+002
3	0	8.930087774407002E+002	2.6810074E-001	-2.7037326E+002
3	0	8.935087774280692E+002	2.6772878E-001	-2.7037326E+002
3	0	8.940087774154381E+002	2.6735592E-001	-2.7035913E+002
3	0	8.945087774028070E+002	2.6699024E-001	-2.7037326E+002
3	0	8.950087773901760E+002	2.6661199E-001	-2.7036267E+002
3	0	8.955087773775449E+002	2.6621053E-001	-2.7035559E+002
3	0	8.960087773649138E+002	2.6583037E-001	-2.7037677E+002
3	0	8.965087773522828E+002	2.6547945E-001	-2.7036972E+002
3	0	8.970087773396517E+002	2.6513508E-001	-2.7036618E+002
3	0	8.975087773270207E+002	2.6479474E-001	-2.7037326E+002
3	0	8.980087773143896E+002	2.6446286E-001	-2.7036618E+002
3	0	8.985087773017585E+002	2.6412120E-001	-2.7039801E+002
3	0	8.990087772891275E+002	2.6377782E-001	-2.7036972E+002
3	0	8.995087772764964E+002	2.6341569E-001	-2.7035913E+002
3	0	9.000087772638653E+002	2.6305485E-001	-2.7038385E+002
3	0	9.000091772638552E+002	2.6292616E-001	-2.7038385E+002
3	0	9.455097761144134E+002	1.2766650E+000	-2.7040506E+002
3	0	9.460097761017823E+002	1.2706534E+000	-2.7036267E+002
3	0	9.465097760891513E+002	1.2326839E+000	-2.7037326E+002
3	0	9.470097760765202E+002	1.1540704E+000	-2.7038742E+002
3	0	9.475097760638891E+002	8.9215738E-001	-2.7036618E+002
3	0	9.480097760512581E+002	4.5913127E-001	-2.7039093E+002
3	0	9.485097760386270E+002	3.5309058E-001	-2.7036972E+002
3	0	9.490097760259960E+002	3.3825886E-001	-2.7035559E+002
3	0	9.495097760133649E+002	3.2948107E-001	-2.7037326E+002
3	0	9.500097760007338E+002	3.2261017E-001	-2.7037677E+002
3	0	9.505097759881028E+002	3.1745148E-001	-2.7036618E+002
3	0	9.510097759754717E+002	3.1352848E-001	-2.7035205E+002
3	0	9.515097759628406E+002	3.1046534E-001	-2.7039093E+002
3	0	9.520097759502096E+002	3.0800810E-001	-2.7038385E+002
3	0	9.525097759375785E+002	3.0600268E-001	-2.7039093E+002
3	0	9.530097759249475E+002	3.0430967E-001	-2.7037677E+002
3	0	9.535097759123164E+002	3.0285928E-001	-2.7035913E+002
3	0	9.540097758996853E+002	3.0157545E-001	-2.7038385E+002
3	0	9.545097758870543E+002	3.0043039E-001	-2.7036618E+002
3	0	9.550097758744232E+002	2.9938427E-001	-2.7037677E+002
3	0	9.555097758617922E+002	2.9841328E-001	-2.7037677E+002
3	0	9.560097758491611E+002	2.9749730E-001	-2.7036267E+002
3	0	9.565097758365300E+002	2.9667461E-001	-2.7037326E+002
3	0	9.570097758238990E+002	2.9588911E-001	-2.7039093E+002
3	0	9.575097758112679E+002	2.9514712E-001	-2.7037677E+002
3	0	9.580097757986368E+002	2.9443851E-001	-2.7036972E+002
3	0	9.585097757860058E+002	2.9374808E-001	-2.7038742E+002
3	0	9.590097757733747E+002	2.9307678E-001	-2.7039447E+002
3	0	9.595097757607437E+002	2.9239747E-001	-2.7036618E+002
3	0	9.600097757481126E+002	2.9174203E-001	-2.7036267E+002
3	0	9.605097757354815E+002	2.9112551E-001	-2.7039093E+002
3	0	9.610097757228505E+002	2.9051998E-001	-2.7039447E+002
3	0	9.615097757102194E+002	2.8992569E-001	-2.7038385E+002
3	0	9.620097756975883E+002	2.8934270E-001	-2.7035559E+002
3	0	9.625097756849573E+002	2.8875387E-001	-2.7039447E+002
3	0	9.630097756723262E+002	2.8816497E-001	-2.7037326E+002
3	0	9.635097756596952E+002	2.8758577E-001	-2.7037677E+002
3	0	9.640097756470641E+002	2.8702307E-001	-2.7039447E+002
3	0	9.645097756344330E+002	2.8649977E-001	-2.7039093E+002
3	0	9.650097756218020E+002	2.8597286E-001	-2.7039801E+002
3	0	9.655097756091709E+002	2.8544742E-001	-2.7039447E+002
3	0	9.660097755965398E+002	2.8492379E-001	-2.7033438E+002
3	0	9.665097755839088E+002	2.8440404E-001	-2.7039093E+002
3	0	9.670097755712777E+002	2.8386661E-001	-2.7036618E+002
3	0	9.675097755586467E+002	2.8331980E-001	-2.7038385E+002
3	0	9.680097755460156E+002	2.8276962E-001	-2.7037677E+002
3	0	9.685097755333845E+002	2.8227252E-001	-2.7039093E+002
3	0	9.690097755207535E+002	2.8178251E-001	-2.7038031E+002
3	0	9.695097755081224E+002	2.8128245E-001	-2.7038031E+002
3	0	9.700097754954913E+002	2.8079337E-001	-2.7039447E+002
3	0	9.705097754828603E+002	2.8029877E-001	-2.7035913E+002
3	0	9.710097754702292E+002	2.7980116E-001	-2.7036972E+002
3	0	9.715097754575982E+002	2.7929386E-001	-2.7038742E+002
3	0	9.720097754449671E+002	2.7879405E-001	-2.7036267E+002
3	0	9.725097754323360E+002	2.7832955E-001	-2.7038385E+002
3	0	9.730097754197050E+002	2.7787679E-001	-2.7038385E+002
3	0	9.735097754070739E+002	2.7741510E-001	-2.7039093E+002
3	0	9.740097753944428E+002	2.7696264E-001	-2.7038742E+002
3	0	9.745097753818118E+002	2.7650249E-001	-2.7039801E+002
3	0	9.750097753691807E+002	2.7603886E-001	-2.7035559E+002
3	0	9.755097753565497E+002	2.7555934E-001	-2.7037677E+002
3	0	9.760097753439186E+002	2.7508399E-001	-2.7038385E+002
3	0	9.765097753312875E+002	2.7466193E-001	-2.7037677E+002
3	0	9.770097753186565E+002	2.7424440E-001	-2.7036972E+002
3	0	9.775097753060254E+002	2.7381405E-001	-2.7037677E+002
3	0	9.780097752933943E+002	2.7339944E-001	-2.7037326E+002
3	0	9.785097752807633E+002	2.7297643E-001	-2.7038385E+002
3	0	9.790097752681322E+002	2.7254605E-001	-2.7038385E+002
3	0	9.795097752555012E+002	2.7210429E-001	-2.7038031E+002
3	0	9.800097752428701E+002	2.7166915E-001	-2.7039093E+002
3	0	9.805097752302390E+002	2.7126837E-001	-2.7036972E+002
3	0	9.810097752176080E+002	2.7088010E-001	-2.7040506E+002
3	0	9.815097752049769E+002	2.7049571E-001	-2.7038385E+002
3	0	9.820097751923458E+002	2.7010068E-001	-2.7036618E+002
3	0	9.825097751797148E+002	2.6971489E-001	-2.7037677E+002
3	0	9.830097751670837E+002	2.6931992E-001	-2.7034143E+002
3	0	9.835097751544527E+002	2.6890519E-001	-2.7038385E+002
3	0	9.840097751418216E+002	2.6849917E-001	-2.7039093E+002
3	0	9.845097751291905E+002	2.6814121E-001	-2.7037326E+002
3	0	9.850097751165595E+002	2.6778144E-001	-2.7036972E+002
3	0	9.855097751039284E+002	2.6741889E-001	-2.7038031E+002
3	0	9.860097750912973E+002	2.6706555E-001	-2.7036618E+002
3	0	9.865097750786663E+002	2.6670560E-001	-2.7038385E+002
3	0	9.870097750660352E+002	2.6633441E-001	-2.7035913E+002
3	0	9.875097750534042E+002	2.6595074E-001	-2.7036972E+002
3	0	9.880097750407731E+002	2.6557586E-001	-2.7036618E+002
3	0	9.885097750281420E+002	2.6523924E-001	-2.7038742E+002
3	0	9.890097750155110E+002	2.6490819E-001	-2.7039801E+002
3	0	9.895097750028799E+002	2.6458248E-001	-2.7039093E+002
3	0	9.900097749902488E+002	2.6425231E-001	-2.7038742E+002
3	0	9.900101749902387E+002	2.6403299E-001	-2.7039447E+002