EC-Lab ASCII FILE
Nb header lines : 48                          

Open Circuit Voltage

Run on channel : 1 (SN 81504)
User : 
CE vs. WE compliance from -10 V to 10 V
Electrode connection : standard
Potential control : Ewe
Ewe ctrl range : min = -2.50 V, max = 2.50 V
Safety Limits :
	Do not start on E overload
Acquisition started on : 05/07/2026 15:31:18.757
Loaded Setting File :  C:\PEM-WE_measurements\2026\372_IV_IV IrOx, 5 min Pt, 30 min C, etched cathode\new station\Loopeis new\1,46 V different time gaps open cell\Loopeis 1,46V_45s_2_PEIS from 65kHz to 10kHz.mps
Saved on :
	File : L_07_Loopeis 1,46V_45s_2_PEIS from 65kHz to 10kHz_06_OCV_C01.mpr
	Directory : C:\PEM-WE_measurements\2026\372_IV_IV IrOx, 5 min Pt, 30 min C, etched cathode\new station\Loopeis new\1,46 V different time gaps open cell\
	Host : 192.168.0.2
Device : SP-150e (SN .005491)
Address : 192.168.0.91
EC-LAB for windows v11.71 (software)
Internet server v28.00 (firmware)
Command interpretor v14.01 (firmware)
Electrode material : 
Initial state : 
Electrolyte : 
Comments : 
Current amplifier : SP-150eB-20A
Electrode surface area : 0.001 cm²
Characteristic mass : 0.001 g
Equivalent Weight : 0.000 g/eq.
Density : 0.000 g/cm3
Volume (V) : 0.001 cm³
Record Analogic IN 1
Text export
   Mode : Standard
   Time format : Elapsed
Cycle Definition : Charge/Discharge alternance
tR (h:m:s)          0:00:45.0000        
dER/dt (mV/h)       1.0                 
record              <Ewe>               
dER (mV)            10.00               
dtR (s)             0.5000              
E range min (V)     -2.500              
E range max (V)     2.500               

mode	error	time/s	<Ewe/V>	Analog IN 1/V	
3	0	2.258905975960079E+002	1.2766330E+000	8.0207064E-005
3	0	2.263905975833768E+002	1.2713406E+000	-3.4306191E-005
3	0	2.268905975707457E+002	1.2348859E+000	-3.4306191E-005
3	0	2.273905975581147E+002	1.1590023E+000	-7.2477276E-005
3	0	2.278905975454836E+002	9.0271449E-001	-1.5220648E-005
3	0	2.283905975328526E+002	4.6236244E-001	-5.3391734E-005
3	0	2.288905975202215E+002	3.5607225E-001	2.2950437E-005
3	0	2.293905975075904E+002	3.4106952E-001	1.1837815E-004
3	0	2.298905974949594E+002	3.3209342E-001	-7.2477276E-005
3	0	2.303905974823283E+002	3.2513472E-001	-5.3391734E-005
3	0	2.308905974696972E+002	3.1993651E-001	3.8648941E-006
3	0	2.313905974570662E+002	3.1599471E-001	-1.1064836E-004
3	0	2.318905974444351E+002	3.1292948E-001	-1.6790499E-004
3	0	2.323905974318041E+002	3.1047198E-001	-1.2973390E-004
3	0	2.328905974191730E+002	3.0844614E-001	-5.3391734E-005
3	0	2.333905974065419E+002	3.0673125E-001	-2.2516162E-004
3	0	2.338905973939109E+002	3.0522788E-001	-9.1562819E-005
3	0	2.343905973812798E+002	3.0389988E-001	3.8648941E-006
3	0	2.348905973686487E+002	3.0274284E-001	3.8648941E-006
3	0	2.353905973560177E+002	3.0169582E-001	-1.2973390E-004
3	0	2.358905973433866E+002	3.0073056E-001	3.8648941E-006
3	0	2.363905973307556E+002	2.9983947E-001	-1.2973390E-004
3	0	2.368905973181245E+002	2.9899827E-001	-1.2973390E-004
3	0	2.373905973054934E+002	2.9820427E-001	-1.5220648E-005
3	0	2.378905972928624E+002	2.9741791E-001	-5.3391734E-005
3	0	2.383905972802313E+002	2.9665875E-001	4.2035979E-005
3	0	2.388905972676002E+002	2.9595330E-001	-7.2477276E-005
3	0	2.393905972549692E+002	2.9527387E-001	8.0207064E-005
3	0	2.398905972423381E+002	2.9461744E-001	-3.4306191E-005
3	0	2.403905972297071E+002	2.9398036E-001	-5.3391734E-005
3	0	2.408905972170760E+002	2.9336166E-001	2.2950437E-005
3	0	2.413905972044449E+002	2.9274523E-001	-5.3391734E-005
3	0	2.418905971918139E+002	2.9211938E-001	-7.2477276E-005
3	0	2.423905971791828E+002	2.9149356E-001	6.1121522E-005
3	0	2.428905971665517E+002	2.9091275E-001	-7.2477276E-005
3	0	2.433905971539207E+002	2.9033300E-001	-9.1562819E-005
3	0	2.438905971412896E+002	2.8976882E-001	-1.5220648E-005
3	0	2.443905971286586E+002	2.8921184E-001	-7.2477276E-005
3	0	2.448905971160275E+002	2.8867069E-001	-1.2973390E-004
3	0	2.453905971033964E+002	2.8812280E-001	2.2950437E-005
3	0	2.458905970907654E+002	2.8755111E-001	-1.2973390E-004
3	0	2.463905970781343E+002	2.8698522E-001	-1.1064836E-004
3	0	2.468905970655032E+002	2.8645384E-001	-7.2477276E-005
3	0	2.473905970528722E+002	2.8592429E-001	-1.6790499E-004
3	0	2.478905970402411E+002	2.8540373E-001	-3.4306191E-005
3	0	2.483905970276101E+002	2.8489190E-001	1.3746369E-004
3	0	2.488905970149790E+002	2.8438136E-001	-9.1562819E-005
3	0	2.493905970023479E+002	2.8386754E-001	-7.2477276E-005
3	0	2.498905969897169E+002	2.8333923E-001	-9.1562819E-005
3	0	2.503905969770858E+002	2.8280443E-001	-3.4306191E-005
3	0	2.508905969644547E+002	2.8232458E-001	-9.1562819E-005
3	0	2.513905969518237E+002	2.8184161E-001	-1.5220648E-005
3	0	2.518905969391926E+002	2.8135419E-001	-1.5220648E-005
3	0	2.523905969265616E+002	2.8087968E-001	-1.5220648E-005
3	0	2.528905969139305E+002	2.8040376E-001	-1.5220648E-005
3	0	2.533905969012994E+002	2.7992052E-001	-1.2973390E-004
3	0	2.538905968886684E+002	2.7942410E-001	3.8648941E-006
3	0	2.543905968760373E+002	2.7894247E-001	3.8648941E-006
3	0	2.548905968634062E+002	2.7848554E-001	-1.1064836E-004
3	0	2.553905968507752E+002	2.7803561E-001	1.3746369E-004
3	0	2.558905968381441E+002	2.7758515E-001	-7.2477276E-005
3	0	2.563905968255131E+002	2.7714249E-001	-9.1562819E-005
3	0	2.568905968128820E+002	2.7670538E-001	2.2950437E-005
3	0	2.573905968002509E+002	2.7625686E-001	-1.5220648E-005
3	0	2.578905967876199E+002	2.7579427E-001	3.8648941E-006
3	0	2.583905967749888E+002	2.7533075E-001	-1.2973390E-004
3	0	2.588905967623577E+002	2.7491173E-001	-9.1562819E-005
3	0	2.593905967497267E+002	2.7449909E-001	-3.4306191E-005
3	0	2.598905967370956E+002	2.7408326E-001	-1.6790499E-004
3	0	2.603905967244646E+002	2.7366984E-001	-7.2477276E-005
3	0	2.608905967118335E+002	2.7326599E-001	-5.3391734E-005
3	0	2.613905966992024E+002	2.7285072E-001	-7.2477276E-005
3	0	2.618905966865714E+002	2.7242699E-001	-1.6790499E-004
3	0	2.623905966739403E+002	2.7200651E-001	8.0207064E-005
3	0	2.628905966613092E+002	2.7161595E-001	-3.4306191E-005
3	0	2.633905966486782E+002	2.7122670E-001	-1.8699054E-004
3	0	2.638905966360471E+002	2.7084699E-001	8.0207064E-005
3	0	2.643905966234161E+002	2.7046829E-001	2.2950437E-005
3	0	2.648905966107850E+002	2.7008924E-001	-1.5220648E-005
3	0	2.653905965981539E+002	2.6971093E-001	8.0207064E-005
3	0	2.658905965855229E+002	2.6932210E-001	1.1837815E-004
3	0	2.663905965728918E+002	2.6892486E-001	-3.4306191E-005
3	0	2.668905965602607E+002	2.6856786E-001	-7.2477276E-005
3	0	2.673905965476297E+002	2.6821506E-001	-7.2477276E-005
3	0	2.678905965349986E+002	2.6786175E-001	2.2950437E-005
3	0	2.683905965223676E+002	2.6751193E-001	-1.1064836E-004
3	0	2.688905965097365E+002	2.6716658E-001	-1.2973390E-004
3	0	2.693905964971054E+002	2.6681805E-001	-7.2477276E-005
3	0	2.698905964844744E+002	2.6644412E-001	2.2950437E-005
3	0	2.703905964718433E+002	2.6607379E-001	-2.2516162E-004
3	0	2.703909964718332E+002	2.6587459E-001	-1.1064836E-004