EC-Lab ASCII FILE
Nb header lines : 48                          

Open Circuit Voltage

Run on channel : 1 (SN 81504)
User : 
CE vs. WE compliance from -10 V to 10 V
Electrode connection : standard
Potential control : Ewe
Ewe ctrl range : min = -2.50 V, max = 2.50 V
Safety Limits :
	Do not start on E overload
Acquisition started on : 05/07/2026 15:31:18.757
Loaded Setting File :  C:\PEM-WE_measurements\2026\372_IV_IV IrOx, 5 min Pt, 30 min C, etched cathode\new station\Loopeis new\1,46 V different time gaps open cell\Loopeis 1,46V_45s_2_PEIS from 65kHz to 10kHz.mps
Saved on :
	File : L_07_Loopeis 1,46V_45s_2_PEIS from 65kHz to 10kHz_18_OCV_C01.mpr
	Directory : C:\PEM-WE_measurements\2026\372_IV_IV IrOx, 5 min Pt, 30 min C, etched cathode\new station\Loopeis new\1,46 V different time gaps open cell\
	Host : 192.168.0.2
Device : SP-150e (SN .005491)
Address : 192.168.0.91
EC-LAB for windows v11.71 (software)
Internet server v28.00 (firmware)
Command interpretor v14.01 (firmware)
Electrode material : 
Initial state : 
Electrolyte : 
Comments : 
Current amplifier : SP-150eB-20A
Electrode surface area : 0.001 cm²
Characteristic mass : 0.001 g
Equivalent Weight : 0.000 g/eq.
Density : 0.000 g/cm3
Volume (V) : 0.001 cm³
Record Analogic IN 1
Text export
   Mode : Standard
   Time format : Elapsed
Cycle Definition : Charge/Discharge alternance
tR (h:m:s)          0:00:45.0000        
dER/dt (mV/h)       1.0                 
record              <Ewe>               
dER (mV)            10.00               
dtR (s)             0.5000              
E range min (V)     -2.500              
E range max (V)     2.500               

mode	error	time/s	<Ewe/V>	Analog IN 1/V	
3	0	7.670519938317739E+002	1.2768117E+000	2.2950437E-005
3	0	7.675519938191428E+002	1.2710147E+000	-3.4306191E-005
3	0	7.680519938065117E+002	1.2340814E+000	-7.2477276E-005
3	0	7.685519937938807E+002	1.1580225E+000	-9.1562819E-005
3	0	7.690519937812496E+002	9.1664147E-001	-7.2477276E-005
3	0	7.695519937686186E+002	4.7248510E-001	4.2035979E-005
3	0	7.700519937559875E+002	3.5399467E-001	-9.1562819E-005
3	0	7.705519937433564E+002	3.3788612E-001	-7.2477276E-005
3	0	7.710519937307254E+002	3.2910070E-001	3.8648941E-006
3	0	7.715519937180943E+002	3.2213676E-001	4.2035979E-005
3	0	7.720519937054632E+002	3.1687018E-001	-5.3391734E-005
3	0	7.725519936928322E+002	3.1285536E-001	-5.3391734E-005
3	0	7.730519936802011E+002	3.0970749E-001	3.8648941E-006
3	0	7.735519936675701E+002	3.0716854E-001	-1.1064836E-004
3	0	7.740519936549390E+002	3.0509415E-001	-7.2477276E-005
3	0	7.745519936423079E+002	3.0336514E-001	-5.3391734E-005
3	0	7.750519936296769E+002	3.0188030E-001	6.1121522E-005
3	0	7.755519936170458E+002	3.0057171E-001	-9.1562819E-005
3	0	7.760519936044147E+002	2.9940709E-001	-9.1562819E-005
3	0	7.765519935917837E+002	2.9835156E-001	-7.2477276E-005
3	0	7.770519935791526E+002	2.9735309E-001	-1.2973390E-004
3	0	7.775519935665216E+002	2.9641488E-001	-3.4306191E-005
3	0	7.780519935538905E+002	2.9556409E-001	-9.1562819E-005
3	0	7.785519935412594E+002	2.9477736E-001	-5.3391734E-005
3	0	7.790519935286284E+002	2.9403344E-001	-7.2477276E-005
3	0	7.795519935159973E+002	2.9332167E-001	-7.2477276E-005
3	0	7.800519935033662E+002	2.9262719E-001	-1.2973390E-004
3	0	7.805519934907352E+002	2.9195392E-001	-1.6790499E-004
3	0	7.810519934781041E+002	2.9127470E-001	-1.6790499E-004
3	0	7.815519934654731E+002	2.9059371E-001	-2.0607607E-004
3	0	7.820519934528420E+002	2.8995466E-001	-3.4306191E-005
3	0	7.825519934402109E+002	2.8935120E-001	4.2035979E-005
3	0	7.830519934275799E+002	2.8876388E-001	-1.5220648E-005
3	0	7.835519934149488E+002	2.8818014E-001	-1.5220648E-005
3	0	7.840519934023177E+002	2.8759891E-001	-3.4306191E-005
3	0	7.845519933896867E+002	2.8703076E-001	-1.5220648E-005
3	0	7.850519933770556E+002	2.8644365E-001	-9.1562819E-005
3	0	7.855519933644246E+002	2.8584513E-001	-1.6790499E-004
3	0	7.860519933517935E+002	2.8528315E-001	-3.4306191E-005
3	0	7.865519933391624E+002	2.8475258E-001	-1.5220648E-005
3	0	7.870519933265314E+002	2.8422299E-001	-9.1562819E-005
3	0	7.875519933139003E+002	2.8369045E-001	3.8648941E-006
3	0	7.880519933012692E+002	2.8316578E-001	-5.3391734E-005
3	0	7.885519932886382E+002	2.8263900E-001	3.8648941E-006
3	0	7.890519932760071E+002	2.8210378E-001	6.1121522E-005
3	0	7.895519932633761E+002	2.8155255E-001	6.1121522E-005
3	0	7.900519932507450E+002	2.8104213E-001	-1.1064836E-004
3	0	7.905519932381139E+002	2.8054759E-001	2.2950437E-005
3	0	7.910519932254829E+002	2.8004566E-001	-1.8699054E-004
3	0	7.915519932128518E+002	2.7955979E-001	-1.1064836E-004
3	0	7.920519932002208E+002	2.7907419E-001	-7.2477276E-005
3	0	7.925519931875897E+002	2.7858669E-001	-1.2973390E-004
3	0	7.930519931749586E+002	2.7808574E-001	-1.2973390E-004
3	0	7.935519931623276E+002	2.7757302E-001	-9.1562819E-005
3	0	7.940519931496965E+002	2.7709472E-001	3.8648941E-006
3	0	7.945519931370654E+002	2.7663285E-001	-1.5220648E-005
3	0	7.950519931244344E+002	2.7617264E-001	-7.2477276E-005
3	0	7.955519931118033E+002	2.7572000E-001	-5.3391734E-005
3	0	7.960519930991723E+002	2.7526495E-001	2.2950437E-005
3	0	7.965519930865412E+002	2.7481478E-001	-1.5220648E-005
3	0	7.970519930739101E+002	2.7435622E-001	-5.3391734E-005
3	0	7.975519930612791E+002	2.7387717E-001	4.2035979E-005
3	0	7.980519930486480E+002	2.7343294E-001	-9.1562819E-005
3	0	7.985519930360169E+002	2.7300888E-001	-7.2477276E-005
3	0	7.990519930233859E+002	2.7258289E-001	-1.5220648E-005
3	0	7.995519930107548E+002	2.7216756E-001	-3.4306191E-005
3	0	8.000519929981238E+002	2.7174714E-001	-1.1064836E-004
3	0	8.005519929854927E+002	2.7131787E-001	-9.1562819E-005
3	0	8.010519929728616E+002	2.7088475E-001	-2.8241824E-004
3	0	8.015519929602306E+002	2.7043957E-001	3.8648941E-006
3	0	8.020519929475995E+002	2.7002496E-001	-3.4306191E-005
3	0	8.025519929349684E+002	2.6964045E-001	-1.5220648E-005
3	0	8.030519929223374E+002	2.6925021E-001	4.2035979E-005
3	0	8.035519929097063E+002	2.6886064E-001	3.8648941E-006
3	0	8.040519928970753E+002	2.6847306E-001	-3.4306191E-005
3	0	8.045519928844442E+002	2.6808757E-001	2.2950437E-005
3	0	8.050519928718131E+002	2.6767501E-001	-5.3391734E-005
3	0	8.055519928591821E+002	2.6726210E-001	-1.1064836E-004
3	0	8.060519928465510E+002	2.6688644E-001	-9.1562819E-005
3	0	8.065519928339199E+002	2.6653078E-001	-1.1064836E-004
3	0	8.070519928212889E+002	2.6617178E-001	8.0207064E-005
3	0	8.075519928086578E+002	2.6581529E-001	-7.2477276E-005
3	0	8.080519927960268E+002	2.6545832E-001	3.8648941E-006
3	0	8.085519927833957E+002	2.6509956E-001	2.2950437E-005
3	0	8.090519927707646E+002	2.6472521E-001	-5.3391734E-005
3	0	8.095519927581336E+002	2.6434764E-001	-3.4306191E-005
3	0	8.100519927455025E+002	2.6400250E-001	-5.3391734E-005
3	0	8.105519927328714E+002	2.6367646E-001	-9.1562819E-005
3	0	8.110519927202404E+002	2.6334816E-001	-1.4881945E-004
3	0	8.115519927076093E+002	2.6301849E-001	4.2035979E-005
3	0	8.115523927075992E+002	2.6280209E-001	-2.0607607E-004