EC-Lab ASCII FILE
Nb header lines : 48                          

Open Circuit Voltage

Run on channel : 1 (SN 81504)
User : 
CE vs. WE compliance from -10 V to 10 V
Electrode connection : standard
Potential control : Ewe
Ewe ctrl range : min = -2.50 V, max = 2.50 V
Safety Limits :
	Do not start on E overload
Acquisition started on : 05/07/2026 15:31:18.757
Loaded Setting File :  C:\PEM-WE_measurements\2026\372_IV_IV IrOx, 5 min Pt, 30 min C, etched cathode\new station\Loopeis new\1,46 V different time gaps open cell\Loopeis 1,46V_45s_2_PEIS from 65kHz to 10kHz.mps
Saved on :
	File : L_07_Loopeis 1,46V_45s_2_PEIS from 65kHz to 10kHz_12_OCV_C01.mpr
	Directory : C:\PEM-WE_measurements\2026\372_IV_IV IrOx, 5 min Pt, 30 min C, etched cathode\new station\Loopeis new\1,46 V different time gaps open cell\
	Host : 192.168.0.2
Device : SP-150e (SN .005491)
Address : 192.168.0.91
EC-LAB for windows v11.71 (software)
Internet server v28.00 (firmware)
Command interpretor v14.01 (firmware)
Electrode material : 
Initial state : 
Electrolyte : 
Comments : 
Current amplifier : SP-150eB-20A
Electrode surface area : 0.001 cm²
Characteristic mass : 0.001 g
Equivalent Weight : 0.000 g/eq.
Density : 0.000 g/cm3
Volume (V) : 0.001 cm³
Record Analogic IN 1
Text export
   Mode : Standard
   Time format : Elapsed
Cycle Definition : Charge/Discharge alternance
tR (h:m:s)          0:00:45.0000        
dER/dt (mV/h)       1.0                 
record              <Ewe>               
dER (mV)            10.00               
dtR (s)             0.5000              
E range min (V)     -2.500              
E range max (V)     2.500               

mode	error	time/s	<Ewe/V>	Analog IN 1/V	
3	0	4.951105972888035E+002	1.0649382E+000	4.2035979E-005
3	0	4.956105972761725E+002	1.2240107E+000	4.2035979E-005
3	0	4.961105972635414E+002	1.1863455E+000	3.8648941E-006
3	0	4.966105972509104E+002	1.1037610E+000	-3.4306191E-005
3	0	4.971105972382793E+002	8.2289851E-001	-1.8699054E-004
3	0	4.976105972256482E+002	4.2038938E-001	3.8648941E-006
3	0	4.981105972130172E+002	3.2406104E-001	3.8648941E-006
3	0	4.986105972003861E+002	3.1204629E-001	-1.5220648E-005
3	0	4.991105971877550E+002	3.0448315E-001	-5.3391734E-005
3	0	4.996105971751240E+002	2.9823786E-001	-1.5220648E-005
3	0	5.001105971624929E+002	2.9340571E-001	2.2950437E-005
3	0	5.006105971498619E+002	2.8966820E-001	-5.3391734E-005
3	0	5.011105971372308E+002	2.8672963E-001	-3.4306191E-005
3	0	5.016105971245997E+002	2.8434700E-001	-3.4306191E-005
3	0	5.021105971119687E+002	2.8239241E-001	-7.2477276E-005
3	0	5.026105970993376E+002	2.8077132E-001	-7.2477276E-005
3	0	5.031105970867065E+002	2.7938622E-001	-1.4881945E-004
3	0	5.036105970740755E+002	2.7817610E-001	-9.1562819E-005
3	0	5.041105970614444E+002	2.7709818E-001	-1.1064836E-004
3	0	5.046105970488134E+002	2.7611434E-001	-3.4306191E-005
3	0	5.051105970361823E+002	2.7520680E-001	2.2950437E-005
3	0	5.056105970235512E+002	2.7435765E-001	-5.3391734E-005
3	0	5.061105970109202E+002	2.7356368E-001	-7.2477276E-005
3	0	5.066105969982891E+002	2.7283800E-001	9.9292607E-005
3	0	5.071105969856580E+002	2.7215987E-001	-2.0607607E-004
3	0	5.076105969730270E+002	2.7150282E-001	8.0207064E-005
3	0	5.081105969603959E+002	2.7086923E-001	-1.8699054E-004
3	0	5.086105969477649E+002	2.7024889E-001	-7.2477276E-005
3	0	5.091105969351338E+002	2.6963434E-001	3.8648941E-006
3	0	5.096105969225027E+002	2.6901987E-001	-1.2973390E-004
3	0	5.101105969098717E+002	2.6841840E-001	-5.3391734E-005
3	0	5.106105968972406E+002	2.6786309E-001	4.2035979E-005
3	0	5.111105968846095E+002	2.6731741E-001	-1.4881945E-004
3	0	5.116105968719785E+002	2.6677755E-001	-7.2477276E-005
3	0	5.121105968593474E+002	2.6624003E-001	4.2035979E-005
3	0	5.126105968467164E+002	2.6571444E-001	-5.3391734E-005
3	0	5.131105968340853E+002	2.6517218E-001	-7.2477276E-005
3	0	5.136105968214542E+002	2.6462597E-001	-1.4881945E-004
3	0	5.141105968088232E+002	2.6409391E-001	-5.3391734E-005
3	0	5.146105967961921E+002	2.6360154E-001	3.8648941E-006
3	0	5.151105967835611E+002	2.6310745E-001	2.2950437E-005
3	0	5.156105967709300E+002	2.6260918E-001	6.1121522E-005
3	0	5.161105967582989E+002	2.6211798E-001	-3.4306191E-005
3	0	5.166105967456679E+002	2.6162213E-001	2.2950437E-005
3	0	5.171105967330368E+002	2.6112267E-001	-7.2477276E-005
3	0	5.176105967204057E+002	2.6061082E-001	-9.1562819E-005
3	0	5.181105967077747E+002	2.6010653E-001	-7.2477276E-005
3	0	5.186105966951436E+002	2.5964326E-001	-1.6790499E-004
3	0	5.191105966825126E+002	2.5918272E-001	-1.4881945E-004
3	0	5.196105966698815E+002	2.5871783E-001	8.0207064E-005
3	0	5.201105966572504E+002	2.5825772E-001	-9.1562819E-005
3	0	5.206105966446194E+002	2.5779980E-001	-3.4306191E-005
3	0	5.211105966319883E+002	2.5732729E-001	-9.1562819E-005
3	0	5.216105966193572E+002	2.5684315E-001	-7.2477276E-005
3	0	5.221105966067262E+002	2.5637639E-001	-9.1562819E-005
3	0	5.226105965940951E+002	2.5594229E-001	-1.4881945E-004
3	0	5.231105965814641E+002	2.5551620E-001	2.2950437E-005
3	0	5.236105965688330E+002	2.5508583E-001	-1.5220648E-005
3	0	5.241105965562019E+002	2.5465819E-001	-1.5220648E-005
3	0	5.246105965435709E+002	2.5423381E-001	3.8648941E-006
3	0	5.251105965309398E+002	2.5379851E-001	-1.5220648E-005
3	0	5.256105965183087E+002	2.5334218E-001	3.8648941E-006
3	0	5.261105965056777E+002	2.5290784E-001	-1.2973390E-004
3	0	5.266105964930466E+002	2.5250092E-001	-3.4306191E-005
3	0	5.271105964804156E+002	2.5210112E-001	-1.1064836E-004
3	0	5.276105964677845E+002	2.5170186E-001	-1.5220648E-005
3	0	5.281105964551534E+002	2.5130123E-001	4.2035979E-005
3	0	5.286105964425224E+002	2.5090304E-001	-1.2973390E-004
3	0	5.291105964298913E+002	2.5049785E-001	-7.2477276E-005
3	0	5.296105964172602E+002	2.5006801E-001	-1.5220648E-005
3	0	5.301105964046292E+002	2.4966437E-001	-9.1562819E-005
3	0	5.306105963919981E+002	2.4929345E-001	-1.5220648E-005
3	0	5.311105963793671E+002	2.4892311E-001	3.8648941E-006
3	0	5.316105963667360E+002	2.4855280E-001	-5.3391734E-005
3	0	5.321105963541049E+002	2.4818194E-001	-5.3391734E-005
3	0	5.326105963414739E+002	2.4781646E-001	-5.3391734E-005
3	0	5.331105963288428E+002	2.4743216E-001	-5.3391734E-005
3	0	5.336105963162117E+002	2.4703497E-001	-1.5220648E-005
3	0	5.341105963035807E+002	2.4665907E-001	3.8648941E-006
3	0	5.346105962909496E+002	2.4631666E-001	-3.4306191E-005
3	0	5.351105962783186E+002	2.4597269E-001	-5.3391734E-005
3	0	5.356105962656875E+002	2.4562950E-001	-1.1064836E-004
3	0	5.361105962530564E+002	2.4529381E-001	2.2950437E-005
3	0	5.366105962404254E+002	2.4495368E-001	6.1121522E-005
3	0	5.371105962277943E+002	2.4459963E-001	-1.2973390E-004
3	0	5.376105962151632E+002	2.4422863E-001	-1.5220648E-005
3	0	5.381105962025322E+002	2.4387498E-001	9.9292607E-005
3	0	5.386105961899011E+002	2.4355933E-001	-5.3391734E-005
3	0	5.391105961772701E+002	2.4324742E-001	1.1837815E-004
3	0	5.396105961646390E+002	2.4293196E-001	-3.4306191E-005
3	0	5.396445961637801E+002	2.4275181E-001	2.2950437E-005