EC-Lab ASCII FILE
Nb header lines : 48                          

Open Circuit Voltage

Run on channel : 1 (SN 81504)
User : 
CE vs. WE compliance from -10 V to 10 V
Electrode connection : standard
Potential control : Ewe
Ewe ctrl range : min = -2.50 V, max = 2.50 V
Safety Limits :
	Do not start on E overload
Acquisition started on : 05/07/2026 15:31:18.757
Loaded Setting File :  C:\PEM-WE_measurements\2026\372_IV_IV IrOx, 5 min Pt, 30 min C, etched cathode\new station\Loopeis new\1,46 V different time gaps open cell\Loopeis 1,46V_45s_2_PEIS from 65kHz to 10kHz.mps
Saved on :
	File : L_07_Loopeis 1,46V_45s_2_PEIS from 65kHz to 10kHz_04_OCV_C01.mpr
	Directory : C:\PEM-WE_measurements\2026\372_IV_IV IrOx, 5 min Pt, 30 min C, etched cathode\new station\Loopeis new\1,46 V different time gaps open cell\
	Host : 192.168.0.2
Device : SP-150e (SN .005491)
Address : 192.168.0.91
EC-LAB for windows v11.71 (software)
Internet server v28.00 (firmware)
Command interpretor v14.01 (firmware)
Electrode material : 
Initial state : 
Electrolyte : 
Comments : 
Current amplifier : SP-150eB-20A
Electrode surface area : 0.001 cm²
Characteristic mass : 0.001 g
Equivalent Weight : 0.000 g/eq.
Density : 0.000 g/cm3
Volume (V) : 0.001 cm³
Record Analogic IN 1
Text export
   Mode : Standard
   Time format : Elapsed
Cycle Definition : Charge/Discharge alternance
tR (h:m:s)          0:00:45.0000        
dER/dt (mV/h)       1.0                 
record              <Ewe>               
dER (mV)            10.00               
dtR (s)             0.5000              
E range min (V)     -2.500              
E range max (V)     2.500               

mode	error	time/s	<Ewe/V>	Analog IN 1/V	
3	0	1.358543998705136E+002	1.0647956E+000	-9.1562819E-005
3	0	1.363543998578825E+002	1.2252102E+000	6.1121522E-005
3	0	1.368543998452515E+002	1.1875380E+000	-7.2477276E-005
3	0	1.373543998326204E+002	1.1045387E+000	-3.4306191E-005
3	0	1.378543998199893E+002	8.1638587E-001	-1.2973390E-004
3	0	1.383543998073583E+002	4.1700685E-001	-3.4306191E-005
3	0	1.388543997947272E+002	3.2583863E-001	9.9292607E-005
3	0	1.393543997820962E+002	3.1410968E-001	2.2950437E-005
3	0	1.398543997694651E+002	3.0644009E-001	3.8648941E-006
3	0	1.403543997568340E+002	3.0018094E-001	-5.3391734E-005
3	0	1.408543997442030E+002	2.9536304E-001	-1.5220648E-005
3	0	1.413543997315719E+002	2.9166901E-001	-3.4306191E-005
3	0	1.418543997189408E+002	2.8875166E-001	6.1121522E-005
3	0	1.423543997063098E+002	2.8639877E-001	3.8648941E-006
3	0	1.428543996936787E+002	2.8448701E-001	8.0207064E-005
3	0	1.433543996810477E+002	2.8288320E-001	-5.3391734E-005
3	0	1.438543996684166E+002	2.8151318E-001	-7.2477276E-005
3	0	1.443543996557855E+002	2.8030920E-001	-9.1562819E-005
3	0	1.448543996431545E+002	2.7923751E-001	-7.2477276E-005
3	0	1.453543996305234E+002	2.7826035E-001	-7.2477276E-005
3	0	1.458543996178923E+002	2.7734542E-001	-1.5220648E-005
3	0	1.463543996052613E+002	2.7648649E-001	-1.5220648E-005
3	0	1.468543995926302E+002	2.7570745E-001	-1.5220648E-005
3	0	1.473543995799992E+002	2.7498561E-001	-9.1562819E-005
3	0	1.478543995673681E+002	2.7430725E-001	-1.5220648E-005
3	0	1.483543995547370E+002	2.7364811E-001	2.2950437E-005
3	0	1.488543995421060E+002	2.7301115E-001	-1.5220648E-005
3	0	1.493543995294749E+002	2.7239046E-001	3.8648941E-006
3	0	1.498543995168438E+002	2.7176774E-001	-7.2477276E-005
3	0	1.503543995042128E+002	2.7113581E-001	-2.0607607E-004
3	0	1.508543994915817E+002	2.7055761E-001	-1.1064836E-004
3	0	1.513543994789507E+002	2.6999828E-001	-1.2973390E-004
3	0	1.518543994663196E+002	2.6945230E-001	-1.5220648E-005
3	0	1.523543994536885E+002	2.6891282E-001	2.2950437E-005
3	0	1.528543994410575E+002	2.6837531E-001	9.9292607E-005
3	0	1.533543994284264E+002	2.6783797E-001	-7.2477276E-005
3	0	1.538543994157953E+002	2.6728958E-001	-3.4306191E-005
3	0	1.543543994031643E+002	2.6673019E-001	-1.2973390E-004
3	0	1.548543993905332E+002	2.6620963E-001	2.2950437E-005
3	0	1.553543993779022E+002	2.6571393E-001	3.8648941E-006
3	0	1.558543993652711E+002	2.6520622E-001	-9.1562819E-005
3	0	1.563543993526400E+002	2.6471332E-001	-3.4306191E-005
3	0	1.568543993400090E+002	2.6422554E-001	-3.4306191E-005
3	0	1.573543993273779E+002	2.6373175E-001	2.2950437E-005
3	0	1.578543993147468E+002	2.6321840E-001	-7.2477276E-005
3	0	1.583543993021158E+002	2.6269579E-001	-5.3391734E-005
3	0	1.588543992894847E+002	2.6220927E-001	1.3746369E-004
3	0	1.593543992768537E+002	2.6173824E-001	-1.1064836E-004
3	0	1.598543992642226E+002	2.6127017E-001	-3.4306191E-005
3	0	1.603543992515915E+002	2.6081091E-001	8.0207064E-005
3	0	1.608543992389605E+002	2.6034337E-001	-5.3391734E-005
3	0	1.613543992263294E+002	2.5988010E-001	-9.1562819E-005
3	0	1.618543992136983E+002	2.5940669E-001	6.1121522E-005
3	0	1.623543992010673E+002	2.5891909E-001	-9.1562819E-005
3	0	1.628543991884362E+002	2.5846857E-001	-1.4881945E-004
3	0	1.633543991758052E+002	2.5803000E-001	3.8648941E-006
3	0	1.638543991631741E+002	2.5758851E-001	-1.8699054E-004
3	0	1.643543991505430E+002	2.5715375E-001	-7.2477276E-005
3	0	1.648543991379120E+002	2.5672507E-001	-9.1562819E-005
3	0	1.653543991252809E+002	2.5629002E-001	2.2950437E-005
3	0	1.658543991126498E+002	2.5584227E-001	1.1837815E-004
3	0	1.663543991000188E+002	2.5538221E-001	6.1121522E-005
3	0	1.668543990873877E+002	2.5496399E-001	-1.1064836E-004
3	0	1.673543990747567E+002	2.5456566E-001	2.1380586E-004
3	0	1.678543990621256E+002	2.5416347E-001	-3.4306191E-005
3	0	1.683543990494945E+002	2.5375801E-001	-1.2973390E-004
3	0	1.688543990368635E+002	2.5335258E-001	-1.4881945E-004
3	0	1.693543990242324E+002	2.5295010E-001	3.8648941E-006
3	0	1.698543990116013E+002	2.5252536E-001	-3.4306191E-005
3	0	1.703543989989703E+002	2.5209662E-001	3.8648941E-006
3	0	1.708543989863392E+002	2.5170630E-001	-1.2973390E-004
3	0	1.713543989737082E+002	2.5133416E-001	-1.2973390E-004
3	0	1.718543989610771E+002	2.5095913E-001	-1.5220648E-005
3	0	1.723543989484460E+002	2.5058520E-001	-9.1562819E-005
3	0	1.728543989358150E+002	2.5021636E-001	-1.4881945E-004
3	0	1.733543989231839E+002	2.4984486E-001	-7.2477276E-005
3	0	1.738543989105528E+002	2.4944940E-001	-1.5220648E-005
3	0	1.743543988979218E+002	2.4905735E-001	-7.2477276E-005
3	0	1.748543988852907E+002	2.4869242E-001	-5.3391734E-005
3	0	1.753543988726597E+002	2.4834687E-001	1.1837815E-004
3	0	1.758543988600286E+002	2.4800228E-001	-9.1562819E-005
3	0	1.763543988473975E+002	2.4765509E-001	9.9292607E-005
3	0	1.768543988347665E+002	2.4731095E-001	-7.2477276E-005
3	0	1.773543988221354E+002	2.4695705E-001	-1.8699054E-004
3	0	1.778543988095043E+002	2.4658936E-001	-7.2477276E-005
3	0	1.783543987968733E+002	2.4621660E-001	3.8648941E-006
3	0	1.788543987842422E+002	2.4588129E-001	3.8648941E-006
3	0	1.793543987716112E+002	2.4557091E-001	-5.3391734E-005
3	0	1.798543987589801E+002	2.4525358E-001	6.1121522E-005
3	0	1.803543987463490E+002	2.4493377E-001	-7.2477276E-005
3	0	1.803899987454497E+002	2.4475916E-001	3.8648941E-006