EC-Lab ASCII FILE
Nb header lines : 48                          

Open Circuit Voltage

Run on channel : 1 (SN 81504)
User : 
CE vs. WE compliance from -10 V to 10 V
Electrode connection : standard
Potential control : Ewe
Ewe ctrl range : min = -2.50 V, max = 2.50 V
Safety Limits :
	Do not start on E overload
Acquisition started on : 05/07/2026 15:31:18.757
Loaded Setting File :  C:\PEM-WE_measurements\2026\372_IV_IV IrOx, 5 min Pt, 30 min C, etched cathode\new station\Loopeis new\1,46 V different time gaps open cell\Loopeis 1,46V_45s_2_PEIS from 65kHz to 10kHz.mps
Saved on :
	File : L_07_Loopeis 1,46V_45s_2_PEIS from 65kHz to 10kHz_02_OCV_C01.mpr
	Directory : C:\PEM-WE_measurements\2026\372_IV_IV IrOx, 5 min Pt, 30 min C, etched cathode\new station\Loopeis new\1,46 V different time gaps open cell\
	Host : 192.168.0.2
Device : SP-150e (SN .005491)
Address : 192.168.0.91
EC-LAB for windows v11.71 (software)
Internet server v28.00 (firmware)
Command interpretor v14.01 (firmware)
Electrode material : 
Initial state : 
Electrolyte : 
Comments : 
Current amplifier : SP-150eB-20A
Electrode surface area : 0.001 cm²
Characteristic mass : 0.001 g
Equivalent Weight : 0.000 g/eq.
Density : 0.000 g/cm3
Volume (V) : 0.001 cm³
Record Analogic IN 1
Text export
   Mode : Standard
   Time format : Elapsed
Cycle Definition : Charge/Discharge alternance
tR (h:m:s)          0:00:45.0000        
dER/dt (mV/h)       1.0                 
record              <Ewe>               
dER (mV)            10.00               
dtR (s)             0.5000              
E range min (V)     -2.500              
E range max (V)     2.500               

mode	error	time/s	<Ewe/V>	Analog IN 1/V	
3	0	4.549979885057837E+001	1.2764373E+000	4.2035979E-005
3	0	4.599979883794731E+001	1.2704082E+000	-1.2973390E-004
3	0	4.649979882531625E+001	1.2325940E+000	4.2035979E-005
3	0	4.699979881268519E+001	1.1544504E+000	-7.2477276E-005
3	0	4.749979880005412E+001	8.8461059E-001	4.2035979E-005
3	0	4.799979878742306E+001	4.5475060E-001	3.8648941E-006
3	0	4.849979877479200E+001	3.5433862E-001	-3.4306191E-005
3	0	4.899979876216094E+001	3.3991230E-001	-1.8699054E-004
3	0	4.949979874952987E+001	3.3105731E-001	4.2035979E-005
3	0	4.999979873689881E+001	3.2418251E-001	-5.3391734E-005
3	0	5.049979872426775E+001	3.1901172E-001	-1.1064836E-004
3	0	5.099979871163669E+001	3.1511196E-001	-7.2477276E-005
3	0	5.149979869900562E+001	3.1209698E-001	-1.1064836E-004
3	0	5.199979868637456E+001	3.0967182E-001	-1.5220648E-005
3	0	5.249979867374350E+001	3.0767602E-001	-7.2477276E-005
3	0	5.299979866111244E+001	3.0598551E-001	-3.4306191E-005
3	0	5.349979864848137E+001	3.0451906E-001	3.8648941E-006
3	0	5.399979863585031E+001	3.0320990E-001	-5.3391734E-005
3	0	5.449979862321925E+001	3.0202353E-001	6.1121522E-005
3	0	5.499979861058819E+001	3.0097052E-001	4.2035979E-005
3	0	5.549979859795712E+001	3.0002496E-001	-1.1064836E-004
3	0	5.599979858532606E+001	2.9914191E-001	3.8648941E-006
3	0	5.649979857269500E+001	2.9831234E-001	4.2035979E-005
3	0	5.699979856006394E+001	2.9752693E-001	3.8648941E-006
3	0	5.749979854743287E+001	2.9677704E-001	4.2035979E-005
3	0	5.799979853480181E+001	2.9603601E-001	-3.4306191E-005
3	0	5.849979852217075E+001	2.9529905E-001	-9.1562819E-005
3	0	5.899979850953969E+001	2.9461440E-001	-9.1562819E-005
3	0	5.949979849690862E+001	2.9397076E-001	-1.6790499E-004
3	0	5.999979848427756E+001	2.9335248E-001	-5.3391734E-005
3	0	6.049979847164650E+001	2.9273695E-001	4.2035979E-005
3	0	6.099979845901544E+001	2.9213163E-001	2.2950437E-005
3	0	6.149979844638438E+001	2.9152617E-001	-3.4306191E-005
3	0	6.199979843375331E+001	2.9091239E-001	4.2035979E-005
3	0	6.249979842112225E+001	2.9029047E-001	-1.2973390E-004
3	0	6.299979840849119E+001	2.8971153E-001	-7.2477276E-005
3	0	6.349979839586013E+001	2.8915837E-001	-3.4306191E-005
3	0	6.399979838322906E+001	2.8861395E-001	-5.3391734E-005
3	0	6.449979837059800E+001	2.8807563E-001	-1.5220648E-005
3	0	6.499979835796694E+001	2.8753224E-001	-1.5220648E-005
3	0	6.549979834533588E+001	2.8699535E-001	-1.5220648E-005
3	0	6.599979833270481E+001	2.8643584E-001	6.1121522E-005
3	0	6.649979832007375E+001	2.8586406E-001	-3.4306191E-005
3	0	6.699979830744269E+001	2.8533536E-001	-5.3391734E-005
3	0	6.749979829481163E+001	2.8482240E-001	3.8648941E-006
3	0	6.799979828218056E+001	2.8431875E-001	-1.5220648E-005
3	0	6.849979826954950E+001	2.8381234E-001	-7.2477276E-005
3	0	6.899979825691844E+001	2.8330919E-001	2.2950437E-005
3	0	6.949979824428738E+001	2.8280371E-001	3.8648941E-006
3	0	6.999979823165631E+001	2.8228864E-001	-5.3391734E-005
3	0	7.049979821902525E+001	2.8176019E-001	2.2950437E-005
3	0	7.099979820639419E+001	2.8126231E-001	-7.2477276E-005
3	0	7.149979819376313E+001	2.8078991E-001	-1.5220648E-005
3	0	7.199979818113206E+001	2.8032267E-001	-1.4881945E-004
3	0	7.249979816850100E+001	2.7985016E-001	-1.5220648E-005
3	0	7.299979815586994E+001	2.7938965E-001	-1.2973390E-004
3	0	7.349979814323888E+001	2.7892563E-001	-3.4306191E-005
3	0	7.399979813060781E+001	2.7844384E-001	-5.3391734E-005
3	0	7.449979811797675E+001	2.7795136E-001	-2.2516162E-004
3	0	7.499979810534569E+001	2.7749115E-001	2.2950437E-005
3	0	7.549979809271463E+001	2.7705327E-001	3.8648941E-006
3	0	7.599979808008356E+001	2.7662006E-001	-3.4306191E-005
3	0	7.649979806745250E+001	2.7618134E-001	-1.1064836E-004
3	0	7.699979805482144E+001	2.7575320E-001	3.8648941E-006
3	0	7.749979804219038E+001	2.7531028E-001	-1.5220648E-005
3	0	7.799979802955932E+001	2.7485666E-001	2.2950437E-005
3	0	7.849979801692825E+001	2.7440050E-001	3.8648941E-006
3	0	7.899979800429719E+001	2.7397144E-001	1.3746369E-004
3	0	7.949979799166613E+001	2.7356958E-001	-1.5220648E-005
3	0	7.999979797903507E+001	2.7316621E-001	-3.4306191E-005
3	0	8.049979796640400E+001	2.7275774E-001	-3.4306191E-005
3	0	8.099979795377294E+001	2.7236044E-001	6.1121522E-005
3	0	8.149979794114188E+001	2.7196333E-001	-5.3391734E-005
3	0	8.199979792851082E+001	2.7153778E-001	1.3746369E-004
3	0	8.249979791587975E+001	2.7110514E-001	3.8648941E-006
3	0	8.299979790324869E+001	2.7071720E-001	-1.1064836E-004
3	0	8.349979789061763E+001	2.7034435E-001	-1.1064836E-004
3	0	8.399979787798657E+001	2.6996705E-001	-5.3391734E-005
3	0	8.449979786535550E+001	2.6960599E-001	-9.1562819E-005
3	0	8.499979785272444E+001	2.6924112E-001	8.0207064E-005
3	0	8.549979784009338E+001	2.6886892E-001	-1.1064836E-004
3	0	8.599979782746232E+001	2.6847646E-001	2.2950437E-005
3	0	8.649979781483125E+001	2.6808473E-001	-1.2973390E-004
3	0	8.699979780220019E+001	2.6772335E-001	-1.2973390E-004
3	0	8.749979778956913E+001	2.6738450E-001	2.2950437E-005
3	0	8.799979777693807E+001	2.6704845E-001	1.7563478E-004
3	0	8.849979776430700E+001	2.6670629E-001	-9.1562819E-005
3	0	8.899979775167594E+001	2.6636291E-001	-9.1562819E-005
3	0	8.949979773904488E+001	2.6602247E-001	-5.3391734E-005
3	0	8.999979772641382E+001	2.6566985E-001	-5.3391734E-005
3	0	9.000019772640371E+001	2.6538795E-001	-1.1064836E-004