EC-Lab ASCII FILE
Nb header lines : 55                          

Open Circuit Voltage

Run on channel : 1 (SN 81504)
User : 
CE vs. WE compliance from -10 V to 10 V
Electrode connection : standard
Potential control : Ewe
Ewe ctrl range : min = -2.50 V, max = 2.50 V
Safety Limits :
	Do not start on E overload
Acquisition started on : 05/07/2026 15:46:26.830
Loaded Setting File :  C:\PEM-WE_measurements\2026\372_IV_IV IrOx, 5 min Pt, 30 min C, etched cathode\new station\Loopeis new\1,46 V different time gaps open cell\Loopeis 1,46V_45s_3_PEIS from 6500Hz to 1000Hz.mps
Saved on :
	File : L_08_Loopeis 1,46V_45s_3_PEIS from 6500Hz to 1000Hz_18_OCV_C01.mpr
	Directory : C:\PEM-WE_measurements\2026\372_IV_IV IrOx, 5 min Pt, 30 min C, etched cathode\new station\Loopeis new\1,46 V different time gaps open cell\
	Host : 192.168.0.2
Device : SP-150e (SN .005491)
Address : 192.168.0.91
EC-LAB for windows v11.71 (software)
Internet server v28.00 (firmware)
Command interpretor v14.01 (firmware)
Electrode material : 
Initial state : 
Electrolyte : 
Comments : 
Current amplifier : SP-150eB-20A
Electrode surface area : 0.001 cm²
Characteristic mass : 0.001 g
Equivalent Weight : 0.000 g/eq.
Density : 0.000 g/cm3
Volume (V) : 0.001 cm³
Record Analogic IN 1
Text export
   Mode : Standard
   Time format : Elapsed
Cycle Definition : Charge/Discharge alternance
External device configuration :
   device type : Temperature Probe
   device name : Other
   Analog IN 1 : 
      unit : T/Â°C
      max : 100.000 at 2.000 V
      min : 0.000 at 1.460 V
tR (h:m:s)          0:00:45.0000        
dER/dt (mV/h)       1.0                 
record              <Ewe>               
dER (mV)            10.00               
dtR (s)             0.5000              
E range min (V)     -2.500              
E range max (V)     2.500               

mode	error	time/s	<Ewe/V>	Analog IN 1/V	
3	0	7.700629939747887E+002	1.2772214E+000	-2.7037677E+002
3	0	7.705629939621576E+002	1.2725091E+000	-2.7035913E+002
3	0	7.710629939495266E+002	1.2372570E+000	-2.7038742E+002
3	0	7.715629939368955E+002	1.1636333E+000	-2.7036972E+002
3	0	7.720629939242644E+002	9.2407191E-001	-2.7035913E+002
3	0	7.725629939116334E+002	4.7511956E-001	-2.7039093E+002
3	0	7.730629938990023E+002	3.5851118E-001	-2.7036972E+002
3	0	7.735629938863713E+002	3.4229186E-001	-2.7037677E+002
3	0	7.740629938737402E+002	3.3325168E-001	-2.7038385E+002
3	0	7.745629938611091E+002	3.2616851E-001	-2.7038385E+002
3	0	7.750629938484781E+002	3.2083935E-001	-2.7038742E+002
3	0	7.755629938358470E+002	3.1679422E-001	-2.7038385E+002
3	0	7.760629938232159E+002	3.1363490E-001	-2.7039801E+002
3	0	7.765629938105849E+002	3.1110087E-001	-2.7039801E+002
3	0	7.770629937979538E+002	3.0899379E-001	-2.7037677E+002
3	0	7.775629937853228E+002	3.0721071E-001	-2.7037326E+002
3	0	7.780629937726917E+002	3.0568710E-001	-2.7036972E+002
3	0	7.785629937600606E+002	3.0435461E-001	-2.7038385E+002
3	0	7.790629937474296E+002	3.0316713E-001	-2.7035205E+002
3	0	7.795629937347985E+002	3.0209479E-001	-2.7035205E+002
3	0	7.800629937221674E+002	3.0110800E-001	-2.7036972E+002
3	0	7.805629937095364E+002	3.0018473E-001	-2.7035559E+002
3	0	7.810629936969053E+002	2.9930040E-001	-2.7039093E+002
3	0	7.815629936842743E+002	2.9846135E-001	-2.7039447E+002
3	0	7.820629936716432E+002	2.9769278E-001	-2.7039447E+002
3	0	7.825629936590121E+002	2.9695541E-001	-2.7038031E+002
3	0	7.830629936463811E+002	2.9624686E-001	-2.7036618E+002
3	0	7.835629936337500E+002	2.9557171E-001	-2.7039801E+002
3	0	7.840629936211189E+002	2.9490888E-001	-2.7036972E+002
3	0	7.845629936084879E+002	2.9425591E-001	-2.7038742E+002
3	0	7.850629935958568E+002	2.9360485E-001	-2.7036267E+002
3	0	7.855629935832258E+002	2.9296052E-001	-2.7038385E+002
3	0	7.860629935705947E+002	2.9234859E-001	-2.7038031E+002
3	0	7.865629935579636E+002	2.9175836E-001	-2.7036972E+002
3	0	7.870629935453326E+002	2.9116827E-001	-2.7037326E+002
3	0	7.875629935327015E+002	2.9059437E-001	-2.7036972E+002
3	0	7.880629935200704E+002	2.9001570E-001	-2.7037677E+002
3	0	7.885629935074394E+002	2.8941962E-001	-2.7038031E+002
3	0	7.890629934948083E+002	2.8884602E-001	-2.7037326E+002
3	0	7.895629934821773E+002	2.8828445E-001	-2.7037677E+002
3	0	7.900629934695462E+002	2.8775021E-001	-2.7038031E+002
3	0	7.905629934569151E+002	2.8722957E-001	-2.7038742E+002
3	0	7.910629934442841E+002	2.8670791E-001	-2.7037677E+002
3	0	7.915629934316530E+002	2.8618127E-001	-2.7036972E+002
3	0	7.920629934190220E+002	2.8566149E-001	-2.7035913E+002
3	0	7.925629934063909E+002	2.8513360E-001	-2.7039447E+002
3	0	7.930629933937598E+002	2.8459686E-001	-2.7037677E+002
3	0	7.935629933811288E+002	2.8405648E-001	-2.7036267E+002
3	0	7.940629933684977E+002	2.8355315E-001	-2.7036972E+002
3	0	7.945629933558666E+002	2.8306615E-001	-2.7037677E+002
3	0	7.950629933432356E+002	2.8257558E-001	-2.7035205E+002
3	0	7.955629933306045E+002	2.8209895E-001	-2.7040155E+002
3	0	7.960629933179735E+002	2.8160968E-001	-2.7040155E+002
3	0	7.965629933053424E+002	2.8112036E-001	-2.7036972E+002
3	0	7.970629932927113E+002	2.8061759E-001	-2.7038385E+002
3	0	7.975629932800803E+002	2.8011006E-001	-2.7035559E+002
3	0	7.980629932674492E+002	2.7964458E-001	-2.7038742E+002
3	0	7.985629932548181E+002	2.7919132E-001	-2.7037677E+002
3	0	7.990629932421871E+002	2.7873734E-001	-2.7035913E+002
3	0	7.995629932295560E+002	2.7828562E-001	-2.7037326E+002
3	0	8.000629932169250E+002	2.7783337E-001	-2.7039093E+002
3	0	8.005629932042939E+002	2.7737591E-001	-2.7036972E+002
3	0	8.010629931916628E+002	2.7690834E-001	-2.7035205E+002
3	0	8.015629931790318E+002	2.7642789E-001	-2.7036267E+002
3	0	8.020629931664007E+002	2.7599460E-001	-2.7036267E+002
3	0	8.025629931537696E+002	2.7558187E-001	-2.7037326E+002
3	0	8.030629931411386E+002	2.7515647E-001	-2.7036618E+002
3	0	8.035629931285075E+002	2.7474499E-001	-2.7036972E+002
3	0	8.040629931158765E+002	2.7433351E-001	-2.7035913E+002
3	0	8.045629931032454E+002	2.7391186E-001	-2.7040155E+002
3	0	8.050629930906143E+002	2.7347046E-001	-2.7040860E+002
3	0	8.055629930779833E+002	2.7303031E-001	-2.7038031E+002
3	0	8.060629930653522E+002	2.7263036E-001	-2.7039801E+002
3	0	8.065629930527211E+002	2.7225104E-001	-2.7039801E+002
3	0	8.070629930400901E+002	2.7186903E-001	-2.7037326E+002
3	0	8.075629930274590E+002	2.7147996E-001	-2.7036267E+002
3	0	8.080629930148280E+002	2.7109101E-001	-2.7037677E+002
3	0	8.085629930021969E+002	2.7070564E-001	-2.7039447E+002
3	0	8.090629929895658E+002	2.7029374E-001	-2.7037326E+002
3	0	8.095629929769348E+002	2.6988187E-001	-2.7036618E+002
3	0	8.100629929643037E+002	2.6952383E-001	-2.7035205E+002
3	0	8.105629929516726E+002	2.6917741E-001	-2.7038385E+002
3	0	8.110629929390416E+002	2.6881912E-001	-2.7036972E+002
3	0	8.115629929264105E+002	2.6846486E-001	-2.7037677E+002
3	0	8.120629929137795E+002	2.6811802E-001	-2.7037677E+002
3	0	8.125629929011484E+002	2.6775554E-001	-2.7037326E+002
3	0	8.130629928885173E+002	2.6737842E-001	-2.7036618E+002
3	0	8.135629928758863E+002	2.6699808E-001	-2.7035559E+002
3	0	8.140629928632552E+002	2.6666066E-001	-2.7036972E+002
3	0	8.145629928506241E+002	2.6633587E-001	-2.7037677E+002
3	0	8.145633928506140E+002	2.6619902E-001	-2.7038031E+002