EC-Lab ASCII FILE
Nb header lines : 55                          

Open Circuit Voltage

Run on channel : 1 (SN 81504)
User : 
CE vs. WE compliance from -10 V to 10 V
Electrode connection : standard
Potential control : Ewe
Ewe ctrl range : min = -2.50 V, max = 2.50 V
Safety Limits :
	Do not start on E overload
Acquisition started on : 05/07/2026 15:46:26.830
Loaded Setting File :  C:\PEM-WE_measurements\2026\372_IV_IV IrOx, 5 min Pt, 30 min C, etched cathode\new station\Loopeis new\1,46 V different time gaps open cell\Loopeis 1,46V_45s_3_PEIS from 6500Hz to 1000Hz.mps
Saved on :
	File : L_08_Loopeis 1,46V_45s_3_PEIS from 6500Hz to 1000Hz_04_OCV_C01.mpr
	Directory : C:\PEM-WE_measurements\2026\372_IV_IV IrOx, 5 min Pt, 30 min C, etched cathode\new station\Loopeis new\1,46 V different time gaps open cell\
	Host : 192.168.0.2
Device : SP-150e (SN .005491)
Address : 192.168.0.91
EC-LAB for windows v11.71 (software)
Internet server v28.00 (firmware)
Command interpretor v14.01 (firmware)
Electrode material : 
Initial state : 
Electrolyte : 
Comments : 
Current amplifier : SP-150eB-20A
Electrode surface area : 0.001 cm²
Characteristic mass : 0.001 g
Equivalent Weight : 0.000 g/eq.
Density : 0.000 g/cm3
Volume (V) : 0.001 cm³
Record Analogic IN 1
Text export
   Mode : Standard
   Time format : Elapsed
Cycle Definition : Charge/Discharge alternance
External device configuration :
   device type : Temperature Probe
   device name : Other
   Analog IN 1 : 
      unit : T/Â°C
      max : 100.000 at 2.000 V
      min : 0.000 at 1.460 V
tR (h:m:s)          0:00:45.0000        
dER/dt (mV/h)       1.0                 
record              <Ewe>               
dER (mV)            10.00               
dtR (s)             0.5000              
E range min (V)     -2.500              
E range max (V)     2.500               

mode	error	time/s	<Ewe/V>	Analog IN 1/V	
3	0	1.356605998606392E+002	1.0692053E+000	-2.7038385E+002
3	0	1.361605998480081E+002	1.2253835E+000	-2.7036618E+002
3	0	1.366605998353771E+002	1.1894782E+000	-2.7039801E+002
3	0	1.371605998227460E+002	1.1100720E+000	-2.7037677E+002
3	0	1.376605998101149E+002	8.3333147E-001	-2.7038742E+002
3	0	1.381605997974839E+002	4.2306417E-001	-2.7039447E+002
3	0	1.386605997848528E+002	3.2813004E-001	-2.7038385E+002
3	0	1.391605997722218E+002	3.1598851E-001	-2.7037326E+002
3	0	1.396605997595907E+002	3.0818459E-001	-2.7036267E+002
3	0	1.401605997469596E+002	3.0183825E-001	-2.7039801E+002
3	0	1.406605997343286E+002	2.9695010E-001	-2.7038385E+002
3	0	1.411605997216975E+002	2.9320565E-001	-2.7036972E+002
3	0	1.416605997090664E+002	2.9026461E-001	-2.7036618E+002
3	0	1.421605996964354E+002	2.8790644E-001	-2.7036267E+002
3	0	1.426605996838043E+002	2.8599113E-001	-2.7039447E+002
3	0	1.431605996711733E+002	2.8437626E-001	-2.7039447E+002
3	0	1.436605996585422E+002	2.8297460E-001	-2.7036267E+002
3	0	1.441605996459111E+002	2.8175801E-001	-2.7040506E+002
3	0	1.446605996332801E+002	2.8067243E-001	-2.7038742E+002
3	0	1.451605996206490E+002	2.7968720E-001	-2.7040860E+002
3	0	1.456605996080179E+002	2.7876753E-001	-2.7037677E+002
3	0	1.461605995953869E+002	2.7790099E-001	-2.7038031E+002
3	0	1.466605995827558E+002	2.7712393E-001	-2.7040155E+002
3	0	1.471605995701248E+002	2.7638856E-001	-2.7035205E+002
3	0	1.476605995574937E+002	2.7568972E-001	-2.7036267E+002
3	0	1.481605995448626E+002	2.7501896E-001	-2.7039801E+002
3	0	1.486605995322316E+002	2.7437878E-001	-2.7037677E+002
3	0	1.491605995196005E+002	2.7374738E-001	-2.7036972E+002
3	0	1.496605995069694E+002	2.7311283E-001	-2.7037677E+002
3	0	1.501605994943384E+002	2.7248585E-001	-2.7037677E+002
3	0	1.506605994817073E+002	2.7191272E-001	-2.7036972E+002
3	0	1.511605994690763E+002	2.7134398E-001	-2.7038742E+002
3	0	1.516605994564452E+002	2.7078870E-001	-2.7036618E+002
3	0	1.521605994438141E+002	2.7024236E-001	-2.7037326E+002
3	0	1.526605994311831E+002	2.6969916E-001	-2.7036972E+002
3	0	1.531605994185520E+002	2.6916260E-001	-2.7041919E+002
3	0	1.536605994059209E+002	2.6859814E-001	-2.7037677E+002
3	0	1.541605993932899E+002	2.6804122E-001	-2.7038031E+002
3	0	1.546605993806588E+002	2.6752415E-001	-2.7037326E+002
3	0	1.551605993680278E+002	2.6701066E-001	-2.7036618E+002
3	0	1.556605993553967E+002	2.6649913E-001	-2.7038031E+002
3	0	1.561605993427656E+002	2.6599547E-001	-2.7040155E+002
3	0	1.566605993301346E+002	2.6549980E-001	-2.7037677E+002
3	0	1.571605993175035E+002	2.6499575E-001	-2.7035913E+002
3	0	1.576605993048724E+002	2.6448283E-001	-2.7036972E+002
3	0	1.581605992922414E+002	2.6396632E-001	-2.7039093E+002
3	0	1.586605992796103E+002	2.6348814E-001	-2.7039093E+002
3	0	1.591605992669793E+002	2.6300937E-001	-2.7036267E+002
3	0	1.596605992543482E+002	2.6253483E-001	-2.7038031E+002
3	0	1.601605992417171E+002	2.6206648E-001	-2.7034497E+002
3	0	1.606605992290861E+002	2.6159319E-001	-2.7036972E+002
3	0	1.611605992164550E+002	2.6112524E-001	-2.7037677E+002
3	0	1.616605992038239E+002	2.6064053E-001	-2.7036618E+002
3	0	1.621605991911929E+002	2.6015231E-001	-2.7037326E+002
3	0	1.626605991785618E+002	2.5971287E-001	-2.7038031E+002
3	0	1.631605991659308E+002	2.5926673E-001	-2.7039447E+002
3	0	1.636605991532997E+002	2.5882611E-001	-2.7035559E+002
3	0	1.641605991406686E+002	2.5838688E-001	-2.7039093E+002
3	0	1.646605991280376E+002	2.5795579E-001	-2.7037677E+002
3	0	1.651605991154065E+002	2.5751698E-001	-2.7038385E+002
3	0	1.656605991027755E+002	2.5705469E-001	-2.7035559E+002
3	0	1.661605990901444E+002	2.5659984E-001	-2.7037677E+002
3	0	1.666605990775133E+002	2.5619259E-001	-2.7038742E+002
3	0	1.671605990648823E+002	2.5577465E-001	-2.7037326E+002
3	0	1.676605990522512E+002	2.5536036E-001	-2.7036972E+002
3	0	1.681605990396201E+002	2.5495070E-001	-2.7036267E+002
3	0	1.686605990269891E+002	2.5454563E-001	-2.7039093E+002
3	0	1.691605990143580E+002	2.5414309E-001	-2.7035913E+002
3	0	1.696605990017270E+002	2.5371721E-001	-2.7039447E+002
3	0	1.701605989890959E+002	2.5328678E-001	-2.7037677E+002
3	0	1.706605989764648E+002	2.5290847E-001	-2.7038031E+002
3	0	1.711605989638338E+002	2.5252146E-001	-2.7039093E+002
3	0	1.716605989512027E+002	2.5213331E-001	-2.7038385E+002
3	0	1.721605989385716E+002	2.5175157E-001	-2.7038031E+002
3	0	1.726605989259406E+002	2.5137424E-001	-2.7036972E+002
3	0	1.731605989133095E+002	2.5098673E-001	-2.7038385E+002
3	0	1.736605989006785E+002	2.5058743E-001	-2.7037326E+002
3	0	1.741605988880474E+002	2.5019664E-001	-2.7039093E+002
3	0	1.746605988754163E+002	2.4984044E-001	-2.7040155E+002
3	0	1.751605988627853E+002	2.4948607E-001	-2.7036618E+002
3	0	1.756605988501542E+002	2.4913241E-001	-2.7037326E+002
3	0	1.761605988375231E+002	2.4877870E-001	-2.7036267E+002
3	0	1.766605988248921E+002	2.4843200E-001	-2.7038031E+002
3	0	1.771605988122610E+002	2.4807559E-001	-2.7036267E+002
3	0	1.776605987996300E+002	2.4771020E-001	-2.7035913E+002
3	0	1.781605987869989E+002	2.4734315E-001	-2.7039093E+002
3	0	1.786605987743678E+002	2.4701281E-001	-2.7037326E+002
3	0	1.791605987617368E+002	2.4668691E-001	-2.7036972E+002
3	0	1.796605987491057E+002	2.4636067E-001	-2.7036618E+002
3	0	1.801605987364746E+002	2.4603568E-001	-2.7037326E+002
3	0	1.801869987358077E+002	2.4586502E-001	-2.7038385E+002