EC-Lab ASCII FILE
Nb header lines : 55                          

Open Circuit Voltage

Run on channel : 1 (SN 81504)
User : 
CE vs. WE compliance from -10 V to 10 V
Electrode connection : standard
Potential control : Ewe
Ewe ctrl range : min = -2.50 V, max = 2.50 V
Safety Limits :
	Do not start on E overload
Acquisition started on : 05/07/2026 16:01:37.735
Loaded Setting File :  C:\PEM-WE_measurements\2026\372_IV_IV IrOx, 5 min Pt, 30 min C, etched cathode\new station\Loopeis new\1,46 V different time gaps open cell\Loopeis 1,46V_45s_4_PEIS from 650Hz to 100Hz.mps
Saved on :
	File : L_09_Loopeis 1,46V_45s_4_PEIS from 650Hz to 100Hz_20_OCV_C01.mpr
	Directory : C:\PEM-WE_measurements\2026\372_IV_IV IrOx, 5 min Pt, 30 min C, etched cathode\new station\Loopeis new\1,46 V different time gaps open cell\
	Host : 192.168.0.2
Device : SP-150e (SN .005491)
Address : 192.168.0.91
EC-LAB for windows v11.71 (software)
Internet server v28.00 (firmware)
Command interpretor v14.01 (firmware)
Electrode material : 
Initial state : 
Electrolyte : 
Comments : 
Current amplifier : SP-150eB-20A
Electrode surface area : 0.001 cm²
Characteristic mass : 0.001 g
Equivalent Weight : 0.000 g/eq.
Density : 0.000 g/cm3
Volume (V) : 0.001 cm³
Record Analogic IN 1
Text export
   Mode : Standard
   Time format : Elapsed
Cycle Definition : Charge/Discharge alternance
External device configuration :
   device type : Temperature Probe
   device name : Other
   Analog IN 1 : 
      unit : T/Â°C
      max : 100.000 at 2.000 V
      min : 0.000 at 1.460 V
tR (h:m:s)          0:00:45.0000        
dER/dt (mV/h)       1.0                 
record              <Ewe>               
dER (mV)            10.00               
dtR (s)             0.5000              
E range min (V)     -2.500              
E range max (V)     2.500               

mode	error	time/s	<Ewe/V>	Analog IN 1/V	
3	0	8.640715951674792E+002	1.0682707E+000	-2.7038031E+002
3	0	8.645715951548482E+002	1.2263150E+000	-2.7039093E+002
3	0	8.650715951422171E+002	1.1915206E+000	-2.7038031E+002
3	0	8.655715951295861E+002	1.1146013E+000	-2.7037677E+002
3	0	8.660715951169550E+002	8.5263616E-001	-2.7039447E+002
3	0	8.665715951043239E+002	4.3474284E-001	-2.7039801E+002
3	0	8.670715950916929E+002	3.3132648E-001	-2.7035559E+002
3	0	8.675715950790618E+002	3.1809816E-001	-2.7039093E+002
3	0	8.680715950664307E+002	3.1009975E-001	-2.7036972E+002
3	0	8.685715950537997E+002	3.0359343E-001	-2.7038385E+002
3	0	8.690715950411686E+002	2.9859564E-001	-2.7038385E+002
3	0	8.695715950285376E+002	2.9475078E-001	-2.7038742E+002
3	0	8.700715950159065E+002	2.9173622E-001	-2.7038742E+002
3	0	8.705715950032754E+002	2.8929928E-001	-2.7038742E+002
3	0	8.710715949906444E+002	2.8732985E-001	-2.7039447E+002
3	0	8.715715949780133E+002	2.8567421E-001	-2.7036972E+002
3	0	8.720715949653822E+002	2.8425911E-001	-2.7038385E+002
3	0	8.725715949527512E+002	2.8301474E-001	-2.7037677E+002
3	0	8.730715949401201E+002	2.8190780E-001	-2.7041919E+002
3	0	8.735715949274891E+002	2.8088900E-001	-2.7038385E+002
3	0	8.740715949148580E+002	2.7993494E-001	-2.7036267E+002
3	0	8.745715949022269E+002	2.7905065E-001	-2.7037677E+002
3	0	8.750715948895959E+002	2.7825567E-001	-2.7035913E+002
3	0	8.755715948769648E+002	2.7751178E-001	-2.7040155E+002
3	0	8.760715948643337E+002	2.7680859E-001	-2.7038385E+002
3	0	8.765715948517027E+002	2.7613401E-001	-2.7038385E+002
3	0	8.770715948390716E+002	2.7548236E-001	-2.7038742E+002
3	0	8.775715948264406E+002	2.7484107E-001	-2.7039093E+002
3	0	8.780715948138095E+002	2.7419901E-001	-2.7036618E+002
3	0	8.785715948011784E+002	2.7356303E-001	-2.7038031E+002
3	0	8.790715947885474E+002	2.7297875E-001	-2.7036618E+002
3	0	8.795715947759163E+002	2.7241606E-001	-2.7038031E+002
3	0	8.800715947632852E+002	2.7186626E-001	-2.7038742E+002
3	0	8.805715947506542E+002	2.7131233E-001	-2.7038742E+002
3	0	8.810715947380231E+002	2.7077049E-001	-2.7036618E+002
3	0	8.815715947253921E+002	2.7021649E-001	-2.7036972E+002
3	0	8.820715947127610E+002	2.6966840E-001	-2.7038385E+002
3	0	8.825715947001299E+002	2.6911610E-001	-2.7036972E+002
3	0	8.830715946874989E+002	2.6859891E-001	-2.7037677E+002
3	0	8.835715946748678E+002	2.6809704E-001	-2.7036972E+002
3	0	8.840715946622367E+002	2.6759332E-001	-2.7035913E+002
3	0	8.845715946496057E+002	2.6709694E-001	-2.7040155E+002
3	0	8.850715946369746E+002	2.6660094E-001	-2.7036972E+002
3	0	8.855715946243436E+002	2.6609549E-001	-2.7039447E+002
3	0	8.860715946117125E+002	2.6557809E-001	-2.7038031E+002
3	0	8.865715945990814E+002	2.6505005E-001	-2.7036618E+002
3	0	8.870715945864504E+002	2.6457238E-001	-2.7036972E+002
3	0	8.875715945738193E+002	2.6410505E-001	-2.7036618E+002
3	0	8.880715945611882E+002	2.6363438E-001	-2.7037326E+002
3	0	8.885715945485572E+002	2.6316851E-001	-2.7037677E+002
3	0	8.890715945359261E+002	2.6270026E-001	-2.7035559E+002
3	0	8.895715945232951E+002	2.6223022E-001	-2.7038742E+002
3	0	8.900715945106640E+002	2.6174539E-001	-2.7037677E+002
3	0	8.905715944980329E+002	2.6125905E-001	-2.7035913E+002
3	0	8.910715944854019E+002	2.6081437E-001	-2.7038031E+002
3	0	8.915715944727708E+002	2.6037389E-001	-2.7037677E+002
3	0	8.920715944601398E+002	2.5993475E-001	-2.7036267E+002
3	0	8.925715944475087E+002	2.5950158E-001	-2.7038031E+002
3	0	8.930715944348776E+002	2.5907132E-001	-2.7039447E+002
3	0	8.935715944222466E+002	2.5863090E-001	-2.7037677E+002
3	0	8.940715944096155E+002	2.5817180E-001	-2.7035559E+002
3	0	8.945715943969844E+002	2.5771266E-001	-2.7038385E+002
3	0	8.950715943843534E+002	2.5729346E-001	-2.7034143E+002
3	0	8.955715943717223E+002	2.5688219E-001	-2.7039801E+002
3	0	8.960715943590913E+002	2.5647873E-001	-2.7037326E+002
3	0	8.965715943464602E+002	2.5607216E-001	-2.7038385E+002
3	0	8.970715943338291E+002	2.5566950E-001	-2.7037677E+002
3	0	8.975715943211981E+002	2.5525793E-001	-2.7040860E+002
3	0	8.980715943085670E+002	2.5483677E-001	-2.7037677E+002
3	0	8.985715942959359E+002	2.5441343E-001	-2.7036618E+002
3	0	8.990715942833049E+002	2.5402781E-001	-2.7040506E+002
3	0	8.995715942706738E+002	2.5365129E-001	-2.7039093E+002
3	0	9.000715942580428E+002	2.5326854E-001	-2.7039093E+002
3	0	9.005715942454117E+002	2.5289413E-001	-2.7037677E+002
3	0	9.010715942327806E+002	2.5251853E-001	-2.7035913E+002
3	0	9.015715942201496E+002	2.5213179E-001	-2.7039447E+002
3	0	9.020715942075185E+002	2.5172406E-001	-2.7037677E+002
3	0	9.025715941948874E+002	2.5132236E-001	-2.7037326E+002
3	0	9.030715941822564E+002	2.5096285E-001	-2.7039801E+002
3	0	9.035715941696253E+002	2.5061285E-001	-2.7037677E+002
3	0	9.040715941569943E+002	2.5026006E-001	-2.7038385E+002
3	0	9.045715941443632E+002	2.4990460E-001	-2.7039447E+002
3	0	9.050715941317321E+002	2.4955977E-001	-2.7038742E+002
3	0	9.055715941191011E+002	2.4920186E-001	-2.7038031E+002
3	0	9.060715941064700E+002	2.4883018E-001	-2.7038031E+002
3	0	9.065715940938389E+002	2.4846278E-001	-2.7036972E+002
3	0	9.070715940812079E+002	2.4814044E-001	-2.7037326E+002
3	0	9.075715940685768E+002	2.4782704E-001	-2.7038031E+002
3	0	9.080715940559458E+002	2.4750435E-001	-2.7035913E+002
3	0	9.085715940433147E+002	2.4718201E-001	-2.7038742E+002
3	0	9.085961940426932E+002	2.4701089E-001	-2.7037677E+002