EC-Lab ASCII FILE
Nb header lines : 55                          

Open Circuit Voltage

Run on channel : 1 (SN 81504)
User : 
CE vs. WE compliance from -10 V to 10 V
Electrode connection : standard
Potential control : Ewe
Ewe ctrl range : min = -2.50 V, max = 2.50 V
Safety Limits :
	Do not start on E overload
Acquisition started on : 05/07/2026 16:01:37.735
Loaded Setting File :  C:\PEM-WE_measurements\2026\372_IV_IV IrOx, 5 min Pt, 30 min C, etched cathode\new station\Loopeis new\1,46 V different time gaps open cell\Loopeis 1,46V_45s_4_PEIS from 650Hz to 100Hz.mps
Saved on :
	File : L_09_Loopeis 1,46V_45s_4_PEIS from 650Hz to 100Hz_16_OCV_C01.mpr
	Directory : C:\PEM-WE_measurements\2026\372_IV_IV IrOx, 5 min Pt, 30 min C, etched cathode\new station\Loopeis new\1,46 V different time gaps open cell\
	Host : 192.168.0.2
Device : SP-150e (SN .005491)
Address : 192.168.0.91
EC-LAB for windows v11.71 (software)
Internet server v28.00 (firmware)
Command interpretor v14.01 (firmware)
Electrode material : 
Initial state : 
Electrolyte : 
Comments : 
Current amplifier : SP-150eB-20A
Electrode surface area : 0.001 cm²
Characteristic mass : 0.001 g
Equivalent Weight : 0.000 g/eq.
Density : 0.000 g/cm3
Volume (V) : 0.001 cm³
Record Analogic IN 1
Text export
   Mode : Standard
   Time format : Elapsed
Cycle Definition : Charge/Discharge alternance
External device configuration :
   device type : Temperature Probe
   device name : Other
   Analog IN 1 : 
      unit : T/Â°C
      max : 100.000 at 2.000 V
      min : 0.000 at 1.460 V
tR (h:m:s)          0:00:45.0000        
dER/dt (mV/h)       1.0                 
record              <Ewe>               
dER (mV)            10.00               
dtR (s)             0.5000              
E range min (V)     -2.500              
E range max (V)     2.500               

mode	error	time/s	<Ewe/V>	Analog IN 1/V	
3	0	6.798367962395423E+002	1.0695479E+000	-2.7036618E+002
3	0	6.803367962269112E+002	1.2262523E+000	-2.7041214E+002
3	0	6.808367962142802E+002	1.1917115E+000	-2.7039093E+002
3	0	6.813367962016491E+002	1.1154047E+000	-2.7038385E+002
3	0	6.818367961890181E+002	8.6114067E-001	-2.7036267E+002
3	0	6.823367961763870E+002	4.3951380E-001	-2.7038385E+002
3	0	6.828367961637559E+002	3.3023551E-001	-2.7038031E+002
3	0	6.833367961511249E+002	3.1662214E-001	-2.7040155E+002
3	0	6.838367961384938E+002	3.0873758E-001	-2.7036618E+002
3	0	6.843367961258627E+002	3.0225530E-001	-2.7040860E+002
3	0	6.848367961132317E+002	2.9725373E-001	-2.7035559E+002
3	0	6.853367961006006E+002	2.9341188E-001	-2.7041919E+002
3	0	6.858367960879696E+002	2.9038322E-001	-2.7038385E+002
3	0	6.863367960753385E+002	2.8794840E-001	-2.7037326E+002
3	0	6.868367960627074E+002	2.8595364E-001	-2.7037677E+002
3	0	6.873367960500764E+002	2.8429562E-001	-2.7036972E+002
3	0	6.878367960374453E+002	2.8286341E-001	-2.7038742E+002
3	0	6.883367960248142E+002	2.8162357E-001	-2.7036972E+002
3	0	6.888367960121832E+002	2.8051841E-001	-2.7037326E+002
3	0	6.893367959995521E+002	2.7952024E-001	-2.7039093E+002
3	0	6.898367959869211E+002	2.7859169E-001	-2.7040155E+002
3	0	6.903367959742900E+002	2.7771613E-001	-2.7039447E+002
3	0	6.908367959616589E+002	2.7691221E-001	-2.7037677E+002
3	0	6.913367959490279E+002	2.7616522E-001	-2.7037326E+002
3	0	6.918367959363968E+002	2.7545750E-001	-2.7039093E+002
3	0	6.923367959237657E+002	2.7478251E-001	-2.7034497E+002
3	0	6.928367959111347E+002	2.7413952E-001	-2.7034143E+002
3	0	6.933367958985036E+002	2.7350774E-001	-2.7038031E+002
3	0	6.938367958858726E+002	2.7287310E-001	-2.7037677E+002
3	0	6.943367958732415E+002	2.7224401E-001	-2.7036972E+002
3	0	6.948367958606104E+002	2.7164438E-001	-2.7037326E+002
3	0	6.953367958479794E+002	2.7107242E-001	-2.7038385E+002
3	0	6.958367958353483E+002	2.7050817E-001	-2.7035205E+002
3	0	6.963367958227172E+002	2.6995400E-001	-2.7035913E+002
3	0	6.968367958100862E+002	2.6942167E-001	-2.7037677E+002
3	0	6.973367957974551E+002	2.6888573E-001	-2.7036618E+002
3	0	6.978367957848241E+002	2.6833951E-001	-2.7038742E+002
3	0	6.983367957721930E+002	2.6778331E-001	-2.7036618E+002
3	0	6.988367957595619E+002	2.6724887E-001	-2.7036267E+002
3	0	6.993367957469309E+002	2.6675013E-001	-2.7037677E+002
3	0	6.998367957342998E+002	2.6623744E-001	-2.7035559E+002
3	0	7.003367957216688E+002	2.6573822E-001	-2.7038742E+002
3	0	7.008367957090377E+002	2.6524022E-001	-2.7036972E+002
3	0	7.013367956964066E+002	2.6474169E-001	-2.7036618E+002
3	0	7.018367956837756E+002	2.6424077E-001	-2.7039447E+002
3	0	7.023367956711445E+002	2.6372311E-001	-2.7038385E+002
3	0	7.028367956585134E+002	2.6323161E-001	-2.7041214E+002
3	0	7.033367956458824E+002	2.6276448E-001	-2.7038385E+002
3	0	7.038367956332513E+002	2.6228935E-001	-2.7037326E+002
3	0	7.043367956206203E+002	2.6182321E-001	-2.7038031E+002
3	0	7.048367956079892E+002	2.6135784E-001	-2.7038742E+002
3	0	7.053367955953581E+002	2.6089582E-001	-2.7036618E+002
3	0	7.058367955827271E+002	2.6042587E-001	-2.7036972E+002
3	0	7.063367955700960E+002	2.5993735E-001	-2.7036267E+002
3	0	7.068367955574649E+002	2.5947490E-001	-2.7037677E+002
3	0	7.073367955448339E+002	2.5904045E-001	-2.7037326E+002
3	0	7.078367955322028E+002	2.5859356E-001	-2.7041568E+002
3	0	7.083367955195718E+002	2.5815839E-001	-2.7038031E+002
3	0	7.088367955069407E+002	2.5772747E-001	-2.7033438E+002
3	0	7.093367954943096E+002	2.5729895E-001	-2.7036618E+002
3	0	7.098367954816786E+002	2.5685197E-001	-2.7040506E+002
3	0	7.103367954690475E+002	2.5639930E-001	-2.7035913E+002
3	0	7.108367954564164E+002	2.5596324E-001	-2.7038742E+002
3	0	7.113367954437854E+002	2.5555319E-001	-2.7036618E+002
3	0	7.118367954311543E+002	2.5513855E-001	-2.7037677E+002
3	0	7.123367954185233E+002	2.5473455E-001	-2.7037677E+002
3	0	7.128367954058922E+002	2.5433198E-001	-2.7039093E+002
3	0	7.133367953932611E+002	2.5393218E-001	-2.7038385E+002
3	0	7.138367953806301E+002	2.5351736E-001	-2.7036267E+002
3	0	7.143367953679990E+002	2.5308514E-001	-2.7040860E+002
3	0	7.148367953553679E+002	2.5267613E-001	-2.7037677E+002
3	0	7.153367953427369E+002	2.5229752E-001	-2.7039447E+002
3	0	7.158367953301058E+002	2.5191244E-001	-2.7039447E+002
3	0	7.163367953174748E+002	2.5153717E-001	-2.7038385E+002
3	0	7.168367953048437E+002	2.5116360E-001	-2.7039447E+002
3	0	7.173367952922126E+002	2.5078422E-001	-2.7039093E+002
3	0	7.178367952795816E+002	2.5039753E-001	-2.7037326E+002
3	0	7.183367952669505E+002	2.5000322E-001	-2.7038742E+002
3	0	7.188367952543194E+002	2.4963094E-001	-2.7035559E+002
3	0	7.193367952416884E+002	2.4928619E-001	-2.7037326E+002
3	0	7.198367952290573E+002	2.4893259E-001	-2.7039093E+002
3	0	7.203367952164263E+002	2.4858463E-001	-2.7036972E+002
3	0	7.208367952037952E+002	2.4823888E-001	-2.7039447E+002
3	0	7.213367951911641E+002	2.4789579E-001	-2.7038031E+002
3	0	7.218367951785331E+002	2.4754007E-001	-2.7038742E+002
3	0	7.223367951659020E+002	2.4716486E-001	-2.7039093E+002
3	0	7.228367951532709E+002	2.4682023E-001	-2.7038742E+002
3	0	7.233367951406399E+002	2.4650651E-001	-2.7038385E+002
3	0	7.238367951280088E+002	2.4617806E-001	-2.7034851E+002
3	0	7.243367951153778E+002	2.4585862E-001	-2.7037326E+002
3	0	7.243623951147310E+002	2.4569669E-001	-2.7037677E+002