EC-Lab ASCII FILE
Nb header lines : 55                          

Open Circuit Voltage

Run on channel : 1 (SN 81504)
User : 
CE vs. WE compliance from -10 V to 10 V
Electrode connection : standard
Potential control : Ewe
Ewe ctrl range : min = -2.50 V, max = 2.50 V
Safety Limits :
	Do not start on E overload
Acquisition started on : 05/07/2026 16:01:37.735
Loaded Setting File :  C:\PEM-WE_measurements\2026\372_IV_IV IrOx, 5 min Pt, 30 min C, etched cathode\new station\Loopeis new\1,46 V different time gaps open cell\Loopeis 1,46V_45s_4_PEIS from 650Hz to 100Hz.mps
Saved on :
	File : L_09_Loopeis 1,46V_45s_4_PEIS from 650Hz to 100Hz_10_OCV_C01.mpr
	Directory : C:\PEM-WE_measurements\2026\372_IV_IV IrOx, 5 min Pt, 30 min C, etched cathode\new station\Loopeis new\1,46 V different time gaps open cell\
	Host : 192.168.0.2
Device : SP-150e (SN .005491)
Address : 192.168.0.91
EC-LAB for windows v11.71 (software)
Internet server v28.00 (firmware)
Command interpretor v14.01 (firmware)
Electrode material : 
Initial state : 
Electrolyte : 
Comments : 
Current amplifier : SP-150eB-20A
Electrode surface area : 0.001 cm²
Characteristic mass : 0.001 g
Equivalent Weight : 0.000 g/eq.
Density : 0.000 g/cm3
Volume (V) : 0.001 cm³
Record Analogic IN 1
Text export
   Mode : Standard
   Time format : Elapsed
Cycle Definition : Charge/Discharge alternance
External device configuration :
   device type : Temperature Probe
   device name : Other
   Analog IN 1 : 
      unit : T/Â°C
      max : 100.000 at 2.000 V
      min : 0.000 at 1.460 V
tR (h:m:s)          0:00:45.0000        
dER/dt (mV/h)       1.0                 
record              <Ewe>               
dER (mV)            10.00               
dtR (s)             0.5000              
E range min (V)     -2.500              
E range max (V)     2.500               

mode	error	time/s	<Ewe/V>	Analog IN 1/V	
3	0	4.054533963021095E+002	1.2770109E+000	-2.7036972E+002
3	0	4.059533962894784E+002	1.2721349E+000	-2.7036267E+002
3	0	4.064533962768473E+002	1.2365842E+000	-2.7040155E+002
3	0	4.069533962642163E+002	1.1636856E+000	-2.7037326E+002
3	0	4.074533962515852E+002	9.2752701E-001	-2.7035913E+002
3	0	4.079533962389542E+002	4.7726965E-001	-2.7037677E+002
3	0	4.084533962263231E+002	3.5912904E-001	-2.7034851E+002
3	0	4.089533962136920E+002	3.4259731E-001	-2.7036618E+002
3	0	4.094533962010610E+002	3.3349606E-001	-2.7039093E+002
3	0	4.099533961884299E+002	3.2636380E-001	-2.7039801E+002
3	0	4.104533961757988E+002	3.2097295E-001	-2.7037677E+002
3	0	4.109533961631678E+002	3.1688312E-001	-2.7035205E+002
3	0	4.114533961505367E+002	3.1370845E-001	-2.7035913E+002
3	0	4.119533961379057E+002	3.1115609E-001	-2.7036618E+002
3	0	4.124533961252746E+002	3.0905956E-001	-2.7040860E+002
3	0	4.129533961126435E+002	3.0728552E-001	-2.7039447E+002
3	0	4.134533961000125E+002	3.0575433E-001	-2.7037677E+002
3	0	4.139533960873814E+002	3.0440214E-001	-2.7038031E+002
3	0	4.144533960747503E+002	3.0317152E-001	-2.7035913E+002
3	0	4.149533960621193E+002	3.0206072E-001	-2.7036267E+002
3	0	4.154533960494882E+002	3.0107030E-001	-2.7037677E+002
3	0	4.159533960368572E+002	3.0014655E-001	-2.7036972E+002
3	0	4.164533960242261E+002	2.9929072E-001	-2.7035559E+002
3	0	4.169533960115950E+002	2.9848185E-001	-2.7035559E+002
3	0	4.174533959989640E+002	2.9771337E-001	-2.7036972E+002
3	0	4.179533959863329E+002	2.9696083E-001	-2.7035559E+002
3	0	4.184533959737018E+002	2.9621518E-001	-2.7039801E+002
3	0	4.189533959610708E+002	2.9550883E-001	-2.7038742E+002
3	0	4.194533959484397E+002	2.9484111E-001	-2.7037677E+002
3	0	4.199533959358087E+002	2.9418737E-001	-2.7036972E+002
3	0	4.204533959231776E+002	2.9356515E-001	-2.7037677E+002
3	0	4.209533959105465E+002	2.9295310E-001	-2.7036267E+002
3	0	4.214533958979155E+002	2.9235119E-001	-2.7039447E+002
3	0	4.219533958852844E+002	2.9174748E-001	-2.7038742E+002
3	0	4.224533958726533E+002	2.9112408E-001	-2.7034497E+002
3	0	4.229533958600223E+002	2.9051986E-001	-2.7039093E+002
3	0	4.234533958473912E+002	2.8996238E-001	-2.7038385E+002
3	0	4.239533958347602E+002	2.8939676E-001	-2.7037677E+002
3	0	4.244533958221291E+002	2.8884700E-001	-2.7036618E+002
3	0	4.249533958094980E+002	2.8830546E-001	-2.7038742E+002
3	0	4.254533957968670E+002	2.8776571E-001	-2.7038385E+002
3	0	4.259533957842359E+002	2.8721666E-001	-2.7036618E+002
3	0	4.264533957716048E+002	2.8665411E-001	-2.7036972E+002
3	0	4.269533957589738E+002	2.8610533E-001	-2.7037677E+002
3	0	4.274533957463427E+002	2.8559315E-001	-2.7036618E+002
3	0	4.279533957337117E+002	2.8507838E-001	-2.7039447E+002
3	0	4.284533957210806E+002	2.8457418E-001	-2.7036267E+002
3	0	4.289533957084495E+002	2.8407469E-001	-2.7037326E+002
3	0	4.294533956958185E+002	2.8355083E-001	-2.7038742E+002
3	0	4.299533956831874E+002	2.8302434E-001	-2.7039447E+002
3	0	4.304533956705563E+002	2.8251520E-001	-2.7035913E+002
3	0	4.309533956579253E+002	2.8202349E-001	-2.7036267E+002
3	0	4.314533956452942E+002	2.8155333E-001	-2.7038031E+002
3	0	4.319533956326632E+002	2.8108492E-001	-2.7038031E+002
3	0	4.324533956200321E+002	2.8061697E-001	-2.7037326E+002
3	0	4.329533956074010E+002	2.8014997E-001	-2.7035913E+002
3	0	4.334533955947700E+002	2.7968940E-001	-2.7040155E+002
3	0	4.339533955821389E+002	2.7921158E-001	-2.7039801E+002
3	0	4.344533955695078E+002	2.7872270E-001	-2.7039447E+002
3	0	4.349533955568768E+002	2.7824318E-001	-2.7037677E+002
3	0	4.354533955442457E+002	2.7780551E-001	-2.7035913E+002
3	0	4.359533955316147E+002	2.7737150E-001	-2.7037326E+002
3	0	4.364533955189836E+002	2.7693626E-001	-2.7036618E+002
3	0	4.369533955063525E+002	2.7649716E-001	-2.7039447E+002
3	0	4.374533954937215E+002	2.7606651E-001	-2.7038742E+002
3	0	4.379533954810904E+002	2.7561462E-001	-2.7037677E+002
3	0	4.384533954684593E+002	2.7515709E-001	-2.7040506E+002
3	0	4.389533954558283E+002	2.7471793E-001	-2.7036618E+002
3	0	4.394533954431972E+002	2.7431747E-001	-2.7036618E+002
3	0	4.399533954305662E+002	2.7391660E-001	-2.7041568E+002
3	0	4.404533954179351E+002	2.7351388E-001	-2.7037677E+002
3	0	4.409533954053040E+002	2.7311578E-001	-2.7039447E+002
3	0	4.414533953926730E+002	2.7270758E-001	-2.7038385E+002
3	0	4.419533953800419E+002	2.7230209E-001	-2.7036972E+002
3	0	4.424533953674108E+002	2.7187836E-001	-2.7037326E+002
3	0	4.429533953547798E+002	2.7146351E-001	-2.7036618E+002
3	0	4.434533953421487E+002	2.7109218E-001	-2.7038385E+002
3	0	4.439533953295177E+002	2.7072719E-001	-2.7038031E+002
3	0	4.444533953168866E+002	2.7035272E-001	-2.7038385E+002
3	0	4.449533953042555E+002	2.6998445E-001	-2.7039801E+002
3	0	4.454533952916245E+002	2.6961586E-001	-2.7039801E+002
3	0	4.459533952789934E+002	2.6923856E-001	-2.7036618E+002
3	0	4.464533952663624E+002	2.6883534E-001	-2.7034497E+002
3	0	4.469533952537313E+002	2.6845601E-001	-2.7038031E+002
3	0	4.474533952411002E+002	2.6811847E-001	-2.7038385E+002
3	0	4.479533952284692E+002	2.6777306E-001	-2.7036972E+002
3	0	4.484533952158381E+002	2.6742926E-001	-2.7038385E+002
3	0	4.489533952032070E+002	2.6708731E-001	-2.7038031E+002
3	0	4.494533951905760E+002	2.6674134E-001	-2.7039093E+002
3	0	4.499533951779449E+002	2.6638529E-001	-2.7035913E+002
3	0	4.499537951779348E+002	2.6626581E-001	-2.7036972E+002