EC-Lab ASCII FILE
Nb header lines : 55                          

Open Circuit Voltage

Run on channel : 1 (SN 81504)
User : 
CE vs. WE compliance from -10 V to 10 V
Electrode connection : standard
Potential control : Ewe
Ewe ctrl range : min = -2.50 V, max = 2.50 V
Safety Limits :
	Do not start on E overload
Acquisition started on : 05/07/2026 16:01:37.735
Loaded Setting File :  C:\PEM-WE_measurements\2026\372_IV_IV IrOx, 5 min Pt, 30 min C, etched cathode\new station\Loopeis new\1,46 V different time gaps open cell\Loopeis 1,46V_45s_4_PEIS from 650Hz to 100Hz.mps
Saved on :
	File : L_09_Loopeis 1,46V_45s_4_PEIS from 650Hz to 100Hz_08_OCV_C01.mpr
	Directory : C:\PEM-WE_measurements\2026\372_IV_IV IrOx, 5 min Pt, 30 min C, etched cathode\new station\Loopeis new\1,46 V different time gaps open cell\
	Host : 192.168.0.2
Device : SP-150e (SN .005491)
Address : 192.168.0.91
EC-LAB for windows v11.71 (software)
Internet server v28.00 (firmware)
Command interpretor v14.01 (firmware)
Electrode material : 
Initial state : 
Electrolyte : 
Comments : 
Current amplifier : SP-150eB-20A
Electrode surface area : 0.001 cm²
Characteristic mass : 0.001 g
Equivalent Weight : 0.000 g/eq.
Density : 0.000 g/cm3
Volume (V) : 0.001 cm³
Record Analogic IN 1
Text export
   Mode : Standard
   Time format : Elapsed
Cycle Definition : Charge/Discharge alternance
External device configuration :
   device type : Temperature Probe
   device name : Other
   Analog IN 1 : 
      unit : T/Â°C
      max : 100.000 at 2.000 V
      min : 0.000 at 1.460 V
tR (h:m:s)          0:00:45.0000        
dER/dt (mV/h)       1.0                 
record              <Ewe>               
dER (mV)            10.00               
dtR (s)             0.5000              
E range min (V)     -2.500              
E range max (V)     2.500               

mode	error	time/s	<Ewe/V>	Analog IN 1/V	
3	0	3.154293985763070E+002	1.0706728E+000	-2.7037677E+002
3	0	3.159293985636759E+002	1.2260712E+000	-2.7039093E+002
3	0	3.164293985510449E+002	1.1911694E+000	-2.7037326E+002
3	0	3.169293985384138E+002	1.1142344E+000	-2.7036972E+002
3	0	3.174293985257827E+002	8.5416830E-001	-2.7035559E+002
3	0	3.179293985131517E+002	4.3472141E-001	-2.7038031E+002
3	0	3.184293985005206E+002	3.2928222E-001	-2.7038031E+002
3	0	3.189293984878896E+002	3.1612349E-001	-2.7039093E+002
3	0	3.194293984752585E+002	3.0831668E-001	-2.7036972E+002
3	0	3.199293984626274E+002	3.0191237E-001	-2.7039093E+002
3	0	3.204293984499964E+002	2.9696178E-001	-2.7034851E+002
3	0	3.209293984373653E+002	2.9315221E-001	-2.7035559E+002
3	0	3.214293984247342E+002	2.9015401E-001	-2.7037326E+002
3	0	3.219293984121032E+002	2.8773746E-001	-2.7034497E+002
3	0	3.224293983994721E+002	2.8573048E-001	-2.7038031E+002
3	0	3.229293983868411E+002	2.8404787E-001	-2.7038385E+002
3	0	3.234293983742100E+002	2.8262582E-001	-2.7037326E+002
3	0	3.239293983615789E+002	2.8137699E-001	-2.7036267E+002
3	0	3.244293983489479E+002	2.8026560E-001	-2.7038385E+002
3	0	3.249293983363168E+002	2.7926809E-001	-2.7040860E+002
3	0	3.254293983236857E+002	2.7835321E-001	-2.7039447E+002
3	0	3.259293983110547E+002	2.7749631E-001	-2.7040860E+002
3	0	3.264293982984236E+002	2.7667135E-001	-2.7036267E+002
3	0	3.269293982857926E+002	2.7589846E-001	-2.7039801E+002
3	0	3.274293982731615E+002	2.7520010E-001	-2.7038742E+002
3	0	3.279293982605304E+002	2.7452654E-001	-2.7038385E+002
3	0	3.284293982478994E+002	2.7387795E-001	-2.7037326E+002
3	0	3.289293982352683E+002	2.7324632E-001	-2.7037677E+002
3	0	3.294293982226372E+002	2.7263021E-001	-2.7037326E+002
3	0	3.299293982100062E+002	2.7202159E-001	-2.7033789E+002
3	0	3.304293981973751E+002	2.7140123E-001	-2.7036972E+002
3	0	3.309293981847441E+002	2.7080378E-001	-2.7037677E+002
3	0	3.314293981721130E+002	2.7024445E-001	-2.7036618E+002
3	0	3.319293981594819E+002	2.6969019E-001	-2.7035559E+002
3	0	3.324293981468509E+002	2.6915196E-001	-2.7036618E+002
3	0	3.329293981342198E+002	2.6860842E-001	-2.7037326E+002
3	0	3.334293981215887E+002	2.6808122E-001	-2.7038385E+002
3	0	3.339293981089577E+002	2.6754671E-001	-2.7036618E+002
3	0	3.344293980963266E+002	2.6699433E-001	-2.7037677E+002
3	0	3.349293980836956E+002	2.6645800E-001	-2.7036267E+002
3	0	3.354293980710645E+002	2.6595753E-001	-2.7040506E+002
3	0	3.359293980584334E+002	2.6545304E-001	-2.7039093E+002
3	0	3.364293980458024E+002	2.6495472E-001	-2.7038742E+002
3	0	3.369293980331713E+002	2.6447052E-001	-2.7039093E+002
3	0	3.374293980205402E+002	2.6398346E-001	-2.7038385E+002
3	0	3.379293980079092E+002	2.6348841E-001	-2.7036267E+002
3	0	3.384293979952781E+002	2.6297519E-001	-2.7035913E+002
3	0	3.389293979826471E+002	2.6247573E-001	-2.7035913E+002
3	0	3.394293979700160E+002	2.6201427E-001	-2.7036618E+002
3	0	3.399293979573849E+002	2.6154220E-001	-2.7036618E+002
3	0	3.404293979447539E+002	2.6107737E-001	-2.7038742E+002
3	0	3.409293979321228E+002	2.6062033E-001	-2.7038742E+002
3	0	3.414293979194917E+002	2.6015821E-001	-2.7039093E+002
3	0	3.419293979068607E+002	2.5969258E-001	-2.7036972E+002
3	0	3.424293978942296E+002	2.5921780E-001	-2.7038385E+002
3	0	3.429293978815986E+002	2.5874922E-001	-2.7038385E+002
3	0	3.434293978689675E+002	2.5831857E-001	-2.7036972E+002
3	0	3.439293978563364E+002	2.5788209E-001	-2.7035559E+002
3	0	3.444293978437054E+002	2.5744477E-001	-2.7038742E+002
3	0	3.449293978310743E+002	2.5701568E-001	-2.7039093E+002
3	0	3.454293978184432E+002	2.5659156E-001	-2.7037326E+002
3	0	3.459293978058122E+002	2.5615844E-001	-2.7036972E+002
3	0	3.464293977931811E+002	2.5570682E-001	-2.7038031E+002
3	0	3.469293977805501E+002	2.5526795E-001	-2.7035559E+002
3	0	3.474293977679190E+002	2.5486636E-001	-2.7036267E+002
3	0	3.479293977552879E+002	2.5446376E-001	-2.7038385E+002
3	0	3.484293977426569E+002	2.5405905E-001	-2.7037677E+002
3	0	3.489293977300258E+002	2.5365788E-001	-2.7038385E+002
3	0	3.494293977173948E+002	2.5325912E-001	-2.7037677E+002
3	0	3.499293977047637E+002	2.5285658E-001	-2.7038742E+002
3	0	3.504293976921326E+002	2.5243220E-001	-2.7038742E+002
3	0	3.509293976795016E+002	2.5201988E-001	-2.7037326E+002
3	0	3.514293976668705E+002	2.5164440E-001	-2.7039093E+002
3	0	3.519293976542394E+002	2.5126275E-001	-2.7038031E+002
3	0	3.524293976416084E+002	2.5089008E-001	-2.7035913E+002
3	0	3.529293976289773E+002	2.5051892E-001	-2.7039093E+002
3	0	3.534293976163463E+002	2.5015116E-001	-2.7036972E+002
3	0	3.539293976037152E+002	2.4977611E-001	-2.7039093E+002
3	0	3.544293975910841E+002	2.4938461E-001	-2.7039447E+002
3	0	3.549293975784531E+002	2.4900995E-001	-2.7038385E+002
3	0	3.554293975658220E+002	2.4867362E-001	-2.7038031E+002
3	0	3.559293975531909E+002	2.4832003E-001	-2.7039801E+002
3	0	3.564293975405599E+002	2.4798101E-001	-2.7038385E+002
3	0	3.569293975279288E+002	2.4764314E-001	-2.7039447E+002
3	0	3.574293975152978E+002	2.4730338E-001	-2.7037677E+002
3	0	3.579293975026667E+002	2.4695076E-001	-2.7038385E+002
3	0	3.584293974900356E+002	2.4658878E-001	-2.7038031E+002
3	0	3.589293974774046E+002	2.4623837E-001	-2.7038742E+002
3	0	3.594293974647735E+002	2.4592444E-001	-2.7039093E+002
3	0	3.599293974521424E+002	2.4560389E-001	-2.7036972E+002
3	0	3.599527974515513E+002	2.4543937E-001	-2.7038031E+002