EC-Lab ASCII FILE
Nb header lines : 55                          

Open Circuit Voltage

Run on channel : 1 (SN 81504)
User : 
CE vs. WE compliance from -10 V to 10 V
Electrode connection : standard
Potential control : Ewe
Ewe ctrl range : min = -2.50 V, max = 2.50 V
Safety Limits :
	Do not start on E overload
Acquisition started on : 05/07/2026 16:01:37.735
Loaded Setting File :  C:\PEM-WE_measurements\2026\372_IV_IV IrOx, 5 min Pt, 30 min C, etched cathode\new station\Loopeis new\1,46 V different time gaps open cell\Loopeis 1,46V_45s_4_PEIS from 650Hz to 100Hz.mps
Saved on :
	File : L_09_Loopeis 1,46V_45s_4_PEIS from 650Hz to 100Hz_04_OCV_C01.mpr
	Directory : C:\PEM-WE_measurements\2026\372_IV_IV IrOx, 5 min Pt, 30 min C, etched cathode\new station\Loopeis new\1,46 V different time gaps open cell\
	Host : 192.168.0.2
Device : SP-150e (SN .005491)
Address : 192.168.0.91
EC-LAB for windows v11.71 (software)
Internet server v28.00 (firmware)
Command interpretor v14.01 (firmware)
Electrode material : 
Initial state : 
Electrolyte : 
Comments : 
Current amplifier : SP-150eB-20A
Electrode surface area : 0.001 cm²
Characteristic mass : 0.001 g
Equivalent Weight : 0.000 g/eq.
Density : 0.000 g/cm3
Volume (V) : 0.001 cm³
Record Analogic IN 1
Text export
   Mode : Standard
   Time format : Elapsed
Cycle Definition : Charge/Discharge alternance
External device configuration :
   device type : Temperature Probe
   device name : Other
   Analog IN 1 : 
      unit : T/Â°C
      max : 100.000 at 2.000 V
      min : 0.000 at 1.460 V
tR (h:m:s)          0:00:45.0000        
dER/dt (mV/h)       1.0                 
record              <Ewe>               
dER (mV)            10.00               
dtR (s)             0.5000              
E range min (V)     -2.500              
E range max (V)     2.500               

mode	error	time/s	<Ewe/V>	Analog IN 1/V	
3	0	1.354425998502120E+002	1.0707312E+000	-2.7039093E+002
3	0	1.359425998375809E+002	1.2260354E+000	-2.7039093E+002
3	0	1.364425998249499E+002	1.1913428E+000	-2.7040506E+002
3	0	1.369425998123188E+002	1.1147896E+000	-2.7037677E+002
3	0	1.374425997996877E+002	8.5919440E-001	-2.7039801E+002
3	0	1.379425997870567E+002	4.3787166E-001	-2.7039093E+002
3	0	1.384425997744256E+002	3.2915005E-001	-2.7039447E+002
3	0	1.389425997617946E+002	3.1572184E-001	-2.7038031E+002
3	0	1.394425997491635E+002	3.0791470E-001	-2.7037677E+002
3	0	1.399425997365324E+002	3.0148181E-001	-2.7038385E+002
3	0	1.404425997239014E+002	2.9650295E-001	-2.7036972E+002
3	0	1.409425997112703E+002	2.9267487E-001	-2.7037677E+002
3	0	1.414425996986392E+002	2.8967512E-001	-2.7036972E+002
3	0	1.419425996860082E+002	2.8727135E-001	-2.7038031E+002
3	0	1.424425996733771E+002	2.8527457E-001	-2.7038742E+002
3	0	1.429425996607461E+002	2.8358182E-001	-2.7036267E+002
3	0	1.434425996481150E+002	2.8214556E-001	-2.7037326E+002
3	0	1.439425996354839E+002	2.8090197E-001	-2.7038385E+002
3	0	1.444425996228529E+002	2.7979949E-001	-2.7037677E+002
3	0	1.449425996102218E+002	2.7881664E-001	-2.7037326E+002
3	0	1.454425995975907E+002	2.7790904E-001	-2.7037326E+002
3	0	1.459425995849597E+002	2.7706769E-001	-2.7037326E+002
3	0	1.464425995723286E+002	2.7625775E-001	-2.7037677E+002
3	0	1.469425995596976E+002	2.7547950E-001	-2.7037326E+002
3	0	1.474425995470665E+002	2.7476320E-001	-2.7036618E+002
3	0	1.479425995344354E+002	2.7409622E-001	-2.7040506E+002
3	0	1.484425995218044E+002	2.7344421E-001	-2.7037326E+002
3	0	1.489425995091733E+002	2.7281070E-001	-2.7035913E+002
3	0	1.494425994965422E+002	2.7220476E-001	-2.7037677E+002
3	0	1.499425994839112E+002	2.7160230E-001	-2.7041919E+002
3	0	1.504425994712801E+002	2.7100039E-001	-2.7035913E+002
3	0	1.509425994586491E+002	2.7039286E-001	-2.7037677E+002
3	0	1.514425994460180E+002	2.6981619E-001	-2.7039447E+002
3	0	1.519425994333869E+002	2.6927021E-001	-2.7036972E+002
3	0	1.524425994207559E+002	2.6871768E-001	-2.7037326E+002
3	0	1.529425994081248E+002	2.6818749E-001	-2.7039801E+002
3	0	1.534425993954937E+002	2.6765621E-001	-2.7035913E+002
3	0	1.539425993828627E+002	2.6713365E-001	-2.7035205E+002
3	0	1.544425993702316E+002	2.6659584E-001	-2.7036267E+002
3	0	1.549425993576006E+002	2.6605043E-001	-2.7038385E+002
3	0	1.554425993449695E+002	2.6553151E-001	-2.7036618E+002
3	0	1.559425993323384E+002	2.6503262E-001	-2.7037677E+002
3	0	1.564425993197074E+002	2.6453638E-001	-2.7037677E+002
3	0	1.569425993070763E+002	2.6404747E-001	-2.7037677E+002
3	0	1.574425992944452E+002	2.6356402E-001	-2.7036972E+002
3	0	1.579425992818142E+002	2.6307964E-001	-2.7036972E+002
3	0	1.584425992691831E+002	2.6257807E-001	-2.7035559E+002
3	0	1.589425992565521E+002	2.6206884E-001	-2.7037326E+002
3	0	1.594425992439210E+002	2.6159027E-001	-2.7037326E+002
3	0	1.599425992312899E+002	2.6112789E-001	-2.7038742E+002
3	0	1.604425992186589E+002	2.6066369E-001	-2.7038385E+002
3	0	1.609425992060278E+002	2.6020116E-001	-2.7038031E+002
3	0	1.614425991933967E+002	2.5974715E-001	-2.7037326E+002
3	0	1.619425991807657E+002	2.5929597E-001	-2.7036972E+002
3	0	1.624425991681346E+002	2.5883108E-001	-2.7037677E+002
3	0	1.629425991555036E+002	2.5834963E-001	-2.7038742E+002
3	0	1.634425991428725E+002	2.5790104E-001	-2.7038385E+002
3	0	1.639425991302414E+002	2.5746772E-001	-2.7039801E+002
3	0	1.644425991176104E+002	2.5703290E-001	-2.7036618E+002
3	0	1.649425991049793E+002	2.5660437E-001	-2.7036972E+002
3	0	1.654425990923482E+002	2.5618574E-001	-2.7036972E+002
3	0	1.659425990797172E+002	2.5575116E-001	-2.7036267E+002
3	0	1.664425990670861E+002	2.5530845E-001	-2.7040860E+002
3	0	1.669425990544551E+002	2.5486258E-001	-2.7038385E+002
3	0	1.674425990418240E+002	2.5444806E-001	-2.7038031E+002
3	0	1.679425990291929E+002	2.5404868E-001	-2.7039447E+002
3	0	1.684425990165619E+002	2.5364375E-001	-2.7039801E+002
3	0	1.689425990039308E+002	2.5323653E-001	-2.7038742E+002
3	0	1.694425989912997E+002	2.5284234E-001	-2.7039801E+002
3	0	1.699425989786687E+002	2.5243419E-001	-2.7037326E+002
3	0	1.704425989660376E+002	2.5202292E-001	-2.7036618E+002
3	0	1.709425989534066E+002	2.5160334E-001	-2.7039801E+002
3	0	1.714425989407755E+002	2.5121459E-001	-2.7037326E+002
3	0	1.719425989281444E+002	2.5084153E-001	-2.7036267E+002
3	0	1.724425989155134E+002	2.5046974E-001	-2.7039447E+002
3	0	1.729425989028823E+002	2.5009480E-001	-2.7037677E+002
3	0	1.734425988902512E+002	2.4973512E-001	-2.7035559E+002
3	0	1.739425988776202E+002	2.4936618E-001	-2.7037326E+002
3	0	1.744425988649891E+002	2.4898984E-001	-2.7037677E+002
3	0	1.749425988523581E+002	2.4859628E-001	-2.7038385E+002
3	0	1.754425988397270E+002	2.4823669E-001	-2.7038031E+002
3	0	1.759425988270959E+002	2.4790004E-001	-2.7040506E+002
3	0	1.764425988144649E+002	2.4755262E-001	-2.7038031E+002
3	0	1.769425988018338E+002	2.4721244E-001	-2.7037677E+002
3	0	1.774425987892027E+002	2.4685973E-001	-2.7038031E+002
3	0	1.779425987765717E+002	2.4651812E-001	-2.7038385E+002
3	0	1.784425987639406E+002	2.4618258E-001	-2.7036618E+002
3	0	1.789425987513096E+002	2.4583146E-001	-2.7036618E+002
3	0	1.794425987386785E+002	2.4550839E-001	-2.7036972E+002
3	0	1.799425987260474E+002	2.4520206E-001	-2.7040860E+002
3	0	1.799679987254058E+002	2.4503666E-001	-2.7036267E+002