EC-Lab ASCII FILE
Nb header lines : 55                          

Open Circuit Voltage

Run on channel : 1 (SN 81504)
User : 
CE vs. WE compliance from -10 V to 10 V
Electrode connection : standard
Potential control : Ewe
Ewe ctrl range : min = -2.50 V, max = 2.50 V
Safety Limits :
	Do not start on E overload
Acquisition started on : 05/07/2026 16:16:51.018
Loaded Setting File :  C:\PEM-WE_measurements\2026\372_IV_IV IrOx, 5 min Pt, 30 min C, etched cathode\new station\Loopeis new\1,46 V different time gaps open cell\Loopeis 1,46V_45s_5_PEIS from 65Hz to 10Hz.mps
Saved on :
	File : L_10_Loopeis 1,46V_45s_5_PEIS from 65Hz to 10Hz_04_OCV_C01.mpr
	Directory : C:\PEM-WE_measurements\2026\372_IV_IV IrOx, 5 min Pt, 30 min C, etched cathode\new station\Loopeis new\1,46 V different time gaps open cell\
	Host : 192.168.0.2
Device : SP-150e (SN .005491)
Address : 192.168.0.91
EC-LAB for windows v11.71 (software)
Internet server v28.00 (firmware)
Command interpretor v14.01 (firmware)
Electrode material : 
Initial state : 
Electrolyte : 
Comments : 
Current amplifier : SP-150eB-20A
Electrode surface area : 0.001 cm²
Characteristic mass : 0.001 g
Equivalent Weight : 0.000 g/eq.
Density : 0.000 g/cm3
Volume (V) : 0.001 cm³
Record Analogic IN 1
Text export
   Mode : Standard
   Time format : Elapsed
Cycle Definition : Charge/Discharge alternance
External device configuration :
   device type : Temperature Probe
   device name : Other
   Analog IN 1 : 
      unit : T/Â°C
      max : 100.000 at 2.000 V
      min : 0.000 at 1.460 V
tR (h:m:s)          0:00:45.0000        
dER/dt (mV/h)       1.0                 
record              <Ewe>               
dER (mV)            10.00               
dtR (s)             0.5000              
E range min (V)     -2.500              
E range max (V)     2.500               

mode	error	time/s	<Ewe/V>	Analog IN 1/V	
3	0	5.908956214829232E+002	1.2808967E+000	-2.7037677E+002
3	0	5.913956214702921E+002	1.2832493E+000	-2.7037677E+002
3	0	5.918956214576610E+002	1.2618289E+000	-2.7038742E+002
3	0	5.923956214450300E+002	1.2162405E+000	-2.7036267E+002
3	0	5.928956214323989E+002	1.1078247E+000	-2.7035913E+002
3	0	5.933956214197678E+002	6.9174284E-001	-2.7036618E+002
3	0	5.938956214071368E+002	4.1742575E-001	-2.7037326E+002
3	0	5.943956213945057E+002	3.7114593E-001	-2.7036972E+002
3	0	5.948956213818747E+002	3.5909241E-001	-2.7039093E+002
3	0	5.953956213692436E+002	3.5044602E-001	-2.7035205E+002
3	0	5.958956213566125E+002	3.4407672E-001	-2.7038742E+002
3	0	5.963956213439815E+002	3.3935320E-001	-2.7037677E+002
3	0	5.968956213313504E+002	3.3573267E-001	-2.7036618E+002
3	0	5.973956213187194E+002	3.3286422E-001	-2.7031671E+002
3	0	5.978956213060883E+002	3.3053750E-001	-2.7036618E+002
3	0	5.983956212934572E+002	3.2861635E-001	-2.7037677E+002
3	0	5.988956212808262E+002	3.2695574E-001	-2.7037677E+002
3	0	5.993956212681951E+002	3.2551509E-001	-2.7035559E+002
3	0	5.998956212555640E+002	3.2423499E-001	-2.7038385E+002
3	0	6.003956212429330E+002	3.2308033E-001	-2.7035559E+002
3	0	6.008956212303019E+002	3.2200325E-001	-2.7038385E+002
3	0	6.013956212176709E+002	3.2099485E-001	-2.7040155E+002
3	0	6.018956212050398E+002	3.2007533E-001	-2.7038031E+002
3	0	6.023956211924087E+002	3.1923205E-001	-2.7035913E+002
3	0	6.028956211797777E+002	3.1841537E-001	-2.7041919E+002
3	0	6.033956211671466E+002	3.1764153E-001	-2.7038031E+002
3	0	6.038956211545155E+002	3.1689224E-001	-2.7037326E+002
3	0	6.043956211418845E+002	3.1617475E-001	-2.7039801E+002
3	0	6.048956211292534E+002	3.1545556E-001	-2.7038742E+002
3	0	6.053956211166224E+002	3.1474835E-001	-2.7037326E+002
3	0	6.058956211039913E+002	3.1407511E-001	-2.7036972E+002
3	0	6.063956210913602E+002	3.1343079E-001	-2.7038031E+002
3	0	6.068956210787292E+002	3.1279054E-001	-2.7039801E+002
3	0	6.073956210660981E+002	3.1217152E-001	-2.7038031E+002
3	0	6.078956210534670E+002	3.1155822E-001	-2.7039447E+002
3	0	6.083956210408360E+002	3.1095773E-001	-2.7039093E+002
3	0	6.088956210282049E+002	3.1034622E-001	-2.7036972E+002
3	0	6.093956210155739E+002	3.0973741E-001	-2.7035559E+002
3	0	6.098956210029428E+002	3.0915380E-001	-2.7036972E+002
3	0	6.103956209903117E+002	3.0858743E-001	-2.7036972E+002
3	0	6.108956209776807E+002	3.0802399E-001	-2.7037677E+002
3	0	6.113956209650496E+002	3.0746806E-001	-2.7038742E+002
3	0	6.118956209524185E+002	3.0691281E-001	-2.7039447E+002
3	0	6.123956209397875E+002	3.0636898E-001	-2.7037326E+002
3	0	6.128956209271564E+002	3.0581570E-001	-2.7038742E+002
3	0	6.133956209145254E+002	3.0525628E-001	-2.7036972E+002
3	0	6.138956209018943E+002	3.0471987E-001	-2.7038385E+002
3	0	6.143956208892632E+002	3.0421090E-001	-2.7039093E+002
3	0	6.148956208766322E+002	3.0368555E-001	-2.7038031E+002
3	0	6.153956208640011E+002	3.0317146E-001	-2.7038031E+002
3	0	6.158956208513700E+002	3.0266276E-001	-2.7037677E+002
3	0	6.163956208387390E+002	3.0215347E-001	-2.7041214E+002
3	0	6.168956208261079E+002	3.0163896E-001	-2.7039801E+002
3	0	6.173956208134769E+002	3.0111507E-001	-2.7036972E+002
3	0	6.178956208008458E+002	3.0061105E-001	-2.7038385E+002
3	0	6.183956207882147E+002	3.0013695E-001	-2.7037326E+002
3	0	6.188956207755837E+002	2.9965916E-001	-2.7034497E+002
3	0	6.193956207629526E+002	2.9918617E-001	-2.7037326E+002
3	0	6.198956207503215E+002	2.9871902E-001	-2.7038385E+002
3	0	6.203956207376905E+002	2.9825255E-001	-2.7039093E+002
3	0	6.208956207250594E+002	2.9776424E-001	-2.7037677E+002
3	0	6.213956207124284E+002	2.9728058E-001	-2.7037326E+002
3	0	6.218956206997973E+002	2.9681081E-001	-2.7036972E+002
3	0	6.223956206871662E+002	2.9636985E-001	-2.7040860E+002
3	0	6.228956206745352E+002	2.9592848E-001	-2.7037677E+002
3	0	6.233956206619041E+002	2.9548123E-001	-2.7036267E+002
3	0	6.238956206492730E+002	2.9505226E-001	-2.7036267E+002
3	0	6.243956206366420E+002	2.9462272E-001	-2.7038385E+002
3	0	6.248956206240109E+002	2.9417333E-001	-2.7039447E+002
3	0	6.253956206113799E+002	2.9371351E-001	-2.7040155E+002
3	0	6.258956205987488E+002	2.9327533E-001	-2.7036267E+002
3	0	6.263956205861177E+002	2.9286888E-001	-2.7038385E+002
3	0	6.268956205734867E+002	2.9245234E-001	-2.7035559E+002
3	0	6.273956205608556E+002	2.9204616E-001	-2.7037326E+002
3	0	6.278956205482245E+002	2.9164609E-001	-2.7036972E+002
3	0	6.283956205355935E+002	2.9123771E-001	-2.7037677E+002
3	0	6.288956205229624E+002	2.9082820E-001	-2.7035559E+002
3	0	6.293956205103314E+002	2.9041415E-001	-2.7036972E+002
3	0	6.298956204977003E+002	2.9001668E-001	-2.7036267E+002
3	0	6.303956204850692E+002	2.8964382E-001	-2.7035559E+002
3	0	6.308956204724382E+002	2.8926566E-001	-2.7036267E+002
3	0	6.313956204598071E+002	2.8888965E-001	-2.7036972E+002
3	0	6.318956204471760E+002	2.8852862E-001	-2.7035559E+002
3	0	6.323956204345450E+002	2.8815344E-001	-2.7037326E+002
3	0	6.328956204219139E+002	2.8777152E-001	-2.7038385E+002
3	0	6.333956204092829E+002	2.8737721E-001	-2.7038031E+002
3	0	6.338956203966518E+002	2.8701001E-001	-2.7037326E+002
3	0	6.343956203840207E+002	2.8667095E-001	-2.7039447E+002
3	0	6.348956203713897E+002	2.8632006E-001	-2.7040506E+002
3	0	6.353956203587586E+002	2.8598017E-001	-2.7038742E+002
3	0	6.354190203581675E+002	2.8580427E-001	-2.7040506E+002