EC-Lab ASCII FILE
Nb header lines : 55                          

Open Circuit Voltage

Run on channel : 1 (SN 81504)
User : 
CE vs. WE compliance from -10 V to 10 V
Electrode connection : standard
Potential control : Ewe
Ewe ctrl range : min = -2.50 V, max = 2.50 V
Safety Limits :
	Do not start on E overload
Acquisition started on : 05/07/2026 16:16:51.018
Loaded Setting File :  C:\PEM-WE_measurements\2026\372_IV_IV IrOx, 5 min Pt, 30 min C, etched cathode\new station\Loopeis new\1,46 V different time gaps open cell\Loopeis 1,46V_45s_5_PEIS from 65Hz to 10Hz.mps
Saved on :
	File : L_10_Loopeis 1,46V_45s_5_PEIS from 65Hz to 10Hz_10_OCV_C01.mpr
	Directory : C:\PEM-WE_measurements\2026\372_IV_IV IrOx, 5 min Pt, 30 min C, etched cathode\new station\Loopeis new\1,46 V different time gaps open cell\
	Host : 192.168.0.2
Device : SP-150e (SN .005491)
Address : 192.168.0.91
EC-LAB for windows v11.71 (software)
Internet server v28.00 (firmware)
Command interpretor v14.01 (firmware)
Electrode material : 
Initial state : 
Electrolyte : 
Comments : 
Current amplifier : SP-150eB-20A
Electrode surface area : 0.001 cm²
Characteristic mass : 0.001 g
Equivalent Weight : 0.000 g/eq.
Density : 0.000 g/cm3
Volume (V) : 0.001 cm³
Record Analogic IN 1
Text export
   Mode : Standard
   Time format : Elapsed
Cycle Definition : Charge/Discharge alternance
External device configuration :
   device type : Temperature Probe
   device name : Other
   Analog IN 1 : 
      unit : T/Â°C
      max : 100.000 at 2.000 V
      min : 0.000 at 1.460 V
tR (h:m:s)          0:00:45.0000        
dER/dt (mV/h)       1.0                 
record              <Ewe>               
dER (mV)            10.00               
dtR (s)             0.5000              
E range min (V)     -2.500              
E range max (V)     2.500               

mode	error	time/s	<Ewe/V>	Analog IN 1/V	
3	0	8.603604179090325E+002	1.2782702E+000	-2.7036267E+002
3	0	8.608604178964015E+002	1.2774780E+000	-2.7038742E+002
3	0	8.613604178837704E+002	1.2512341E+000	-2.7034497E+002
3	0	8.618604178711394E+002	1.1962068E+000	-2.7039093E+002
3	0	8.623604178585083E+002	1.0517057E+000	-2.7036267E+002
3	0	8.628604178458772E+002	5.9016782E-001	-2.7039093E+002
3	0	8.633604178332462E+002	3.8776216E-001	-2.7037677E+002
3	0	8.638604178206151E+002	3.5603186E-001	-2.7037677E+002
3	0	8.643604178079840E+002	3.4548682E-001	-2.7038742E+002
3	0	8.648604177953530E+002	3.3744773E-001	-2.7039093E+002
3	0	8.653604177827219E+002	3.3144891E-001	-2.7036972E+002
3	0	8.658604177700909E+002	3.2695681E-001	-2.7037677E+002
3	0	8.663604177574598E+002	3.2347786E-001	-2.7035559E+002
3	0	8.668604177448287E+002	3.2070166E-001	-2.7038742E+002
3	0	8.673604177321977E+002	3.1843406E-001	-2.7038742E+002
3	0	8.678604177195666E+002	3.1652594E-001	-2.7038031E+002
3	0	8.683604177069356E+002	3.1488773E-001	-2.7036267E+002
3	0	8.688604176943045E+002	3.1344214E-001	-2.7039093E+002
3	0	8.693604176816734E+002	3.1214017E-001	-2.7039093E+002
3	0	8.698604176690424E+002	3.1099704E-001	-2.7038385E+002
3	0	8.703604176564113E+002	3.0996382E-001	-2.7040860E+002
3	0	8.708604176437802E+002	3.0901545E-001	-2.7036267E+002
3	0	8.713604176311492E+002	3.0811468E-001	-2.7039801E+002
3	0	8.718604176185181E+002	3.0726805E-001	-2.7036972E+002
3	0	8.723604176058871E+002	3.0645314E-001	-2.7038031E+002
3	0	8.728604175932560E+002	3.0565923E-001	-2.7034851E+002
3	0	8.733604175806249E+002	3.0488518E-001	-2.7036618E+002
3	0	8.738604175679939E+002	3.0418235E-001	-2.7038385E+002
3	0	8.743604175553628E+002	3.0349895E-001	-2.7036267E+002
3	0	8.748604175427317E+002	3.0283397E-001	-2.7038385E+002
3	0	8.753604175301007E+002	3.0218014E-001	-2.7039801E+002
3	0	8.758604175174696E+002	3.0154258E-001	-2.7039801E+002
3	0	8.763604175048386E+002	3.0091274E-001	-2.7037677E+002
3	0	8.768604174922075E+002	3.0027077E-001	-2.7040506E+002
3	0	8.773604174795764E+002	2.9964197E-001	-2.7035913E+002
3	0	8.778604174669454E+002	2.9904976E-001	-2.7040506E+002
3	0	8.783604174543143E+002	2.9847464E-001	-2.7035205E+002
3	0	8.788604174416832E+002	2.9790503E-001	-2.7039093E+002
3	0	8.793604174290522E+002	2.9734153E-001	-2.7036267E+002
3	0	8.798604174164211E+002	2.9678264E-001	-2.7038031E+002
3	0	8.803604174037901E+002	2.9622018E-001	-2.7036972E+002
3	0	8.808604173911590E+002	2.9564142E-001	-2.7036972E+002
3	0	8.813604173785279E+002	2.9506952E-001	-2.7036618E+002
3	0	8.818604173658969E+002	2.9453829E-001	-2.7038031E+002
3	0	8.823604173532658E+002	2.9402050E-001	-2.7036972E+002
3	0	8.828604173406347E+002	2.9350099E-001	-2.7037677E+002
3	0	8.833604173280037E+002	2.9298753E-001	-2.7039093E+002
3	0	8.838604173153726E+002	2.9247299E-001	-2.7038742E+002
3	0	8.843604173027416E+002	2.9195467E-001	-2.7036972E+002
3	0	8.848604172901105E+002	2.9141375E-001	-2.7036972E+002
3	0	8.853604172774794E+002	2.9087716E-001	-2.7036972E+002
3	0	8.858604172648484E+002	2.9039282E-001	-2.7035559E+002
3	0	8.863604172522173E+002	2.8991726E-001	-2.7036267E+002
3	0	8.868604172395862E+002	2.8943548E-001	-2.7040155E+002
3	0	8.873604172269552E+002	2.8895369E-001	-2.7036618E+002
3	0	8.878604172143241E+002	2.8847992E-001	-2.7039447E+002
3	0	8.883604172016931E+002	2.8799668E-001	-2.7039093E+002
3	0	8.888604171890620E+002	2.8749555E-001	-2.7036618E+002
3	0	8.893604171764309E+002	2.8699723E-001	-2.7035559E+002
3	0	8.898604171637999E+002	2.8654516E-001	-2.7040506E+002
3	0	8.903604171511688E+002	2.8610229E-001	-2.7036267E+002
3	0	8.908604171385377E+002	2.8565791E-001	-2.7036972E+002
3	0	8.913604171259067E+002	2.8521737E-001	-2.7040860E+002
3	0	8.918604171132756E+002	2.8477770E-001	-2.7037326E+002
3	0	8.923604171006446E+002	2.8433082E-001	-2.7038742E+002
3	0	8.928604170880135E+002	2.8387022E-001	-2.7037677E+002
3	0	8.933604170753824E+002	2.8341061E-001	-2.7036618E+002
3	0	8.938604170627514E+002	2.8298679E-001	-2.7039447E+002
3	0	8.943604170501203E+002	2.8257576E-001	-2.7036267E+002
3	0	8.948604170374892E+002	2.8217334E-001	-2.7037326E+002
3	0	8.953604170248582E+002	2.8176838E-001	-2.7037677E+002
3	0	8.958604170122271E+002	2.8136387E-001	-2.7036267E+002
3	0	8.963604169995961E+002	2.8094649E-001	-2.7036972E+002
3	0	8.968604169869650E+002	2.8052306E-001	-2.7038031E+002
3	0	8.973604169743339E+002	2.8010315E-001	-2.7036267E+002
3	0	8.978604169617029E+002	2.7971637E-001	-2.7037326E+002
3	0	8.983604169490718E+002	2.7933806E-001	-2.7037326E+002
3	0	8.988604169364407E+002	2.7896515E-001	-2.7037326E+002
3	0	8.993604169238097E+002	2.7858478E-001	-2.7040155E+002
3	0	8.998604169111786E+002	2.7820924E-001	-2.7035913E+002
3	0	9.003604168985476E+002	2.7782536E-001	-2.7038385E+002
3	0	9.008604168859165E+002	2.7743110E-001	-2.7037326E+002
3	0	9.013604168732854E+002	2.7704504E-001	-2.7039447E+002
3	0	9.018604168606544E+002	2.7668676E-001	-2.7037677E+002
3	0	9.023604168480233E+002	2.7634999E-001	-2.7038742E+002
3	0	9.028604168353922E+002	2.7600327E-001	-2.7036267E+002
3	0	9.033604168227612E+002	2.7565947E-001	-2.7039093E+002
3	0	9.038604168101301E+002	2.7532330E-001	-2.7039447E+002
3	0	9.043604167974991E+002	2.7497596E-001	-2.7038742E+002
3	0	9.048604167848680E+002	2.7460927E-001	-2.7037677E+002
3	0	9.048608167848579E+002	2.7441126E-001	-2.7038742E+002