EC-Lab ASCII FILE
Nb header lines : 55                          

Open Circuit Voltage

Run on channel : 1 (SN 81504)
User : 
CE vs. WE compliance from -10 V to 10 V
Electrode connection : standard
Potential control : Ewe
Ewe ctrl range : min = -2.50 V, max = 2.50 V
Safety Limits :
	Do not start on E overload
Acquisition started on : 05/07/2026 16:16:51.018
Loaded Setting File :  C:\PEM-WE_measurements\2026\372_IV_IV IrOx, 5 min Pt, 30 min C, etched cathode\new station\Loopeis new\1,46 V different time gaps open cell\Loopeis 1,46V_45s_5_PEIS from 65Hz to 10Hz.mps
Saved on :
	File : L_10_Loopeis 1,46V_45s_5_PEIS from 65Hz to 10Hz_18_OCV_C01.mpr
	Directory : C:\PEM-WE_measurements\2026\372_IV_IV IrOx, 5 min Pt, 30 min C, etched cathode\new station\Loopeis new\1,46 V different time gaps open cell\
	Host : 192.168.0.2
Device : SP-150e (SN .005491)
Address : 192.168.0.91
EC-LAB for windows v11.71 (software)
Internet server v28.00 (firmware)
Command interpretor v14.01 (firmware)
Electrode material : 
Initial state : 
Electrolyte : 
Comments : 
Current amplifier : SP-150eB-20A
Electrode surface area : 0.001 cm²
Characteristic mass : 0.001 g
Equivalent Weight : 0.000 g/eq.
Density : 0.000 g/cm3
Volume (V) : 0.001 cm³
Record Analogic IN 1
Text export
   Mode : Standard
   Time format : Elapsed
Cycle Definition : Charge/Discharge alternance
External device configuration :
   device type : Temperature Probe
   device name : Other
   Analog IN 1 : 
      unit : T/Â°C
      max : 100.000 at 2.000 V
      min : 0.000 at 1.460 V
tR (h:m:s)          0:00:45.0000        
dER/dt (mV/h)       1.0                 
record              <Ewe>               
dER (mV)            10.00               
dtR (s)             0.5000              
E range min (V)     -2.500              
E range max (V)     2.500               

mode	error	time/s	<Ewe/V>	Analog IN 1/V	
3	0	1.223650015519015E+003	1.2783087E+000	-2.7038031E+002
3	0	1.224150015506384E+003	1.2772797E+000	-2.7035913E+002
3	0	1.224650015493753E+003	1.2505761E+000	-2.7036972E+002
3	0	1.225150015481122E+003	1.1953260E+000	-2.7038031E+002
3	0	1.225650015468491E+003	1.0517501E+000	-2.7037677E+002
3	0	1.226150015455860E+003	5.9141463E-001	-2.7036267E+002
3	0	1.226650015443229E+003	3.8719857E-001	-2.7039093E+002
3	0	1.227150015430598E+003	3.5516906E-001	-2.7035205E+002
3	0	1.227650015417967E+003	3.4463802E-001	-2.7038385E+002
3	0	1.228150015405336E+003	3.3661208E-001	-2.7034851E+002
3	0	1.228650015392705E+003	3.3061886E-001	-2.7038742E+002
3	0	1.229150015380073E+003	3.2609648E-001	-2.7036972E+002
3	0	1.229650015367442E+003	3.2260814E-001	-2.7039447E+002
3	0	1.230150015354811E+003	3.1984049E-001	-2.7035913E+002
3	0	1.230650015342180E+003	3.1757584E-001	-2.7037677E+002
3	0	1.231150015329549E+003	3.1567255E-001	-2.7039447E+002
3	0	1.231650015316918E+003	3.1405097E-001	-2.7037677E+002
3	0	1.232150015304287E+003	3.1261092E-001	-2.7038385E+002
3	0	1.232650015291656E+003	3.1130752E-001	-2.7034143E+002
3	0	1.233150015279025E+003	3.1013319E-001	-2.7040506E+002
3	0	1.233650015266394E+003	3.0909574E-001	-2.7040155E+002
3	0	1.234150015253763E+003	3.0813807E-001	-2.7038742E+002
3	0	1.234650015241132E+003	3.0723122E-001	-2.7036618E+002
3	0	1.235150015228501E+003	3.0638331E-001	-2.7036267E+002
3	0	1.235650015215870E+003	3.0559143E-001	-2.7037326E+002
3	0	1.236150015203239E+003	3.0481911E-001	-2.7039801E+002
3	0	1.236650015190608E+003	3.0405793E-001	-2.7038742E+002
3	0	1.237150015177976E+003	3.0330914E-001	-2.7038031E+002
3	0	1.237650015165345E+003	3.0261740E-001	-2.7034851E+002
3	0	1.238150015152714E+003	3.0195427E-001	-2.7038031E+002
3	0	1.238650015140083E+003	3.0130553E-001	-2.7036618E+002
3	0	1.239150015127452E+003	3.0066860E-001	-2.7037677E+002
3	0	1.239650015114821E+003	3.0004919E-001	-2.7038385E+002
3	0	1.240150015102190E+003	2.9943100E-001	-2.7037677E+002
3	0	1.240650015089559E+003	2.9880008E-001	-2.7038031E+002
3	0	1.241150015076928E+003	2.9817504E-001	-2.7037326E+002
3	0	1.241650015064297E+003	2.9759088E-001	-2.7037677E+002
3	0	1.242150015051666E+003	2.9702511E-001	-2.7037677E+002
3	0	1.242650015039035E+003	2.9646391E-001	-2.7038385E+002
3	0	1.243150015026404E+003	2.9591069E-001	-2.7036618E+002
3	0	1.243650015013773E+003	2.9535419E-001	-2.7038742E+002
3	0	1.244150015001142E+003	2.9480448E-001	-2.7035913E+002
3	0	1.244650014988511E+003	2.9423863E-001	-2.7035559E+002
3	0	1.245150014975879E+003	2.9366714E-001	-2.7038385E+002
3	0	1.245650014963248E+003	2.9313520E-001	-2.7036618E+002
3	0	1.246150014950617E+003	2.9261425E-001	-2.7038742E+002
3	0	1.246650014937986E+003	2.9208949E-001	-2.7037677E+002
3	0	1.247150014925355E+003	2.9158229E-001	-2.7039447E+002
3	0	1.247650014912724E+003	2.9107052E-001	-2.7038031E+002
3	0	1.248150014900093E+003	2.9055896E-001	-2.7036618E+002
3	0	1.248650014887462E+003	2.9003412E-001	-2.7038031E+002
3	0	1.249150014874831E+003	2.8949875E-001	-2.7035913E+002
3	0	1.249650014862200E+003	2.8900790E-001	-2.7038742E+002
3	0	1.250150014849569E+003	2.8853017E-001	-2.7035559E+002
3	0	1.250650014836938E+003	2.8804460E-001	-2.7039093E+002
3	0	1.251150014824307E+003	2.8756469E-001	-2.7035913E+002
3	0	1.251650014811676E+003	2.8709066E-001	-2.7039447E+002
3	0	1.252150014799045E+003	2.8661308E-001	-2.7038031E+002
3	0	1.252650014786414E+003	2.8612298E-001	-2.7036618E+002
3	0	1.253150014773782E+003	2.8563175E-001	-2.7038385E+002
3	0	1.253650014761151E+003	2.8517565E-001	-2.7037326E+002
3	0	1.254150014748520E+003	2.8473815E-001	-2.7039447E+002
3	0	1.254650014735889E+003	2.8430128E-001	-2.7037677E+002
3	0	1.255150014723258E+003	2.8386065E-001	-2.7038385E+002
3	0	1.255650014710627E+003	2.8342229E-001	-2.7036267E+002
3	0	1.256150014697996E+003	2.8297269E-001	-2.7036618E+002
3	0	1.256650014685365E+003	2.8250650E-001	-2.7038742E+002
3	0	1.257150014672734E+003	2.8205597E-001	-2.7037326E+002
3	0	1.257650014660103E+003	2.8164312E-001	-2.7038385E+002
3	0	1.258150014647472E+003	2.8123239E-001	-2.7038742E+002
3	0	1.258650014634841E+003	2.8082675E-001	-2.7036618E+002
3	0	1.259150014622210E+003	2.8042704E-001	-2.7036618E+002
3	0	1.259650014609579E+003	2.8003332E-001	-2.7038031E+002
3	0	1.260150014596948E+003	2.7962023E-001	-2.7038385E+002
3	0	1.260650014584317E+003	2.7919170E-001	-2.7037677E+002
3	0	1.261150014571685E+003	2.7877253E-001	-2.7038385E+002
3	0	1.261650014559054E+003	2.7838576E-001	-2.7036267E+002
3	0	1.262150014546423E+003	2.7800533E-001	-2.7039093E+002
3	0	1.262650014533792E+003	2.7763259E-001	-2.7040860E+002
3	0	1.263150014521161E+003	2.7725625E-001	-2.7037677E+002
3	0	1.263650014508530E+003	2.7688926E-001	-2.7039093E+002
3	0	1.264150014495899E+003	2.7650556E-001	-2.7037677E+002
3	0	1.264650014483268E+003	2.7610826E-001	-2.7036972E+002
3	0	1.265150014470637E+003	2.7572864E-001	-2.7039093E+002
3	0	1.265650014458006E+003	2.7538177E-001	-2.7035913E+002
3	0	1.266150014445375E+003	2.7504513E-001	-2.7038385E+002
3	0	1.266650014432744E+003	2.7469143E-001	-2.7036972E+002
3	0	1.267150014420113E+003	2.7435404E-001	-2.7038031E+002
3	0	1.267650014407482E+003	2.7402011E-001	-2.7035913E+002
3	0	1.268150014394851E+003	2.7365997E-001	-2.7036972E+002
3	0	1.268150414394840E+003	2.7348569E-001	-2.7039093E+002