EC-Lab ASCII FILE
Nb header lines : 55                          

Open Circuit Voltage

Run on channel : 1 (SN 81504)
User : 
CE vs. WE compliance from -10 V to 10 V
Electrode connection : standard
Potential control : Ewe
Ewe ctrl range : min = -2.50 V, max = 2.50 V
Safety Limits :
	Do not start on E overload
Acquisition started on : 05/07/2026 16:16:51.018
Loaded Setting File :  C:\PEM-WE_measurements\2026\372_IV_IV IrOx, 5 min Pt, 30 min C, etched cathode\new station\Loopeis new\1,46 V different time gaps open cell\Loopeis 1,46V_45s_5_PEIS from 65Hz to 10Hz.mps
Saved on :
	File : L_10_Loopeis 1,46V_45s_5_PEIS from 65Hz to 10Hz_12_OCV_C01.mpr
	Directory : C:\PEM-WE_measurements\2026\372_IV_IV IrOx, 5 min Pt, 30 min C, etched cathode\new station\Loopeis new\1,46 V different time gaps open cell\
	Host : 192.168.0.2
Device : SP-150e (SN .005491)
Address : 192.168.0.91
EC-LAB for windows v11.71 (software)
Internet server v28.00 (firmware)
Command interpretor v14.01 (firmware)
Electrode material : 
Initial state : 
Electrolyte : 
Comments : 
Current amplifier : SP-150eB-20A
Electrode surface area : 0.001 cm²
Characteristic mass : 0.001 g
Equivalent Weight : 0.000 g/eq.
Density : 0.000 g/cm3
Volume (V) : 0.001 cm³
Record Analogic IN 1
Text export
   Mode : Standard
   Time format : Elapsed
Cycle Definition : Charge/Discharge alternance
External device configuration :
   device type : Temperature Probe
   device name : Other
   Analog IN 1 : 
      unit : T/Â°C
      max : 100.000 at 2.000 V
      min : 0.000 at 1.460 V
tR (h:m:s)          0:00:45.0000        
dER/dt (mV/h)       1.0                 
record              <Ewe>               
dER (mV)            10.00               
dtR (s)             0.5000              
E range min (V)     -2.500              
E range max (V)     2.500               

mode	error	time/s	<Ewe/V>	Analog IN 1/V	
3	0	9.519810189882992E+002	1.2787001E+000	-2.7039801E+002
3	0	9.524810189756681E+002	1.2790276E+000	-2.7037326E+002
3	0	9.529810189630371E+002	1.2546748E+000	-2.7038031E+002
3	0	9.534810189504060E+002	1.2042191E+000	-2.7038742E+002
3	0	9.539810189377749E+002	1.0816064E+000	-2.7036618E+002
3	0	9.544810189251439E+002	6.4556664E-001	-2.7037677E+002
3	0	9.549810189125128E+002	3.9727956E-001	-2.7036267E+002
3	0	9.554810188998817E+002	3.5687858E-001	-2.7039801E+002
3	0	9.559810188872507E+002	3.4591869E-001	-2.7036972E+002
3	0	9.564810188746196E+002	3.3770230E-001	-2.7038385E+002
3	0	9.569810188619886E+002	3.3154076E-001	-2.7040155E+002
3	0	9.574810188493575E+002	3.2691577E-001	-2.7039447E+002
3	0	9.579810188367264E+002	3.2334596E-001	-2.7038742E+002
3	0	9.584810188240954E+002	3.2051551E-001	-2.7037677E+002
3	0	9.589810188114643E+002	3.1821120E-001	-2.7037677E+002
3	0	9.594810187988332E+002	3.1627834E-001	-2.7037677E+002
3	0	9.599810187862022E+002	3.1463364E-001	-2.7040506E+002
3	0	9.604810187735711E+002	3.1318793E-001	-2.7037326E+002
3	0	9.609810187609401E+002	3.1187895E-001	-2.7035913E+002
3	0	9.614810187483090E+002	3.1071463E-001	-2.7039801E+002
3	0	9.619810187356779E+002	3.0968505E-001	-2.7041214E+002
3	0	9.624810187230469E+002	3.0871698E-001	-2.7035913E+002
3	0	9.629810187104158E+002	3.0782309E-001	-2.7036972E+002
3	0	9.634810186977847E+002	3.0697152E-001	-2.7037326E+002
3	0	9.639810186851537E+002	3.0616620E-001	-2.7037326E+002
3	0	9.644810186725226E+002	3.0538377E-001	-2.7036267E+002
3	0	9.649810186598916E+002	3.0461562E-001	-2.7035559E+002
3	0	9.654810186472605E+002	3.0389163E-001	-2.7037677E+002
3	0	9.659810186346294E+002	3.0320892E-001	-2.7040155E+002
3	0	9.664810186219984E+002	3.0253568E-001	-2.7037677E+002
3	0	9.669810186093673E+002	3.0188155E-001	-2.7038031E+002
3	0	9.674810185967362E+002	3.0123901E-001	-2.7038031E+002
3	0	9.679810185841052E+002	3.0060858E-001	-2.7036267E+002
3	0	9.684810185714741E+002	2.9998434E-001	-2.7035913E+002
3	0	9.689810185588431E+002	2.9934824E-001	-2.7036972E+002
3	0	9.694810185462120E+002	2.9873756E-001	-2.7040155E+002
3	0	9.699810185335809E+002	2.9815581E-001	-2.7040155E+002
3	0	9.704810185209499E+002	2.9757646E-001	-2.7038742E+002
3	0	9.709810185083188E+002	2.9700863E-001	-2.7039447E+002
3	0	9.714810184956877E+002	2.9645136E-001	-2.7038385E+002
3	0	9.719810184830567E+002	2.9589596E-001	-2.7038031E+002
3	0	9.724810184704256E+002	2.9533380E-001	-2.7039093E+002
3	0	9.729810184577946E+002	2.9476559E-001	-2.7038742E+002
3	0	9.734810184451635E+002	2.9421854E-001	-2.7037326E+002
3	0	9.739810184325324E+002	2.9369077E-001	-2.7038031E+002
3	0	9.744810184199014E+002	2.9316759E-001	-2.7037677E+002
3	0	9.749810184072703E+002	2.9264718E-001	-2.7038031E+002
3	0	9.754810183946393E+002	2.9212621E-001	-2.7037326E+002
3	0	9.759810183820082E+002	2.9161394E-001	-2.7038385E+002
3	0	9.764810183693771E+002	2.9108840E-001	-2.7037326E+002
3	0	9.769810183567461E+002	2.9055744E-001	-2.7037326E+002
3	0	9.774810183441150E+002	2.9005793E-001	-2.7037326E+002
3	0	9.779810183314839E+002	2.8957471E-001	-2.7039093E+002
3	0	9.784810183188529E+002	2.8909135E-001	-2.7037677E+002
3	0	9.789810183062218E+002	2.8860959E-001	-2.7037326E+002
3	0	9.794810182935908E+002	2.8813490E-001	-2.7039093E+002
3	0	9.799810182809597E+002	2.8765762E-001	-2.7036972E+002
3	0	9.804810182683286E+002	2.8717494E-001	-2.7038031E+002
3	0	9.809810182556976E+002	2.8667784E-001	-2.7038385E+002
3	0	9.814810182430665E+002	2.8620809E-001	-2.7034497E+002
3	0	9.819810182304354E+002	2.8575924E-001	-2.7037326E+002
3	0	9.824810182178044E+002	2.8531012E-001	-2.7036972E+002
3	0	9.829810182051733E+002	2.8486651E-001	-2.7036972E+002
3	0	9.834810181925423E+002	2.8442916E-001	-2.7035913E+002
3	0	9.839810181799112E+002	2.8398395E-001	-2.7038385E+002
3	0	9.844810181672801E+002	2.8354070E-001	-2.7037677E+002
3	0	9.849810181546491E+002	2.8307310E-001	-2.7036618E+002
3	0	9.854810181420180E+002	2.8263551E-001	-2.7035913E+002
3	0	9.859810181293869E+002	2.8221881E-001	-2.7037677E+002
3	0	9.864810181167559E+002	2.8180411E-001	-2.7037326E+002
3	0	9.869810181041248E+002	2.8138909E-001	-2.7038031E+002
3	0	9.874810180914938E+002	2.8097719E-001	-2.7038031E+002
3	0	9.879810180788627E+002	2.8057352E-001	-2.7037326E+002
3	0	9.884810180662316E+002	2.8015947E-001	-2.7036267E+002
3	0	9.889810180536006E+002	2.7972457E-001	-2.7038742E+002
3	0	9.894810180409695E+002	2.7931383E-001	-2.7035559E+002
3	0	9.899810180283384E+002	2.7893496E-001	-2.7037326E+002
3	0	9.904810180157074E+002	2.7855337E-001	-2.7038742E+002
3	0	9.909810180030763E+002	2.7817529E-001	-2.7037326E+002
3	0	9.914810179904453E+002	2.7780080E-001	-2.7040860E+002
3	0	9.919810179778142E+002	2.7742440E-001	-2.7036972E+002
3	0	9.924810179651831E+002	2.7704373E-001	-2.7037326E+002
3	0	9.929810179525521E+002	2.7663624E-001	-2.7036267E+002
3	0	9.934810179399210E+002	2.7626491E-001	-2.7037677E+002
3	0	9.939810179272899E+002	2.7592283E-001	-2.7035559E+002
3	0	9.944810179146589E+002	2.7557167E-001	-2.7038031E+002
3	0	9.949810179020278E+002	2.7523437E-001	-2.7037326E+002
3	0	9.954810178893968E+002	2.7488211E-001	-2.7035559E+002
3	0	9.959810178767657E+002	2.7454808E-001	-2.7038385E+002
3	0	9.964810178641346E+002	2.7418771E-001	-2.7036972E+002
3	0	9.965056178635132E+002	2.7401149E-001	-2.7039447E+002