EC-Lab ASCII FILE
Nb header lines : 55                          

Open Circuit Voltage

Run on channel : 1 (SN 81504)
User : 
CE vs. WE compliance from -10 V to 10 V
Electrode connection : standard
Potential control : Ewe
Ewe ctrl range : min = -2.50 V, max = 2.50 V
Safety Limits :
	Do not start on E overload
Acquisition started on : 05/07/2026 16:16:51.018
Loaded Setting File :  C:\PEM-WE_measurements\2026\372_IV_IV IrOx, 5 min Pt, 30 min C, etched cathode\new station\Loopeis new\1,46 V different time gaps open cell\Loopeis 1,46V_45s_5_PEIS from 65Hz to 10Hz.mps
Saved on :
	File : L_10_Loopeis 1,46V_45s_5_PEIS from 65Hz to 10Hz_08_OCV_C01.mpr
	Directory : C:\PEM-WE_measurements\2026\372_IV_IV IrOx, 5 min Pt, 30 min C, etched cathode\new station\Loopeis new\1,46 V different time gaps open cell\
	Host : 192.168.0.2
Device : SP-150e (SN .005491)
Address : 192.168.0.91
EC-LAB for windows v11.71 (software)
Internet server v28.00 (firmware)
Command interpretor v14.01 (firmware)
Electrode material : 
Initial state : 
Electrolyte : 
Comments : 
Current amplifier : SP-150eB-20A
Electrode surface area : 0.001 cm²
Characteristic mass : 0.001 g
Equivalent Weight : 0.000 g/eq.
Density : 0.000 g/cm3
Volume (V) : 0.001 cm³
Record Analogic IN 1
Text export
   Mode : Standard
   Time format : Elapsed
Cycle Definition : Charge/Discharge alternance
External device configuration :
   device type : Temperature Probe
   device name : Other
   Analog IN 1 : 
      unit : T/Â°C
      max : 100.000 at 2.000 V
      min : 0.000 at 1.460 V
tR (h:m:s)          0:00:45.0000        
dER/dt (mV/h)       1.0                 
record              <Ewe>               
dER (mV)            10.00               
dtR (s)             0.5000              
E range min (V)     -2.500              
E range max (V)     2.500               

mode	error	time/s	<Ewe/V>	Analog IN 1/V	
3	0	7.703364201832301E+002	1.2787062E+000	-2.7038385E+002
3	0	7.708364201705990E+002	1.2794093E+000	-2.7038742E+002
3	0	7.713364201579680E+002	1.2552115E+000	-2.7041214E+002
3	0	7.718364201453369E+002	1.2038299E+000	-2.7035559E+002
3	0	7.723364201327058E+002	1.0764130E+000	-2.7036972E+002
3	0	7.728364201200748E+002	6.3233840E-001	-2.7038742E+002
3	0	7.733364201074437E+002	3.9582223E-001	-2.7038031E+002
3	0	7.738364200948126E+002	3.5799083E-001	-2.7040506E+002
3	0	7.743364200821816E+002	3.4700251E-001	-2.7037326E+002
3	0	7.748364200695505E+002	3.3873433E-001	-2.7036267E+002
3	0	7.753364200569195E+002	3.3258119E-001	-2.7038742E+002
3	0	7.758364200442884E+002	3.2796383E-001	-2.7036972E+002
3	0	7.763364200316573E+002	3.2437852E-001	-2.7037326E+002
3	0	7.768364200190263E+002	3.2153690E-001	-2.7035913E+002
3	0	7.773364200063952E+002	3.1923729E-001	-2.7038031E+002
3	0	7.778364199937641E+002	3.1733778E-001	-2.7037326E+002
3	0	7.783364199811331E+002	3.1571481E-001	-2.7039447E+002
3	0	7.788364199685020E+002	3.1429890E-001	-2.7037326E+002
3	0	7.793364199558710E+002	3.1303614E-001	-2.7038031E+002
3	0	7.798364199432399E+002	3.1188878E-001	-2.7037677E+002
3	0	7.803364199306088E+002	3.1083950E-001	-2.7038385E+002
3	0	7.808364199179778E+002	3.0984801E-001	-2.7037326E+002
3	0	7.813364199053467E+002	3.0891949E-001	-2.7035913E+002
3	0	7.818364198927156E+002	3.0806911E-001	-2.7038031E+002
3	0	7.823364198800846E+002	3.0727163E-001	-2.7036267E+002
3	0	7.828364198674535E+002	3.0650601E-001	-2.7039093E+002
3	0	7.833364198548225E+002	3.0577204E-001	-2.7037326E+002
3	0	7.838364198421914E+002	3.0506361E-001	-2.7038742E+002
3	0	7.843364198295603E+002	3.0437019E-001	-2.7038742E+002
3	0	7.848364198169293E+002	3.0367550E-001	-2.7038031E+002
3	0	7.853364198042982E+002	3.0298039E-001	-2.7039093E+002
3	0	7.858364197916671E+002	3.0233258E-001	-2.7038742E+002
3	0	7.863364197790361E+002	3.0171415E-001	-2.7040860E+002
3	0	7.868364197664050E+002	3.0109894E-001	-2.7038031E+002
3	0	7.873364197537740E+002	3.0049661E-001	-2.7037326E+002
3	0	7.878364197411429E+002	2.9991019E-001	-2.7034851E+002
3	0	7.883364197285118E+002	2.9931512E-001	-2.7037326E+002
3	0	7.888364197158808E+002	2.9871443E-001	-2.7037677E+002
3	0	7.893364197032497E+002	2.9810521E-001	-2.7039093E+002
3	0	7.898364196906186E+002	2.9754102E-001	-2.7035559E+002
3	0	7.903364196779876E+002	2.9699293E-001	-2.7038742E+002
3	0	7.908364196653565E+002	2.9645026E-001	-2.7037677E+002
3	0	7.913364196527255E+002	2.9591137E-001	-2.7036618E+002
3	0	7.918364196400944E+002	2.9537845E-001	-2.7038385E+002
3	0	7.923364196274633E+002	2.9484272E-001	-2.7036618E+002
3	0	7.928364196148323E+002	2.9429296E-001	-2.7040155E+002
3	0	7.933364196022012E+002	2.9373470E-001	-2.7039447E+002
3	0	7.938364195895701E+002	2.9322118E-001	-2.7038031E+002
3	0	7.943364195769391E+002	2.9271939E-001	-2.7036972E+002
3	0	7.948364195643080E+002	2.9222155E-001	-2.7034497E+002
3	0	7.953364195516770E+002	2.9172263E-001	-2.7035559E+002
3	0	7.958364195390459E+002	2.9122320E-001	-2.7038742E+002
3	0	7.963364195264148E+002	2.9072645E-001	-2.7037677E+002
3	0	7.968364195137838E+002	2.9021952E-001	-2.7039447E+002
3	0	7.973364195011527E+002	2.8971046E-001	-2.7037677E+002
3	0	7.978364194885216E+002	2.8923258E-001	-2.7035205E+002
3	0	7.983364194758906E+002	2.8876939E-001	-2.7039801E+002
3	0	7.988364194632595E+002	2.8830841E-001	-2.7036267E+002
3	0	7.993364194506285E+002	2.8784364E-001	-2.7038742E+002
3	0	7.998364194379974E+002	2.8738168E-001	-2.7036618E+002
3	0	8.003364194253663E+002	2.8691900E-001	-2.7038385E+002
3	0	8.008364194127353E+002	2.8644022E-001	-2.7036972E+002
3	0	8.013364194001042E+002	2.8596193E-001	-2.7036972E+002
3	0	8.018364193874731E+002	2.8552085E-001	-2.7039093E+002
3	0	8.023364193748421E+002	2.8508657E-001	-2.7040155E+002
3	0	8.028364193622110E+002	2.8466278E-001	-2.7035913E+002
3	0	8.033364193495800E+002	2.8423896E-001	-2.7038742E+002
3	0	8.038364193369489E+002	2.8381780E-001	-2.7036267E+002
3	0	8.043364193243178E+002	2.8338936E-001	-2.7037677E+002
3	0	8.048364193116868E+002	2.8294039E-001	-2.7036972E+002
3	0	8.053364192990557E+002	2.8248665E-001	-2.7040506E+002
3	0	8.058364192864246E+002	2.8208056E-001	-2.7039801E+002
3	0	8.063364192737936E+002	2.8169033E-001	-2.7037326E+002
3	0	8.068364192611625E+002	2.8129032E-001	-2.7038385E+002
3	0	8.073364192485315E+002	2.8089064E-001	-2.7038385E+002
3	0	8.078364192359004E+002	2.8050193E-001	-2.7039093E+002
3	0	8.083364192232693E+002	2.8011164E-001	-2.7036618E+002
3	0	8.088364192106383E+002	2.7969161E-001	-2.7034143E+002
3	0	8.093364191980072E+002	2.7927950E-001	-2.7040860E+002
3	0	8.098364191853761E+002	2.7890944E-001	-2.7038742E+002
3	0	8.103364191727451E+002	2.7855274E-001	-2.7037326E+002
3	0	8.108364191601140E+002	2.7819178E-001	-2.7038385E+002
3	0	8.113364191474830E+002	2.7782610E-001	-2.7037677E+002
3	0	8.118364191348519E+002	2.7746564E-001	-2.7037326E+002
3	0	8.123364191222208E+002	2.7710679E-001	-2.7038031E+002
3	0	8.128364191095898E+002	2.7671975E-001	-2.7037326E+002
3	0	8.133364190969587E+002	2.7633947E-001	-2.7039093E+002
3	0	8.138364190843276E+002	2.7599931E-001	-2.7037326E+002
3	0	8.143364190716966E+002	2.7568263E-001	-2.7037677E+002
3	0	8.148364190590655E+002	2.7534595E-001	-2.7037677E+002
3	0	8.148598190584744E+002	2.7518857E-001	-2.7038385E+002