EC-Lab ASCII FILE
Nb header lines : 55                          

Open Circuit Voltage

Run on channel : 1 (SN 81504)
User : 
CE vs. WE compliance from -10 V to 10 V
Electrode connection : standard
Potential control : Ewe
Ewe ctrl range : min = -2.50 V, max = 2.50 V
Safety Limits :
	Do not start on E overload
Acquisition started on : 05/07/2026 16:16:51.018
Loaded Setting File :  C:\PEM-WE_measurements\2026\372_IV_IV IrOx, 5 min Pt, 30 min C, etched cathode\new station\Loopeis new\1,46 V different time gaps open cell\Loopeis 1,46V_45s_5_PEIS from 65Hz to 10Hz.mps
Saved on :
	File : L_10_Loopeis 1,46V_45s_5_PEIS from 65Hz to 10Hz_14_OCV_C01.mpr
	Directory : C:\PEM-WE_measurements\2026\372_IV_IV IrOx, 5 min Pt, 30 min C, etched cathode\new station\Loopeis new\1,46 V different time gaps open cell\
	Host : 192.168.0.2
Device : SP-150e (SN .005491)
Address : 192.168.0.91
EC-LAB for windows v11.71 (software)
Internet server v28.00 (firmware)
Command interpretor v14.01 (firmware)
Electrode material : 
Initial state : 
Electrolyte : 
Comments : 
Current amplifier : SP-150eB-20A
Electrode surface area : 0.001 cm²
Characteristic mass : 0.001 g
Equivalent Weight : 0.000 g/eq.
Density : 0.000 g/cm3
Volume (V) : 0.001 cm³
Record Analogic IN 1
Text export
   Mode : Standard
   Time format : Elapsed
Cycle Definition : Charge/Discharge alternance
External device configuration :
   device type : Temperature Probe
   device name : Other
   Analog IN 1 : 
      unit : T/Â°C
      max : 100.000 at 2.000 V
      min : 0.000 at 1.460 V
tR (h:m:s)          0:00:45.0000        
dER/dt (mV/h)       1.0                 
record              <Ewe>               
dER (mV)            10.00               
dtR (s)             0.5000              
E range min (V)     -2.500              
E range max (V)     2.500               

mode	error	time/s	<Ewe/V>	Analog IN 1/V	
3	0	1.042006216714071E+003	1.2784027E+000	-2.7036972E+002
3	0	1.042506216701440E+003	1.2777760E+000	-2.7038742E+002
3	0	1.043006216688809E+003	1.2517987E+000	-2.7038385E+002
3	0	1.043506216676178E+003	1.1969267E+000	-2.7039093E+002
3	0	1.044006216663547E+003	1.0522945E+000	-2.7036972E+002
3	0	1.044506216650916E+003	5.8932114E-001	-2.7037326E+002
3	0	1.045006216638285E+003	3.8746673E-001	-2.7038742E+002
3	0	1.045506216625654E+003	3.5612085E-001	-2.7037326E+002
3	0	1.046006216613023E+003	3.4552413E-001	-2.7035205E+002
3	0	1.046506216600392E+003	3.3747223E-001	-2.7035205E+002
3	0	1.047006216587761E+003	3.3149791E-001	-2.7041214E+002
3	0	1.047506216575130E+003	3.2700264E-001	-2.7038385E+002
3	0	1.048006216562499E+003	3.2352024E-001	-2.7040155E+002
3	0	1.048506216549868E+003	3.2072598E-001	-2.7038031E+002
3	0	1.049006216537236E+003	3.1843713E-001	-2.7036267E+002
3	0	1.049506216524605E+003	3.1651908E-001	-2.7036972E+002
3	0	1.050006216511974E+003	3.1489816E-001	-2.7037677E+002
3	0	1.050506216499343E+003	3.1348497E-001	-2.7035205E+002
3	0	1.051006216486712E+003	3.1222057E-001	-2.7036267E+002
3	0	1.051506216474081E+003	3.1108066E-001	-2.7036972E+002
3	0	1.052006216461450E+003	3.1003729E-001	-2.7037326E+002
3	0	1.052506216448819E+003	3.0906346E-001	-2.7036972E+002
3	0	1.053006216436188E+003	3.0812737E-001	-2.7036972E+002
3	0	1.053506216423557E+003	3.0726272E-001	-2.7040155E+002
3	0	1.054006216410926E+003	3.0646160E-001	-2.7036618E+002
3	0	1.054506216398295E+003	3.0569369E-001	-2.7035913E+002
3	0	1.055006216385664E+003	3.0495891E-001	-2.7038031E+002
3	0	1.055506216373033E+003	3.0425885E-001	-2.7036618E+002
3	0	1.056006216360402E+003	3.0356020E-001	-2.7038742E+002
3	0	1.056506216347771E+003	3.0287147E-001	-2.7038031E+002
3	0	1.057006216335139E+003	3.0218351E-001	-2.7036267E+002
3	0	1.057506216322508E+003	3.0152890E-001	-2.7038385E+002
3	0	1.058006216309877E+003	3.0090874E-001	-2.7039447E+002
3	0	1.058506216297246E+003	3.0029231E-001	-2.7036972E+002
3	0	1.059006216284615E+003	2.9969528E-001	-2.7038742E+002
3	0	1.059506216271984E+003	2.9910710E-001	-2.7037326E+002
3	0	1.060006216259353E+003	2.9851654E-001	-2.7038742E+002
3	0	1.060506216246722E+003	2.9793072E-001	-2.7039093E+002
3	0	1.061006216234091E+003	2.9733393E-001	-2.7038742E+002
3	0	1.061506216221460E+003	2.9675862E-001	-2.7038742E+002
3	0	1.062006216208829E+003	2.9620865E-001	-2.7033789E+002
3	0	1.062506216196198E+003	2.9565802E-001	-2.7035205E+002
3	0	1.063006216183567E+003	2.9512164E-001	-2.7036972E+002
3	0	1.063506216170936E+003	2.9459733E-001	-2.7035913E+002
3	0	1.064006216158305E+003	2.9406890E-001	-2.7039093E+002
3	0	1.064506216145674E+003	2.9351857E-001	-2.7038031E+002
3	0	1.065006216133042E+003	2.9296345E-001	-2.7036267E+002
3	0	1.065506216120411E+003	2.9243508E-001	-2.7038742E+002
3	0	1.066006216107780E+003	2.9193246E-001	-2.7038385E+002
3	0	1.066506216095149E+003	2.9142007E-001	-2.7035913E+002
3	0	1.067006216082518E+003	2.9092199E-001	-2.7035559E+002
3	0	1.067506216069887E+003	2.9043207E-001	-2.7036972E+002
3	0	1.068006216057256E+003	2.8994575E-001	-2.7039093E+002
3	0	1.068506216044625E+003	2.8943625E-001	-2.7037677E+002
3	0	1.069006216031994E+003	2.8891826E-001	-2.7037326E+002
3	0	1.069506216019363E+003	2.8843001E-001	-2.7039801E+002
3	0	1.070006216006732E+003	2.8796247E-001	-2.7040155E+002
3	0	1.070506215994101E+003	2.8748837E-001	-2.7034851E+002
3	0	1.071006215981470E+003	2.8702804E-001	-2.7039093E+002
3	0	1.071506215968839E+003	2.8657544E-001	-2.7033438E+002
3	0	1.072006215956208E+003	2.8611451E-001	-2.7037677E+002
3	0	1.072506215943577E+003	2.8564471E-001	-2.7034851E+002
3	0	1.073006215930945E+003	2.8516585E-001	-2.7036618E+002
3	0	1.073506215918314E+003	2.8471109E-001	-2.7037677E+002
3	0	1.074006215905683E+003	2.8428552E-001	-2.7039447E+002
3	0	1.074506215893052E+003	2.8384727E-001	-2.7036618E+002
3	0	1.075006215880421E+003	2.8341791E-001	-2.7037677E+002
3	0	1.075506215867790E+003	2.8299043E-001	-2.7038385E+002
3	0	1.076006215855159E+003	2.8254479E-001	-2.7036618E+002
3	0	1.076506215842528E+003	2.8211135E-001	-2.7035559E+002
3	0	1.077006215829897E+003	2.8168300E-001	-2.7035913E+002
3	0	1.077506215817266E+003	2.8127918E-001	-2.7037326E+002
3	0	1.078006215804635E+003	2.8089586E-001	-2.7038031E+002
3	0	1.078506215792004E+003	2.8050786E-001	-2.7038031E+002
3	0	1.079006215779373E+003	2.8012079E-001	-2.7038742E+002
3	0	1.079506215766742E+003	2.7972251E-001	-2.7038031E+002
3	0	1.080006215754111E+003	2.7933279E-001	-2.7038742E+002
3	0	1.080506215741480E+003	2.7892825E-001	-2.7040155E+002
3	0	1.081006215728848E+003	2.7850792E-001	-2.7038031E+002
3	0	1.081506215716217E+003	2.7811775E-001	-2.7038742E+002
3	0	1.082006215703586E+003	2.7775991E-001	-2.7038742E+002
3	0	1.082506215690955E+003	2.7739510E-001	-2.7036618E+002
3	0	1.083006215678324E+003	2.7703843E-001	-2.7039093E+002
3	0	1.083506215665693E+003	2.7667201E-001	-2.7037326E+002
3	0	1.084006215653062E+003	2.7631053E-001	-2.7038031E+002
3	0	1.084506215640431E+003	2.7593258E-001	-2.7040155E+002
3	0	1.085006215627800E+003	2.7554789E-001	-2.7036618E+002
3	0	1.085506215615169E+003	2.7520207E-001	-2.7036618E+002
3	0	1.086006215602538E+003	2.7486083E-001	-2.7041919E+002
3	0	1.086506215589907E+003	2.7454460E-001	-2.7039093E+002
3	0	1.086506615589897E+003	2.7426815E-001	-2.7038385E+002