EC-Lab ASCII FILE
Nb header lines : 55                          

Open Circuit Voltage

Run on channel : 1 (SN 81504)
User : 
CE vs. WE compliance from -10 V to 10 V
Electrode connection : standard
Potential control : Ewe
Ewe ctrl range : min = -2.50 V, max = 2.50 V
Safety Limits :
	Do not start on E overload
Acquisition started on : 05/07/2026 16:16:51.018
Loaded Setting File :  C:\PEM-WE_measurements\2026\372_IV_IV IrOx, 5 min Pt, 30 min C, etched cathode\new station\Loopeis new\1,46 V different time gaps open cell\Loopeis 1,46V_45s_5_PEIS from 65Hz to 10Hz.mps
Saved on :
	File : L_10_Loopeis 1,46V_45s_5_PEIS from 65Hz to 10Hz_06_OCV_C01.mpr
	Directory : C:\PEM-WE_measurements\2026\372_IV_IV IrOx, 5 min Pt, 30 min C, etched cathode\new station\Loopeis new\1,46 V different time gaps open cell\
	Host : 192.168.0.2
Device : SP-150e (SN .005491)
Address : 192.168.0.91
EC-LAB for windows v11.71 (software)
Internet server v28.00 (firmware)
Command interpretor v14.01 (firmware)
Electrode material : 
Initial state : 
Electrolyte : 
Comments : 
Current amplifier : SP-150eB-20A
Electrode surface area : 0.001 cm²
Characteristic mass : 0.001 g
Equivalent Weight : 0.000 g/eq.
Density : 0.000 g/cm3
Volume (V) : 0.001 cm³
Record Analogic IN 1
Text export
   Mode : Standard
   Time format : Elapsed
Cycle Definition : Charge/Discharge alternance
External device configuration :
   device type : Temperature Probe
   device name : Other
   Analog IN 1 : 
      unit : T/Â°C
      max : 100.000 at 2.000 V
      min : 0.000 at 1.460 V
tR (h:m:s)          0:00:45.0000        
dER/dt (mV/h)       1.0                 
record              <Ewe>               
dER (mV)            10.00               
dtR (s)             0.5000              
E range min (V)     -2.500              
E range max (V)     2.500               

mode	error	time/s	<Ewe/V>	Analog IN 1/V	
3	0	6.809196192087256E+002	1.2785950E+000	-2.7038742E+002
3	0	6.814196191960946E+002	1.2783872E+000	-2.7039447E+002
3	0	6.819196191834635E+002	1.2527604E+000	-2.7036267E+002
3	0	6.824196191708324E+002	1.1984526E+000	-2.7036972E+002
3	0	6.829196191582014E+002	1.0558617E+000	-2.7035205E+002
3	0	6.834196191455703E+002	5.9398514E-001	-2.7038385E+002
3	0	6.839196191329393E+002	3.9079145E-001	-2.7036267E+002
3	0	6.844196191203082E+002	3.5892233E-001	-2.7036618E+002
3	0	6.849196191076771E+002	3.4818956E-001	-2.7038031E+002
3	0	6.854196190950461E+002	3.4005082E-001	-2.7039447E+002
3	0	6.859196190824150E+002	3.3403170E-001	-2.7036972E+002
3	0	6.864196190697839E+002	3.2953015E-001	-2.7038031E+002
3	0	6.869196190571529E+002	3.2604453E-001	-2.7037326E+002
3	0	6.874196190445218E+002	3.2327458E-001	-2.7037677E+002
3	0	6.879196190318908E+002	3.2100126E-001	-2.7035559E+002
3	0	6.884196190192597E+002	3.1909597E-001	-2.7034143E+002
3	0	6.889196190066286E+002	3.1744784E-001	-2.7035205E+002
3	0	6.894196189939976E+002	3.1599048E-001	-2.7038742E+002
3	0	6.899196189813665E+002	3.1471711E-001	-2.7037677E+002
3	0	6.904196189687354E+002	3.1359255E-001	-2.7038031E+002
3	0	6.909196189561044E+002	3.1255150E-001	-2.7036267E+002
3	0	6.914196189434733E+002	3.1158867E-001	-2.7039093E+002
3	0	6.919196189308423E+002	3.1069428E-001	-2.7039093E+002
3	0	6.924196189182112E+002	3.0984417E-001	-2.7036972E+002
3	0	6.929196189055801E+002	3.0902773E-001	-2.7036618E+002
3	0	6.934196188929491E+002	3.0822122E-001	-2.7036618E+002
3	0	6.939196188803180E+002	3.0746666E-001	-2.7037326E+002
3	0	6.944196188676870E+002	3.0676374E-001	-2.7039093E+002
3	0	6.949196188550559E+002	3.0607477E-001	-2.7036618E+002
3	0	6.954196188424248E+002	3.0541337E-001	-2.7036618E+002
3	0	6.959196188297938E+002	3.0476505E-001	-2.7039447E+002
3	0	6.964196188171627E+002	3.0413637E-001	-2.7036972E+002
3	0	6.969196188045316E+002	3.0349571E-001	-2.7038031E+002
3	0	6.974196187919006E+002	3.0285272E-001	-2.7038031E+002
3	0	6.979196187792695E+002	3.0224091E-001	-2.7037677E+002
3	0	6.984196187666385E+002	3.0165622E-001	-2.7037677E+002
3	0	6.989196187540074E+002	3.0106255E-001	-2.7038031E+002
3	0	6.994196187413763E+002	3.0048889E-001	-2.7038031E+002
3	0	6.999196187287453E+002	2.9993621E-001	-2.7038031E+002
3	0	7.004196187161142E+002	2.9937488E-001	-2.7038742E+002
3	0	7.009196187034831E+002	2.9880935E-001	-2.7034497E+002
3	0	7.014196186908521E+002	2.9822615E-001	-2.7039093E+002
3	0	7.019196186782210E+002	2.9766914E-001	-2.7040155E+002
3	0	7.024196186655900E+002	2.9714528E-001	-2.7039447E+002
3	0	7.029196186529589E+002	2.9661432E-001	-2.7039801E+002
3	0	7.034196186403278E+002	2.9609525E-001	-2.7039447E+002
3	0	7.039196186276968E+002	2.9557893E-001	-2.7036618E+002
3	0	7.044196186150657E+002	2.9506543E-001	-2.7034497E+002
3	0	7.049196186024346E+002	2.9454669E-001	-2.7037326E+002
3	0	7.054196185898036E+002	2.9400697E-001	-2.7037677E+002
3	0	7.059196185771725E+002	2.9349533E-001	-2.7038742E+002
3	0	7.064196185645415E+002	2.9300192E-001	-2.7038742E+002
3	0	7.069196185519104E+002	2.9250541E-001	-2.7039801E+002
3	0	7.074196185392793E+002	2.9202315E-001	-2.7039447E+002
3	0	7.079196185266483E+002	2.9154348E-001	-2.7038742E+002
3	0	7.084196185140172E+002	2.9106501E-001	-2.7037326E+002
3	0	7.089196185013861E+002	2.9057908E-001	-2.7036618E+002
3	0	7.094196184887551E+002	2.9009199E-001	-2.7036618E+002
3	0	7.099196184761240E+002	2.8962541E-001	-2.7039447E+002
3	0	7.104196184634930E+002	2.8917322E-001	-2.7037677E+002
3	0	7.109196184508619E+002	2.8872040E-001	-2.7040860E+002
3	0	7.114196184382308E+002	2.8826919E-001	-2.7039447E+002
3	0	7.119196184255998E+002	2.8782856E-001	-2.7038742E+002
3	0	7.124196184129687E+002	2.8738847E-001	-2.7036618E+002
3	0	7.129196184003376E+002	2.8693622E-001	-2.7039447E+002
3	0	7.134196183877066E+002	2.8647292E-001	-2.7036972E+002
3	0	7.139196183750755E+002	2.8604031E-001	-2.7037677E+002
3	0	7.144196183624445E+002	2.8562948E-001	-2.7035913E+002
3	0	7.149196183498134E+002	2.8521350E-001	-2.7036972E+002
3	0	7.154196183371823E+002	2.8480563E-001	-2.7035913E+002
3	0	7.159196183245513E+002	2.8440127E-001	-2.7038031E+002
3	0	7.164196183119202E+002	2.8399423E-001	-2.7035913E+002
3	0	7.169196182992891E+002	2.8357130E-001	-2.7039093E+002
3	0	7.174196182866581E+002	2.8313810E-001	-2.7039093E+002
3	0	7.179196182740270E+002	2.8273764E-001	-2.7036618E+002
3	0	7.184196182613960E+002	2.8235829E-001	-2.7036972E+002
3	0	7.189196182487649E+002	2.8197387E-001	-2.7036267E+002
3	0	7.194196182361338E+002	2.8159600E-001	-2.7037677E+002
3	0	7.199196182235028E+002	2.8122091E-001	-2.7036267E+002
3	0	7.204196182108717E+002	2.8084505E-001	-2.7039801E+002
3	0	7.209196181982406E+002	2.8046861E-001	-2.7037326E+002
3	0	7.214196181856096E+002	2.8007519E-001	-2.7038385E+002
3	0	7.219196181729785E+002	2.7970275E-001	-2.7039447E+002
3	0	7.224196181603475E+002	2.7935544E-001	-2.7039093E+002
3	0	7.229196181477164E+002	2.7900267E-001	-2.7037326E+002
3	0	7.234196181350853E+002	2.7865997E-001	-2.7036618E+002
3	0	7.239196181224543E+002	2.7831337E-001	-2.7038031E+002
3	0	7.244196181098232E+002	2.7796295E-001	-2.7038031E+002
3	0	7.249196180971921E+002	2.7760947E-001	-2.7035559E+002
3	0	7.254196180845611E+002	2.7724326E-001	-2.7036618E+002
3	0	7.254200180845510E+002	2.7710211E-001	-2.7039093E+002