EC-Lab ASCII FILE
Nb header lines : 56                          

Open Circuit Voltage

Run on channel : 1 (SN 81504)
User : 
CE vs. WE compliance from -10 V to 10 V
Electrode connection : standard
Potential control : Ewe
Ewe ctrl range : min = -2.50 V, max = 2.50 V
Safety Limits :
	Do not start on E overload
Acquisition started on : 05/07/2026 16:39:35.298
Loaded Setting File :  C:\PEM-WE_measurements\2026\372_IV_IV IrOx, 5 min Pt, 30 min C, etched cathode\new station\Loopeis new\1,46 V different time gaps open cell\Loopeis 1,46V_60s_1_initial_loops.mps
Saved on :
	File : L_11_Loopeis 1,46V_60s_1_initial_loops_02_OCV_C01.mpr
	Directory : C:\PEM-WE_measurements\2026\372_IV_IV IrOx, 5 min Pt, 30 min C, etched cathode\new station\Loopeis new\1,46 V different time gaps open cell\
	Host : 192.168.0.2
Device : SP-150e (SN .005491)
Address : 192.168.0.91
EC-LAB for windows v11.71 (software)
Internet server v28.00 (firmware)
Command interpretor v14.01 (firmware)
Electrode material : 
Initial state : 
Electrolyte : 
Comments : 
Current amplifier : SP-150eB-20A
Electrode surface area : 0.000 cm²
Characteristic mass : 0.001 g
Equivalent Weight : 0.000 g/eq.
Density : 0.000 g/cm3
Volume (V) : 0.001 cm³
Record Analogic IN 1
Record energy
Text export
   Mode : Standard
   Time format : Elapsed
Cycle Definition : Charge/Discharge alternance
External device configuration :
   device type : Temperature Probe
   device name : Other
   Analog IN 1 : 
      unit : T/Â°C
      max : 100.000 at 2.000 V
      min : 0.000 at 1.460 V
tR (h:m:s)          0:01:0.0000         
dER/dt (mV/h)       1.0                 
record              <Ewe>               
dER (mV)            10.00               
dtR (s)             0.5000              
E range min (V)     -2.500              
E range max (V)     2.500               

mode	error	time/s	<Ewe/V>	Analog IN 1/V	
3	0	4.549979885057837E+001	1.2782696E+000	-2.7038031E+002
3	0	4.599979883794731E+001	1.2775968E+000	-2.7034497E+002
3	0	4.649979882531625E+001	1.2511125E+000	-2.7038031E+002
3	0	4.699979881268519E+001	1.1953449E+000	-2.7037326E+002
3	0	4.749979880005412E+001	1.0489956E+000	-2.7039447E+002
3	0	4.799979878742306E+001	5.8729613E-001	-2.7038031E+002
3	0	4.849979877479200E+001	3.8687664E-001	-2.7036618E+002
3	0	4.899979876216094E+001	3.5532659E-001	-2.7038385E+002
3	0	4.949979874952987E+001	3.4475377E-001	-2.7038385E+002
3	0	4.999979873689881E+001	3.3671188E-001	-2.7038385E+002
3	0	5.049979872426775E+001	3.3073536E-001	-2.7038742E+002
3	0	5.099979871163669E+001	3.2624066E-001	-2.7040506E+002
3	0	5.149979869900562E+001	3.2276100E-001	-2.7036267E+002
3	0	5.199979868637456E+001	3.1998822E-001	-2.7037677E+002
3	0	5.249979867374350E+001	3.1772113E-001	-2.7036972E+002
3	0	5.299979866111244E+001	3.1580144E-001	-2.7037326E+002
3	0	5.349979864848137E+001	3.1413832E-001	-2.7039447E+002
3	0	5.399979863585031E+001	3.1268808E-001	-2.7040155E+002
3	0	5.449979862321925E+001	3.1142727E-001	-2.7038742E+002
3	0	5.499979861058819E+001	3.1029472E-001	-2.7040860E+002
3	0	5.549979859795712E+001	3.0925873E-001	-2.7037326E+002
3	0	5.599979858532606E+001	3.0829370E-001	-2.7036618E+002
3	0	5.649979857269500E+001	3.0738813E-001	-2.7034497E+002
3	0	5.699979856006394E+001	3.0652681E-001	-2.7038385E+002
3	0	5.749979854743287E+001	3.0568588E-001	-2.7038385E+002
3	0	5.799979853480181E+001	3.0488616E-001	-2.7033438E+002
3	0	5.849979852217075E+001	3.0416444E-001	-2.7040155E+002
3	0	5.899979850953969E+001	3.0345172E-001	-2.7038742E+002
3	0	5.949979849690862E+001	3.0276471E-001	-2.7036618E+002
3	0	5.999979848427756E+001	3.0209613E-001	-2.7036972E+002
3	0	6.049979847164650E+001	3.0144364E-001	-2.7037326E+002
3	0	6.099979845901544E+001	3.0078551E-001	-2.7038385E+002
3	0	6.149979844638438E+001	3.0012390E-001	-2.7038742E+002
3	0	6.199979843375331E+001	2.9949018E-001	-2.7036972E+002
3	0	6.249979842112225E+001	2.9889151E-001	-2.7037326E+002
3	0	6.299979840849119E+001	2.9830453E-001	-2.7038385E+002
3	0	6.349979839586013E+001	2.9772040E-001	-2.7040155E+002
3	0	6.399979838322906E+001	2.9715186E-001	-2.7037326E+002
3	0	6.449979837059800E+001	2.9658905E-001	-2.7036618E+002
3	0	6.499979835796694E+001	2.9600987E-001	-2.7039801E+002
3	0	6.549979834533588E+001	2.9541388E-001	-2.7039447E+002
3	0	6.599979833270481E+001	2.9484862E-001	-2.7038742E+002
3	0	6.649979832007375E+001	2.9430905E-001	-2.7037326E+002
3	0	6.699979830744269E+001	2.9377687E-001	-2.7035913E+002
3	0	6.749979829481163E+001	2.9325104E-001	-2.7036618E+002
3	0	6.799979828218056E+001	2.9272512E-001	-2.7036972E+002
3	0	6.849979826954950E+001	2.9219446E-001	-2.7038031E+002
3	0	6.899979825691844E+001	2.9166535E-001	-2.7038031E+002
3	0	6.949979824428738E+001	2.9111996E-001	-2.7036267E+002
3	0	6.999979823165631E+001	2.9058981E-001	-2.7038385E+002
3	0	7.049979821902525E+001	2.9010609E-001	-2.7036972E+002
3	0	7.099979820639419E+001	2.8961971E-001	-2.7038385E+002
3	0	7.149979819376313E+001	2.8912830E-001	-2.7036267E+002
3	0	7.199979818113206E+001	2.8864574E-001	-2.7041214E+002
3	0	7.249979816850100E+001	2.8816232E-001	-2.7036618E+002
3	0	7.299979815586994E+001	2.8767288E-001	-2.7038031E+002
3	0	7.349979814323888E+001	2.8716794E-001	-2.7038385E+002
3	0	7.399979813060781E+001	2.8667411E-001	-2.7038385E+002
3	0	7.449979811797675E+001	2.8622168E-001	-2.7037677E+002
3	0	7.499979810534569E+001	2.8576687E-001	-2.7037677E+002
3	0	7.549979809271463E+001	2.8531617E-001	-2.7038742E+002
3	0	7.599979808008356E+001	2.8487030E-001	-2.7035205E+002
3	0	7.649979806745250E+001	2.8442293E-001	-2.7039093E+002
3	0	7.699979805482144E+001	2.8396574E-001	-2.7033438E+002
3	0	7.749979804219038E+001	2.8349268E-001	-2.7039093E+002
3	0	7.799979802955932E+001	2.8302842E-001	-2.7037677E+002
3	0	7.849979801692825E+001	2.8260955E-001	-2.7039093E+002
3	0	7.899979800429719E+001	2.8219292E-001	-2.7038385E+002
3	0	7.949979799166613E+001	2.8178024E-001	-2.7035559E+002
3	0	7.999979797903507E+001	2.8136265E-001	-2.7037677E+002
3	0	8.049979796640400E+001	2.8094837E-001	-2.7035559E+002
3	0	8.099979795377294E+001	2.8052846E-001	-2.7036618E+002
3	0	8.149979794114188E+001	2.8009209E-001	-2.7036267E+002
3	0	8.199979792851082E+001	2.7966386E-001	-2.7036618E+002
3	0	8.249979791587975E+001	2.7927777E-001	-2.7038742E+002
3	0	8.299979790324869E+001	2.7889538E-001	-2.7039447E+002
3	0	8.349979789061763E+001	2.7850676E-001	-2.7035205E+002
3	0	8.399979787798657E+001	2.7812296E-001	-2.7039447E+002
3	0	8.449979786535550E+001	2.7773786E-001	-2.7037677E+002
3	0	8.499979785272444E+001	2.7734175E-001	-2.7036618E+002
3	0	8.549979784009338E+001	2.7693480E-001	-2.7039093E+002
3	0	8.599979782746232E+001	2.7653658E-001	-2.7036267E+002
3	0	8.649979781483125E+001	2.7617660E-001	-2.7037677E+002
3	0	8.699979780220019E+001	2.7582827E-001	-2.7036972E+002
3	0	8.749979778956913E+001	2.7547383E-001	-2.7036972E+002
3	0	8.799979777693807E+001	2.7513558E-001	-2.7039093E+002
3	0	8.849979776430700E+001	2.7476913E-001	-2.7036972E+002
3	0	8.899979775167594E+001	2.7441254E-001	-2.7037326E+002
3	0	8.949979773904488E+001	2.7403829E-001	-2.7036267E+002
3	0	8.999979772641382E+001	2.7366862E-001	-2.7038385E+002
3	0	9.049979771378275E+001	2.7334973E-001	-2.7035913E+002
3	0	9.099979770115169E+001	2.7302921E-001	-2.7035913E+002
3	0	9.149979768852063E+001	2.7270961E-001	-2.7037677E+002
3	0	9.199979767588957E+001	2.7238527E-001	-2.7039093E+002
3	0	9.249979766325851E+001	2.7206579E-001	-2.7039093E+002
3	0	9.299979765062744E+001	2.7173063E-001	-2.7038742E+002
3	0	9.349979763799638E+001	2.7138752E-001	-2.7034851E+002
3	0	9.399979762536532E+001	2.7105477E-001	-2.7036972E+002
3	0	9.449979761273426E+001	2.7076557E-001	-2.7036972E+002
3	0	9.499979760010319E+001	2.7047718E-001	-2.7039447E+002
3	0	9.549979758747213E+001	2.7019414E-001	-2.7037677E+002
3	0	9.599979757484107E+001	2.6990107E-001	-2.7038385E+002
3	0	9.649979756221001E+001	2.6960924E-001	-2.7036618E+002
3	0	9.699979754957894E+001	2.6930273E-001	-2.7037326E+002
3	0	9.749979753694788E+001	2.6898593E-001	-2.7039447E+002
3	0	9.799979752431682E+001	2.6868168E-001	-2.7034497E+002
3	0	9.849979751168576E+001	2.6841423E-001	-2.7038742E+002
3	0	9.899979749905469E+001	2.6815021E-001	-2.7038031E+002
3	0	9.949979748642363E+001	2.6788297E-001	-2.7039093E+002
3	0	9.999979747379257E+001	2.6761875E-001	-2.7036618E+002
3	0	1.004997974611615E+002	2.6735324E-001	-2.7036972E+002
3	0	1.009997974485304E+002	2.6707330E-001	-2.7036972E+002
3	0	1.014997974358994E+002	2.6677436E-001	-2.7039801E+002
3	0	1.019997974232683E+002	2.6649368E-001	-2.7038031E+002
3	0	1.024997974106373E+002	2.6625037E-001	-2.7040860E+002
3	0	1.029997973980062E+002	2.6601779E-001	-2.7037326E+002
3	0	1.034997973853751E+002	2.6577848E-001	-2.7036267E+002
3	0	1.039997973727441E+002	2.6553977E-001	-2.7037677E+002
3	0	1.044997973601130E+002	2.6530495E-001	-2.7039801E+002
3	0	1.049997973474819E+002	2.6503682E-001	-2.7036267E+002
3	0	1.050001973474718E+002	2.6487890E-001	-2.7037677E+002
3	0	1.505007961980300E+002	1.2781862E+000	-2.7036618E+002
3	0	1.510007961853989E+002	1.2769741E+000	-2.7041919E+002
3	0	1.515007961727679E+002	1.2492262E+000	-2.7038385E+002
3	0	1.520007961601368E+002	1.1907926E+000	-2.7038742E+002
3	0	1.525007961475058E+002	1.0318007E+000	-2.7037326E+002
3	0	1.530007961348747E+002	5.6463796E-001	-2.7039447E+002
3	0	1.535007961222436E+002	3.8202921E-001	-2.7037677E+002
3	0	1.540007961096126E+002	3.5349450E-001	-2.7039447E+002
3	0	1.545007960969815E+002	3.4315440E-001	-2.7040860E+002
3	0	1.550007960843504E+002	3.3524799E-001	-2.7036972E+002
3	0	1.555007960717194E+002	3.2935205E-001	-2.7040155E+002
3	0	1.560007960590883E+002	3.2490793E-001	-2.7038742E+002
3	0	1.565007960464573E+002	3.2145616E-001	-2.7038031E+002
3	0	1.570007960338262E+002	3.1869230E-001	-2.7036267E+002
3	0	1.575007960211951E+002	3.1640500E-001	-2.7035559E+002
3	0	1.580007960085641E+002	3.1449831E-001	-2.7036267E+002
3	0	1.585007959959330E+002	3.1288156E-001	-2.7036618E+002
3	0	1.590007959833019E+002	3.1145990E-001	-2.7036972E+002
3	0	1.595007959706709E+002	3.1020471E-001	-2.7038742E+002
3	0	1.600007959580398E+002	3.0907807E-001	-2.7037677E+002
3	0	1.605007959454088E+002	3.0803996E-001	-2.7039093E+002
3	0	1.610007959327777E+002	3.0705997E-001	-2.7039447E+002
3	0	1.615007959201466E+002	3.0612934E-001	-2.7036267E+002
3	0	1.620007959075156E+002	3.0526188E-001	-2.7038031E+002
3	0	1.625007958948845E+002	3.0447218E-001	-2.7037677E+002
3	0	1.630007958822534E+002	3.0371234E-001	-2.7036972E+002
3	0	1.635007958696224E+002	3.0297983E-001	-2.7036618E+002
3	0	1.640007958569913E+002	3.0227074E-001	-2.7039093E+002
3	0	1.645007958443603E+002	3.0158398E-001	-2.7038031E+002
3	0	1.650007958317292E+002	3.0089793E-001	-2.7036618E+002
3	0	1.655007958190981E+002	3.0021834E-001	-2.7037326E+002
3	0	1.660007958064671E+002	2.9955345E-001	-2.7038385E+002
3	0	1.665007957938360E+002	2.9893473E-001	-2.7038385E+002
3	0	1.670007957812049E+002	2.9832453E-001	-2.7037326E+002
3	0	1.675007957685739E+002	2.9772422E-001	-2.7035559E+002
3	0	1.680007957559428E+002	2.9713812E-001	-2.7039093E+002
3	0	1.685007957433118E+002	2.9655141E-001	-2.7039801E+002
3	0	1.690007957306807E+002	2.9596311E-001	-2.7037677E+002
3	0	1.695007957180496E+002	2.9536149E-001	-2.7035913E+002
3	0	1.700007957054186E+002	2.9478532E-001	-2.7038742E+002
3	0	1.705007956927875E+002	2.9423869E-001	-2.7038031E+002
3	0	1.710007956801564E+002	2.9369575E-001	-2.7035559E+002
3	0	1.715007956675254E+002	2.9315543E-001	-2.7037677E+002
3	0	1.720007956548943E+002	2.9262716E-001	-2.7035559E+002
3	0	1.725007956422633E+002	2.9209852E-001	-2.7038031E+002
3	0	1.730007956296322E+002	2.9156214E-001	-2.7036972E+002
3	0	1.735007956170011E+002	2.9100391E-001	-2.7038742E+002
3	0	1.740007956043701E+002	2.9046816E-001	-2.7040155E+002
3	0	1.745007955917390E+002	2.8997359E-001	-2.7038742E+002
3	0	1.750007955791079E+002	2.8947267E-001	-2.7036972E+002
3	0	1.755007955664769E+002	2.8897882E-001	-2.7038742E+002
3	0	1.760007955538458E+002	2.8849146E-001	-2.7038742E+002
3	0	1.765007955412148E+002	2.8799853E-001	-2.7036972E+002
3	0	1.770007955285837E+002	2.8749767E-001	-2.7036972E+002
3	0	1.775007955159526E+002	2.8698933E-001	-2.7036267E+002
3	0	1.780007955033216E+002	2.8648803E-001	-2.7039093E+002
3	0	1.785007954906905E+002	2.8601745E-001	-2.7037326E+002
3	0	1.790007954780594E+002	2.8554431E-001	-2.7038385E+002
3	0	1.795007954654284E+002	2.8507841E-001	-2.7035913E+002
3	0	1.800007954527973E+002	2.8461593E-001	-2.7040155E+002
3	0	1.805007954401663E+002	2.8415450E-001	-2.7035913E+002
3	0	1.810007954275352E+002	2.8368285E-001	-2.7036267E+002
3	0	1.815007954149041E+002	2.8319788E-001	-2.7038385E+002
3	0	1.820007954022731E+002	2.8274065E-001	-2.7038742E+002
3	0	1.825007953896420E+002	2.8231436E-001	-2.7038385E+002
3	0	1.830007953770109E+002	2.8189105E-001	-2.7035913E+002
3	0	1.835007953643799E+002	2.8145954E-001	-2.7036618E+002
3	0	1.840007953517488E+002	2.8104025E-001	-2.7036267E+002
3	0	1.845007953391178E+002	2.8062731E-001	-2.7038031E+002
3	0	1.850007953264867E+002	2.8020865E-001	-2.7039801E+002
3	0	1.855007953138556E+002	2.7976638E-001	-2.7038385E+002
3	0	1.860007953012246E+002	2.7933630E-001	-2.7038385E+002
3	0	1.865007952885935E+002	2.7894345E-001	-2.7038742E+002
3	0	1.870007952759624E+002	2.7855054E-001	-2.7035559E+002
3	0	1.875007952633314E+002	2.7815494E-001	-2.7037677E+002
3	0	1.880007952507003E+002	2.7775660E-001	-2.7037677E+002
3	0	1.885007952380693E+002	2.7736279E-001	-2.7036267E+002
3	0	1.890007952254382E+002	2.7696627E-001	-2.7035559E+002
3	0	1.895007952128071E+002	2.7655128E-001	-2.7036972E+002
3	0	1.900007952001761E+002	2.7615890E-001	-2.7036618E+002
3	0	1.905007951875450E+002	2.7581006E-001	-2.7038742E+002
3	0	1.910007951749139E+002	2.7544430E-001	-2.7038031E+002
3	0	1.915007951622829E+002	2.7509585E-001	-2.7037326E+002
3	0	1.920007951496518E+002	2.7472654E-001	-2.7036267E+002
3	0	1.925007951370208E+002	2.7438012E-001	-2.7038742E+002
3	0	1.930007951243897E+002	2.7401698E-001	-2.7038031E+002
3	0	1.935007951117586E+002	2.7362788E-001	-2.7039093E+002
3	0	1.940007950991276E+002	2.7327099E-001	-2.7038385E+002
3	0	1.945007950864965E+002	2.7293608E-001	-2.7036267E+002
3	0	1.950007950738654E+002	2.7260479E-001	-2.7039447E+002
3	0	1.955007950612344E+002	2.7226856E-001	-2.7037677E+002
3	0	1.960007950486033E+002	2.7194494E-001	-2.7038031E+002
3	0	1.965007950359723E+002	2.7161586E-001	-2.7040860E+002
3	0	1.970007950233412E+002	2.7128014E-001	-2.7037677E+002
3	0	1.975007950107101E+002	2.7092817E-001	-2.7039093E+002
3	0	1.980007949980791E+002	2.7059940E-001	-2.7037326E+002
3	0	1.985007949854480E+002	2.7030790E-001	-2.7035559E+002
3	0	1.990007949728169E+002	2.7000090E-001	-2.7036972E+002
3	0	1.995007949601859E+002	2.6968998E-001	-2.7038385E+002
3	0	2.000007949475548E+002	2.6939076E-001	-2.7035205E+002
3	0	2.005007949349238E+002	2.6909059E-001	-2.7036972E+002
3	0	2.010007949222927E+002	2.6878336E-001	-2.7039801E+002
3	0	2.015007949096616E+002	2.6845315E-001	-2.7036618E+002
3	0	2.020007948970306E+002	2.6814020E-001	-2.7038385E+002
3	0	2.025007948843995E+002	2.6787215E-001	-2.7036267E+002
3	0	2.030007948717684E+002	2.6759782E-001	-2.7037677E+002
3	0	2.035007948591374E+002	2.6731992E-001	-2.7034851E+002
3	0	2.040007948465063E+002	2.6704299E-001	-2.7036618E+002
3	0	2.045007948338753E+002	2.6677302E-001	-2.7036972E+002
3	0	2.050007948212442E+002	2.6649067E-001	-2.7037677E+002
3	0	2.055007948086131E+002	2.6618949E-001	-2.7038031E+002
3	0	2.060007947959821E+002	2.6590899E-001	-2.7037677E+002
3	0	2.065007947833510E+002	2.6566172E-001	-2.7038031E+002
3	0	2.070007947707199E+002	2.6541334E-001	-2.7037326E+002
3	0	2.075007947580889E+002	2.6514944E-001	-2.7038742E+002
3	0	2.080007947454578E+002	2.6489884E-001	-2.7037677E+002
3	0	2.085007947328268E+002	2.6465154E-001	-2.7037677E+002
3	0	2.090007947201957E+002	2.6438916E-001	-2.7039093E+002
3	0	2.095007947075646E+002	2.6411545E-001	-2.7039801E+002
3	0	2.100007946949336E+002	2.6384291E-001	-2.7036972E+002
3	0	2.100011946949235E+002	2.6376247E-001	-2.7038742E+002
3	0	2.555017935454816E+002	1.2780403E+000	-2.7036972E+002
3	0	2.560017935328506E+002	1.2768421E+000	-2.7038385E+002
3	0	2.565017935202195E+002	1.2493560E+000	-2.7037677E+002
3	0	2.570017935075884E+002	1.1913807E+000	-2.7039093E+002
3	0	2.575017934949574E+002	1.0358220E+000	-2.7037677E+002
3	0	2.580017934823263E+002	5.6874543E-001	-2.7036972E+002
3	0	2.585017934696953E+002	3.8200611E-001	-2.7037677E+002
3	0	2.590017934570642E+002	3.5328051E-001	-2.7036267E+002
3	0	2.595017934444331E+002	3.4291232E-001	-2.7038742E+002
3	0	2.600017934318021E+002	3.3499211E-001	-2.7036972E+002
3	0	2.605017934191710E+002	3.2910076E-001	-2.7038742E+002
3	0	2.610017934065399E+002	3.2464719E-001	-2.7037326E+002
3	0	2.615017933939089E+002	3.2118323E-001	-2.7036267E+002
3	0	2.620017933812778E+002	3.1843406E-001	-2.7037326E+002
3	0	2.625017933686468E+002	3.1619388E-001	-2.7036267E+002
3	0	2.630017933560157E+002	3.1431946E-001	-2.7037677E+002
3	0	2.635017933433846E+002	3.1271210E-001	-2.7037677E+002
3	0	2.640017933307536E+002	3.1130409E-001	-2.7038742E+002
3	0	2.645017933181225E+002	3.1005111E-001	-2.7035559E+002
3	0	2.650017933054914E+002	3.0891404E-001	-2.7039093E+002
3	0	2.655017932928604E+002	3.0784220E-001	-2.7036972E+002
3	0	2.660017932802293E+002	3.0685562E-001	-2.7038385E+002
3	0	2.665017932675983E+002	3.0596915E-001	-2.7038031E+002
3	0	2.670017932549672E+002	3.0512735E-001	-2.7039447E+002
3	0	2.675017932423361E+002	3.0433974E-001	-2.7036618E+002
3	0	2.680017932297051E+002	3.0357710E-001	-2.7036972E+002
3	0	2.685017932170740E+002	3.0284554E-001	-2.7038385E+002
3	0	2.690017932044429E+002	3.0212155E-001	-2.7039093E+002
3	0	2.695017931918119E+002	3.0139941E-001	-2.7037326E+002
3	0	2.700017931791808E+002	3.0070692E-001	-2.7036267E+002
3	0	2.705017931665498E+002	3.0006519E-001	-2.7037677E+002
3	0	2.710017931539187E+002	2.9943112E-001	-2.7035205E+002
3	0	2.715017931412876E+002	2.9881611E-001	-2.7039801E+002
3	0	2.720017931286566E+002	2.9820192E-001	-2.7036972E+002
3	0	2.725017931160255E+002	2.9760313E-001	-2.7038742E+002
3	0	2.730017931033944E+002	2.9699785E-001	-2.7036972E+002
3	0	2.735017930907634E+002	2.9637951E-001	-2.7034851E+002
3	0	2.740017930781323E+002	2.9578105E-001	-2.7036267E+002
3	0	2.745017930655013E+002	2.9522601E-001	-2.7037326E+002
3	0	2.750017930528702E+002	2.9467598E-001	-2.7038742E+002
3	0	2.755017930402391E+002	2.9413047E-001	-2.7036267E+002
3	0	2.760017930276081E+002	2.9358304E-001	-2.7037677E+002
3	0	2.765017930149770E+002	2.9304752E-001	-2.7038385E+002
3	0	2.770017930023459E+002	2.9249337E-001	-2.7035559E+002
3	0	2.775017929897149E+002	2.9192948E-001	-2.7038031E+002
3	0	2.780017929770838E+002	2.9137802E-001	-2.7035205E+002
3	0	2.785017929644528E+002	2.9086968E-001	-2.7037326E+002
3	0	2.790017929518217E+002	2.9035863E-001	-2.7037677E+002
3	0	2.795017929391906E+002	2.8985816E-001	-2.7034851E+002
3	0	2.800017929265596E+002	2.8934899E-001	-2.7038031E+002
3	0	2.805017929139285E+002	2.8885502E-001	-2.7037677E+002
3	0	2.810017929012974E+002	2.8834271E-001	-2.7036267E+002
3	0	2.815017928886664E+002	2.8781316E-001	-2.7038031E+002
3	0	2.820017928760353E+002	2.8730726E-001	-2.7037677E+002
3	0	2.825017928634043E+002	2.8683627E-001	-2.7035559E+002
3	0	2.830017928507732E+002	2.8635904E-001	-2.7038385E+002
3	0	2.835017928381421E+002	2.8588668E-001	-2.7035559E+002
3	0	2.840017928255111E+002	2.8542113E-001	-2.7035913E+002
3	0	2.845017928128800E+002	2.8496000E-001	-2.7038742E+002
3	0	2.850017928002490E+002	2.8448492E-001	-2.7037677E+002
3	0	2.855017927876179E+002	2.8400159E-001	-2.7039447E+002
3	0	2.860017927749868E+002	2.8353143E-001	-2.7037326E+002
3	0	2.865017927623558E+002	2.8308898E-001	-2.7035913E+002
3	0	2.870017927497247E+002	2.8264618E-001	-2.7038031E+002
3	0	2.875017927370936E+002	2.8220698E-001	-2.7039447E+002
3	0	2.880017927244626E+002	2.8177601E-001	-2.7035913E+002
3	0	2.885017927118315E+002	2.8134981E-001	-2.7035559E+002
3	0	2.890017926992005E+002	2.8090498E-001	-2.7035913E+002
3	0	2.895017926865694E+002	2.8045693E-001	-2.7037326E+002
3	0	2.900017926739383E+002	2.8002575E-001	-2.7040506E+002
3	0	2.905017926613073E+002	2.7961847E-001	-2.7038385E+002
3	0	2.910017926486762E+002	2.7920544E-001	-2.7039801E+002
3	0	2.915017926360451E+002	2.7880639E-001	-2.7036618E+002
3	0	2.920017926234141E+002	2.7840382E-001	-2.7038031E+002
3	0	2.925017926107830E+002	2.7800494E-001	-2.7039447E+002
3	0	2.930017925981520E+002	2.7760202E-001	-2.7036618E+002
3	0	2.935017925855209E+002	2.7718478E-001	-2.7036972E+002
3	0	2.940017925728898E+002	2.7677941E-001	-2.7036618E+002
3	0	2.945017925602588E+002	2.7641088E-001	-2.7037677E+002
3	0	2.950017925476277E+002	2.7603576E-001	-2.7036618E+002
3	0	2.955017925349966E+002	2.7567154E-001	-2.7036972E+002
3	0	2.960017925223656E+002	2.7531096E-001	-2.7036267E+002
3	0	2.965017925097345E+002	2.7494270E-001	-2.7038031E+002
3	0	2.970017924971035E+002	2.7456865E-001	-2.7036618E+002
3	0	2.975017924844724E+002	2.7417898E-001	-2.7039447E+002
3	0	2.980017924718413E+002	2.7381277E-001	-2.7036972E+002
3	0	2.985017924592103E+002	2.7346689E-001	-2.7038385E+002
3	0	2.990017924465792E+002	2.7312148E-001	-2.7036618E+002
3	0	2.995017924339481E+002	2.7278274E-001	-2.7035913E+002
3	0	3.000017924213171E+002	2.7244410E-001	-2.7035559E+002
3	0	3.005017924086860E+002	2.7208874E-001	-2.7039093E+002
3	0	3.010017923960550E+002	2.7172604E-001	-2.7038742E+002
3	0	3.015017923834239E+002	2.7138266E-001	-2.7037326E+002
3	0	3.020017923707928E+002	2.7105209E-001	-2.7036267E+002
3	0	3.025017923581618E+002	2.7076325E-001	-2.7036972E+002
3	0	3.030017923455307E+002	2.7045432E-001	-2.7039447E+002
3	0	3.035017923328996E+002	2.7014884E-001	-2.7039093E+002
3	0	3.040017923202686E+002	2.6983821E-001	-2.7039447E+002
3	0	3.045017923076375E+002	2.6952809E-001	-2.7035205E+002
3	0	3.050017922950065E+002	2.6920912E-001	-2.7037677E+002
3	0	3.055017922823754E+002	2.6887667E-001	-2.7039093E+002
3	0	3.060017922697443E+002	2.6854900E-001	-2.7036267E+002
3	0	3.065017922571133E+002	2.6826566E-001	-2.7035913E+002
3	0	3.070017922444822E+002	2.6798362E-001	-2.7036972E+002
3	0	3.075017922318511E+002	2.6770434E-001	-2.7037677E+002
3	0	3.080017922192201E+002	2.6741675E-001	-2.7039801E+002
3	0	3.085017922065890E+002	2.6712635E-001	-2.7041214E+002
3	0	3.090017921939580E+002	2.6682782E-001	-2.7037326E+002
3	0	3.095017921813269E+002	2.6652047E-001	-2.7038385E+002
3	0	3.100017921686958E+002	2.6622525E-001	-2.7036972E+002
3	0	3.105017921560648E+002	2.6596823E-001	-2.7035205E+002
3	0	3.110017921434337E+002	2.6571459E-001	-2.7035913E+002
3	0	3.115017921308026E+002	2.6546884E-001	-2.7038385E+002
3	0	3.120017921181716E+002	2.6520661E-001	-2.7035559E+002
3	0	3.125017921055405E+002	2.6494157E-001	-2.7038385E+002
3	0	3.130017920929095E+002	2.6467434E-001	-2.7037326E+002
3	0	3.135017920802784E+002	2.6438373E-001	-2.7039447E+002
3	0	3.140017920676473E+002	2.6411921E-001	-2.7039093E+002
3	0	3.145017920550163E+002	2.6387507E-001	-2.7035913E+002
3	0	3.150017920423852E+002	2.6365101E-001	-2.7036267E+002
3	0	3.150021920423751E+002	2.6340944E-001	-2.7039093E+002
3	0	3.605027908929333E+002	1.2780341E+000	-2.7038742E+002
3	0	3.610027908803022E+002	1.2767230E+000	-2.7038742E+002
3	0	3.615027908676711E+002	1.2490386E+000	-2.7038742E+002
3	0	3.620027908550401E+002	1.1915063E+000	-2.7039801E+002
3	0	3.625027908424090E+002	1.0336756E+000	-2.7036972E+002
3	0	3.630027908297780E+002	5.6279492E-001	-2.7038742E+002
3	0	3.635027908171469E+002	3.8191611E-001	-2.7035559E+002
3	0	3.640027908045158E+002	3.5428074E-001	-2.7036972E+002
3	0	3.645027907918848E+002	3.4386376E-001	-2.7039093E+002
3	0	3.650027907792537E+002	3.3591905E-001	-2.7038742E+002
3	0	3.655027907666226E+002	3.3001351E-001	-2.7038742E+002
3	0	3.660027907539916E+002	3.2557526E-001	-2.7038385E+002
3	0	3.665027907413605E+002	3.2214931E-001	-2.7037326E+002
3	0	3.670027907287295E+002	3.1942227E-001	-2.7038031E+002
3	0	3.675027907160984E+002	3.1718498E-001	-2.7035559E+002
3	0	3.680027907034673E+002	3.1529906E-001	-2.7037677E+002
3	0	3.685027906908363E+002	3.1368572E-001	-2.7037326E+002
3	0	3.690027906782052E+002	3.1224728E-001	-2.7039801E+002
3	0	3.695027906655741E+002	3.1095049E-001	-2.7038742E+002
3	0	3.700027906529431E+002	3.0978802E-001	-2.7037677E+002
3	0	3.705027906403120E+002	3.0875787E-001	-2.7040860E+002
3	0	3.710027906276810E+002	3.0779779E-001	-2.7037677E+002
3	0	3.715027906150499E+002	3.0689836E-001	-2.7037677E+002
3	0	3.720027906024188E+002	3.0605167E-001	-2.7037326E+002
3	0	3.725027905897878E+002	3.0524343E-001	-2.7035913E+002
3	0	3.730027905771567E+002	3.0445680E-001	-2.7038031E+002
3	0	3.735027905645256E+002	3.0368418E-001	-2.7037677E+002
3	0	3.740027905518946E+002	3.0294684E-001	-2.7036618E+002
3	0	3.745027905392635E+002	3.0225769E-001	-2.7036267E+002
3	0	3.750027905266325E+002	3.0159092E-001	-2.7036618E+002
3	0	3.755027905140014E+002	3.0093408E-001	-2.7038742E+002
3	0	3.760027905013703E+002	3.0029359E-001	-2.7036618E+002
3	0	3.765027904887393E+002	2.9967198E-001	-2.7036972E+002
3	0	3.770027904761082E+002	2.9904065E-001	-2.7038385E+002
3	0	3.775027904634771E+002	2.9840359E-001	-2.7036972E+002
3	0	3.780027904508461E+002	2.9778486E-001	-2.7038031E+002
3	0	3.785027904382150E+002	2.9720819E-001	-2.7036618E+002
3	0	3.790027904255840E+002	2.9663572E-001	-2.7038742E+002
3	0	3.795027904129529E+002	2.9606885E-001	-2.7038031E+002
3	0	3.800027904003218E+002	2.9550651E-001	-2.7036618E+002
3	0	3.805027903876908E+002	2.9495126E-001	-2.7034497E+002
3	0	3.810027903750597E+002	2.9438737E-001	-2.7037677E+002
3	0	3.815027903624286E+002	2.9380780E-001	-2.7038742E+002
3	0	3.820027903497976E+002	2.9324523E-001	-2.7036972E+002
3	0	3.825027903371665E+002	2.9272103E-001	-2.7035913E+002
3	0	3.830027903245355E+002	2.9220119E-001	-2.7038385E+002
3	0	3.835027903119044E+002	2.9168633E-001	-2.7038031E+002
3	0	3.840027902992733E+002	2.9116887E-001	-2.7037326E+002
3	0	3.845027902866423E+002	2.9064879E-001	-2.7037677E+002
3	0	3.850027902740112E+002	2.9013884E-001	-2.7039801E+002
3	0	3.855027902613801E+002	2.8960216E-001	-2.7038031E+002
3	0	3.860027902487491E+002	2.8908458E-001	-2.7038031E+002
3	0	3.865027902361180E+002	2.8860253E-001	-2.7037677E+002
3	0	3.870027902234870E+002	2.8811544E-001	-2.7037677E+002
3	0	3.875027902108559E+002	2.8763196E-001	-2.7038385E+002
3	0	3.880027901982248E+002	2.8715289E-001	-2.7034851E+002
3	0	3.885027901855938E+002	2.8668234E-001	-2.7037326E+002
3	0	3.890027901729627E+002	2.8618914E-001	-2.7039801E+002
3	0	3.895027901603316E+002	2.8568459E-001	-2.7036618E+002
3	0	3.900027901477006E+002	2.8520140E-001	-2.7040155E+002
3	0	3.905027901350695E+002	2.8474832E-001	-2.7038031E+002
3	0	3.910027901224385E+002	2.8430846E-001	-2.7039093E+002
3	0	3.915027901098074E+002	2.8386050E-001	-2.7038031E+002
3	0	3.920027900971763E+002	2.8341535E-001	-2.7039093E+002
3	0	3.925027900845453E+002	2.8296429E-001	-2.7037326E+002
3	0	3.930027900719142E+002	2.8251734E-001	-2.7036972E+002
3	0	3.935027900592831E+002	2.8205466E-001	-2.7034143E+002
3	0	3.940027900466521E+002	2.8161332E-001	-2.7039447E+002
3	0	3.945027900340210E+002	2.8119892E-001	-2.7036618E+002
3	0	3.950027900213900E+002	2.8078848E-001	-2.7036972E+002
3	0	3.955027900087589E+002	2.8038430E-001	-2.7038742E+002
3	0	3.960027899961278E+002	2.7998298E-001	-2.7036618E+002
3	0	3.965027899834968E+002	2.7957246E-001	-2.7038031E+002
3	0	3.970027899708657E+002	2.7915207E-001	-2.7037677E+002
3	0	3.975027899582346E+002	2.7872020E-001	-2.7035913E+002
3	0	3.980027899456036E+002	2.7830690E-001	-2.7037677E+002
3	0	3.985027899329725E+002	2.7792397E-001	-2.7037677E+002
3	0	3.990027899203415E+002	2.7754799E-001	-2.7039801E+002
3	0	3.995027899077104E+002	2.7717379E-001	-2.7038031E+002
3	0	4.000027898950793E+002	2.7679333E-001	-2.7038742E+002
3	0	4.005027898824483E+002	2.7642089E-001	-2.7038385E+002
3	0	4.010027898698172E+002	2.7603206E-001	-2.7036972E+002
3	0	4.015027898571861E+002	2.7563581E-001	-2.7038385E+002
3	0	4.020027898445551E+002	2.7526236E-001	-2.7038742E+002
3	0	4.025027898319240E+002	2.7491093E-001	-2.7037326E+002
3	0	4.030027898192930E+002	2.7457249E-001	-2.7038385E+002
3	0	4.035027898066619E+002	2.7422050E-001	-2.7036267E+002
3	0	4.040027897940308E+002	2.7388445E-001	-2.7038031E+002
3	0	4.045027897813998E+002	2.7352402E-001	-2.7037677E+002
3	0	4.050027897687687E+002	2.7316183E-001	-2.7041214E+002
3	0	4.055027897561376E+002	2.7279133E-001	-2.7035913E+002
3	0	4.060027897435066E+002	2.7243811E-001	-2.7037326E+002
3	0	4.065027897308755E+002	2.7211905E-001	-2.7038031E+002
3	0	4.070027897182445E+002	2.7180070E-001	-2.7038385E+002
3	0	4.075027897056134E+002	2.7148446E-001	-2.7038385E+002
3	0	4.080027896929823E+002	2.7115744E-001	-2.7035913E+002
3	0	4.085027896803513E+002	2.7084291E-001	-2.7038031E+002
3	0	4.090027896677202E+002	2.7051276E-001	-2.7035913E+002
3	0	4.095027896550891E+002	2.7017620E-001	-2.7038742E+002
3	0	4.100027896424581E+002	2.6984507E-001	-2.7039801E+002
3	0	4.105027896298270E+002	2.6955467E-001	-2.7035559E+002
3	0	4.110027896171960E+002	2.6926202E-001	-2.7039447E+002
3	0	4.115027896045649E+002	2.6897410E-001	-2.7038031E+002
3	0	4.120027895919338E+002	2.6868021E-001	-2.7041919E+002
3	0	4.125027895793028E+002	2.6839262E-001	-2.7036972E+002
3	0	4.130027895666717E+002	2.6808563E-001	-2.7038385E+002
3	0	4.135027895540406E+002	2.6777583E-001	-2.7036267E+002
3	0	4.140027895414096E+002	2.6747680E-001	-2.7038031E+002
3	0	4.145027895287785E+002	2.6721421E-001	-2.7039447E+002
3	0	4.150027895161475E+002	2.6694584E-001	-2.7038742E+002
3	0	4.155027895035164E+002	2.6668584E-001	-2.7037677E+002
3	0	4.160027894908853E+002	2.6642287E-001	-2.7036972E+002
3	0	4.165027894782543E+002	2.6615828E-001	-2.7037326E+002
3	0	4.170027894656232E+002	2.6588097E-001	-2.7038742E+002
3	0	4.175027894529921E+002	2.6559457E-001	-2.7038031E+002
3	0	4.180027894403611E+002	2.6532960E-001	-2.7038742E+002
3	0	4.185027894277300E+002	2.6508790E-001	-2.7038385E+002
3	0	4.190027894150990E+002	2.6485354E-001	-2.7038385E+002
3	0	4.195027894024679E+002	2.6461583E-001	-2.7038385E+002
3	0	4.200027893898368E+002	2.6437402E-001	-2.7036267E+002
3	0	4.200031893898267E+002	2.6419187E-001	-2.7038031E+002
3	0	4.655037882403849E+002	1.2780302E+000	-2.7035205E+002
3	0	4.660037882277538E+002	1.2769228E+000	-2.7038031E+002
3	0	4.665037882151228E+002	1.2493211E+000	-2.7036267E+002
3	0	4.670037882024917E+002	1.1909013E+000	-2.7036618E+002
3	0	4.675037881898606E+002	1.0324266E+000	-2.7039447E+002
3	0	4.680037881772296E+002	5.6472874E-001	-2.7035913E+002
3	0	4.685037881645985E+002	3.8149682E-001	-2.7037326E+002
3	0	4.690037881519675E+002	3.5318810E-001	-2.7036972E+002
3	0	4.695037881393364E+002	3.4287265E-001	-2.7039447E+002
3	0	4.700037881267053E+002	3.3495510E-001	-2.7036267E+002
3	0	4.705037881140743E+002	3.2905960E-001	-2.7038742E+002
3	0	4.710037881014432E+002	3.2462338E-001	-2.7038031E+002
3	0	4.715037880888121E+002	3.2118765E-001	-2.7035913E+002
3	0	4.720037880761811E+002	3.1845155E-001	-2.7038385E+002
3	0	4.725037880635500E+002	3.1619787E-001	-2.7036618E+002
3	0	4.730037880509190E+002	3.1430236E-001	-2.7038385E+002
3	0	4.735037880382879E+002	3.1264830E-001	-2.7038031E+002
3	0	4.740037880256568E+002	3.1120422E-001	-2.7037677E+002
3	0	4.745037880130258E+002	3.0995658E-001	-2.7036972E+002
3	0	4.750037880003947E+002	3.0882800E-001	-2.7037326E+002
3	0	4.755037879877636E+002	3.0779028E-001	-2.7036972E+002
3	0	4.760037879751326E+002	3.0682543E-001	-2.7038385E+002
3	0	4.765037879625015E+002	3.0591732E-001	-2.7039447E+002
3	0	4.770037879498705E+002	3.0505601E-001	-2.7037677E+002
3	0	4.775037879372394E+002	3.0422863E-001	-2.7036618E+002
3	0	4.780037879246083E+002	3.0343899E-001	-2.7037677E+002
3	0	4.785037879119773E+002	3.0270422E-001	-2.7037326E+002
3	0	4.790037878993462E+002	3.0199969E-001	-2.7036618E+002
3	0	4.795037878867151E+002	3.0131167E-001	-2.7038742E+002
3	0	4.800037878740841E+002	3.0064499E-001	-2.7038031E+002
3	0	4.805037878614530E+002	3.0000034E-001	-2.7038031E+002
3	0	4.810037878488220E+002	2.9934967E-001	-2.7038031E+002
3	0	4.815037878361909E+002	2.9868871E-001	-2.7035913E+002
3	0	4.820037878235598E+002	2.9804608E-001	-2.7037326E+002
3	0	4.825037878109288E+002	2.9744866E-001	-2.7037326E+002
3	0	4.830037877982977E+002	2.9686090E-001	-2.7038742E+002
3	0	4.835037877856666E+002	2.9627907E-001	-2.7035913E+002
3	0	4.840037877730356E+002	2.9570925E-001	-2.7037326E+002
3	0	4.845037877604045E+002	2.9514197E-001	-2.7036972E+002
3	0	4.850037877477735E+002	2.9457447E-001	-2.7038031E+002
3	0	4.855037877351424E+002	2.9398170E-001	-2.7035205E+002
3	0	4.860037877225113E+002	2.9340640E-001	-2.7038742E+002
3	0	4.865037877098803E+002	2.9286578E-001	-2.7036972E+002
3	0	4.870037876972492E+002	2.9233119E-001	-2.7038742E+002
3	0	4.875037876846181E+002	2.9180589E-001	-2.7035913E+002
3	0	4.880037876719871E+002	2.9127297E-001	-2.7037326E+002
3	0	4.885037876593560E+002	2.9074961E-001	-2.7037677E+002
3	0	4.890037876467250E+002	2.9022360E-001	-2.7035913E+002
3	0	4.895037876340939E+002	2.8968096E-001	-2.7039447E+002
3	0	4.900037876214628E+002	2.8914872E-001	-2.7039801E+002
3	0	4.905037876088318E+002	2.8865179E-001	-2.7039447E+002
3	0	4.910037875962007E+002	2.8815961E-001	-2.7035559E+002
3	0	4.915037875835696E+002	2.8766823E-001	-2.7035205E+002
3	0	4.920037875709386E+002	2.8718236E-001	-2.7038742E+002
3	0	4.925037875583075E+002	2.8670338E-001	-2.7037677E+002
3	0	4.930037875456765E+002	2.8620529E-001	-2.7037677E+002
3	0	4.935037875330454E+002	2.8568929E-001	-2.7038031E+002
3	0	4.940037875204143E+002	2.8520191E-001	-2.7035205E+002
3	0	4.945037875077833E+002	2.8475267E-001	-2.7036972E+002
3	0	4.950037874951522E+002	2.8430259E-001	-2.7036618E+002
3	0	4.955037874825211E+002	2.8384468E-001	-2.7038031E+002
3	0	4.960037874698901E+002	2.8339207E-001	-2.7038031E+002
3	0	4.965037874572590E+002	2.8294209E-001	-2.7038031E+002
3	0	4.970037874446280E+002	2.8248233E-001	-2.7038031E+002
3	0	4.975037874319969E+002	2.8201330E-001	-2.7035913E+002
3	0	4.980037874193658E+002	2.8155601E-001	-2.7036267E+002
3	0	4.985037874067348E+002	2.8112897E-001	-2.7038031E+002
3	0	4.990037873941037E+002	2.8071555E-001	-2.7037677E+002
3	0	4.995037873814726E+002	2.8030843E-001	-2.7034851E+002
3	0	5.000037873688416E+002	2.7989832E-001	-2.7039093E+002
3	0	5.005037873562105E+002	2.7948138E-001	-2.7040506E+002
3	0	5.010037873435795E+002	2.7905241E-001	-2.7038031E+002
3	0	5.015037873309484E+002	2.7860937E-001	-2.7036972E+002
3	0	5.020037873183173E+002	2.7818024E-001	-2.7038031E+002
3	0	5.025037873056863E+002	2.7779204E-001	-2.7037677E+002
3	0	5.030037872930552E+002	2.7740762E-001	-2.7038031E+002
3	0	5.035037872804241E+002	2.7702776E-001	-2.7035205E+002
3	0	5.040037872677931E+002	2.7663627E-001	-2.7038742E+002
3	0	5.045037872551620E+002	2.7625135E-001	-2.7037677E+002
3	0	5.050037872425310E+002	2.7586153E-001	-2.7037326E+002
3	0	5.055037872298999E+002	2.7545378E-001	-2.7038742E+002
3	0	5.060037872172688E+002	2.7507260E-001	-2.7039447E+002
3	0	5.065037872046378E+002	2.7470490E-001	-2.7039801E+002
3	0	5.070037871920067E+002	2.7436286E-001	-2.7040155E+002
3	0	5.075037871793756E+002	2.7401000E-001	-2.7038031E+002
3	0	5.080037871667446E+002	2.7365214E-001	-2.7038742E+002
3	0	5.085037871541135E+002	2.7329892E-001	-2.7037677E+002
3	0	5.090037871414825E+002	2.7292678E-001	-2.7037677E+002
3	0	5.095037871288514E+002	2.7254313E-001	-2.7036972E+002
3	0	5.100037871162203E+002	2.7217439E-001	-2.7037326E+002
3	0	5.105037871035893E+002	2.7184182E-001	-2.7038742E+002
3	0	5.110037870909582E+002	2.7152005E-001	-2.7037326E+002
3	0	5.115037870783272E+002	2.7119520E-001	-2.7037677E+002
3	0	5.120037870656961E+002	2.7087370E-001	-2.7036267E+002
3	0	5.125037870530650E+002	2.7055231E-001	-2.7035205E+002
3	0	5.130037870404340E+002	2.7021864E-001	-2.7039447E+002
3	0	5.135037870278029E+002	2.6986095E-001	-2.7037677E+002
3	0	5.140037870151718E+002	2.6953024E-001	-2.7034851E+002
3	0	5.145037870025408E+002	2.6922956E-001	-2.7037326E+002
3	0	5.150037869899097E+002	2.6894033E-001	-2.7036267E+002
3	0	5.155037869772787E+002	2.6864555E-001	-2.7040506E+002
3	0	5.160037869646476E+002	2.6834750E-001	-2.7038031E+002
3	0	5.165037869520165E+002	2.6805279E-001	-2.7035913E+002
3	0	5.170037869393855E+002	2.6774710E-001	-2.7038385E+002
3	0	5.175037869267544E+002	2.6741531E-001	-2.7035559E+002
3	0	5.180037869141233E+002	2.6710710E-001	-2.7039093E+002
3	0	5.185037869014923E+002	2.6683259E-001	-2.7037326E+002
3	0	5.190037868888612E+002	2.6656613E-001	-2.7038742E+002
3	0	5.195037868762302E+002	2.6629859E-001	-2.7037677E+002
3	0	5.200037868635991E+002	2.6603577E-001	-2.7039093E+002
3	0	5.205037868509680E+002	2.6576358E-001	-2.7037677E+002
3	0	5.210037868383370E+002	2.6549113E-001	-2.7037326E+002
3	0	5.215037868257059E+002	2.6519006E-001	-2.7038385E+002
3	0	5.220037868130748E+002	2.6490754E-001	-2.7036267E+002
3	0	5.225037868004438E+002	2.6465914E-001	-2.7036618E+002
3	0	5.230037867878127E+002	2.6440576E-001	-2.7040860E+002
3	0	5.235037867751817E+002	2.6416045E-001	-2.7035559E+002
3	0	5.240037867625506E+002	2.6390252E-001	-2.7038031E+002
3	0	5.245037867499195E+002	2.6365510E-001	-2.7038742E+002
3	0	5.250037867372885E+002	2.6339504E-001	-2.7035913E+002
3	0	5.250041867372784E+002	2.6319951E-001	-2.7037677E+002
3	0	5.705047855878365E+002	1.2781283E+000	-2.7036972E+002
3	0	5.710047855752055E+002	1.2770547E+000	-2.7036618E+002
3	0	5.715047855625744E+002	1.2500991E+000	-2.7037677E+002
3	0	5.720047855499433E+002	1.1932710E+000	-2.7039447E+002
3	0	5.725047855373123E+002	1.0443006E+000	-2.7035913E+002
3	0	5.730047855246812E+002	5.8240330E-001	-2.7038031E+002
3	0	5.735047855120501E+002	3.8376546E-001	-2.7037326E+002
3	0	5.740047854994191E+002	3.5286605E-001	-2.7037677E+002
3	0	5.745047854867880E+002	3.4248221E-001	-2.7036618E+002
3	0	5.750047854741570E+002	3.3452260E-001	-2.7038742E+002
3	0	5.755047854615259E+002	3.2857069E-001	-2.7037326E+002
3	0	5.760047854488948E+002	3.2409093E-001	-2.7039093E+002
3	0	5.765047854362638E+002	3.2061577E-001	-2.7037677E+002
3	0	5.770047854236327E+002	3.1784451E-001	-2.7037677E+002
3	0	5.775047854110016E+002	3.1554195E-001	-2.7038742E+002
3	0	5.780047853983706E+002	3.1363511E-001	-2.7038742E+002
3	0	5.785047853857395E+002	3.1200680E-001	-2.7036972E+002
3	0	5.790047853731085E+002	3.1058541E-001	-2.7038385E+002
3	0	5.795047853604774E+002	3.0933791E-001	-2.7037326E+002
3	0	5.800047853478463E+002	3.0819973E-001	-2.7036618E+002
3	0	5.805047853352153E+002	3.0715594E-001	-2.7035559E+002
3	0	5.810047853225842E+002	3.0617580E-001	-2.7036618E+002
3	0	5.815047853099531E+002	3.0524215E-001	-2.7034851E+002
3	0	5.820047852973221E+002	3.0438715E-001	-2.7040155E+002
3	0	5.825047852846910E+002	3.0359152E-001	-2.7038031E+002
3	0	5.830047852720600E+002	3.0282211E-001	-2.7038385E+002
3	0	5.835047852594289E+002	3.0208656E-001	-2.7039093E+002
3	0	5.840047852467978E+002	3.0137801E-001	-2.7037677E+002
3	0	5.845047852341668E+002	3.0068344E-001	-2.7040155E+002
3	0	5.850047852215357E+002	3.0000719E-001	-2.7039447E+002
3	0	5.855047852089047E+002	2.9932374E-001	-2.7039093E+002
3	0	5.860047851962736E+002	2.9866090E-001	-2.7037677E+002
3	0	5.865047851836425E+002	2.9803964E-001	-2.7036267E+002
3	0	5.870047851710115E+002	2.9742596E-001	-2.7037326E+002
3	0	5.875047851583804E+002	2.9682502E-001	-2.7038742E+002
3	0	5.880047851457493E+002	2.9622629E-001	-2.7037326E+002
3	0	5.885047851331183E+002	2.9561290E-001	-2.7037677E+002
3	0	5.890047851204872E+002	2.9502392E-001	-2.7039093E+002
3	0	5.895047851078562E+002	2.9444444E-001	-2.7037326E+002
3	0	5.900047850952251E+002	2.9387665E-001	-2.7038031E+002
3	0	5.905047850825940E+002	2.9333523E-001	-2.7039093E+002
3	0	5.910047850699630E+002	2.9279503E-001	-2.7035913E+002
3	0	5.915047850573319E+002	2.9225031E-001	-2.7036618E+002
3	0	5.920047850447008E+002	2.9172188E-001	-2.7038031E+002
3	0	5.925047850320698E+002	2.9118505E-001	-2.7038385E+002
3	0	5.930047850194387E+002	2.9064083E-001	-2.7040155E+002
3	0	5.935047850068077E+002	2.9009247E-001	-2.7037677E+002
3	0	5.940047849941766E+002	2.8954628E-001	-2.7037677E+002
3	0	5.945047849815455E+002	2.8904110E-001	-2.7036618E+002
3	0	5.950047849689145E+002	2.8853256E-001	-2.7036618E+002
3	0	5.955047849562834E+002	2.8802595E-001	-2.7037326E+002
3	0	5.960047849436523E+002	2.8752649E-001	-2.7038742E+002
3	0	5.965047849310213E+002	2.8702468E-001	-2.7038385E+002
3	0	5.970047849183902E+002	2.8651842E-001	-2.7035913E+002
3	0	5.975047849057592E+002	2.8600010E-001	-2.7037677E+002
3	0	5.980047848931281E+002	2.8550357E-001	-2.7037677E+002
3	0	5.985047848804970E+002	2.8504157E-001	-2.7038031E+002
3	0	5.990047848678660E+002	2.8457999E-001	-2.7036972E+002
3	0	5.995047848552349E+002	2.8411496E-001	-2.7039093E+002
3	0	6.000047848426038E+002	2.8365481E-001	-2.7036618E+002
3	0	6.005047848299728E+002	2.8319132E-001	-2.7035913E+002
3	0	6.010047848173417E+002	2.8271589E-001	-2.7037677E+002
3	0	6.015047848047107E+002	2.8223431E-001	-2.7039801E+002
3	0	6.020047847920796E+002	2.8177860E-001	-2.7038031E+002
3	0	6.025047847794485E+002	2.8134987E-001	-2.7037326E+002
3	0	6.030047847668175E+002	2.8091931E-001	-2.7039093E+002
3	0	6.035047847541864E+002	2.8049463E-001	-2.7038385E+002
3	0	6.040047847415553E+002	2.8007510E-001	-2.7037677E+002
3	0	6.045047847289243E+002	2.7964571E-001	-2.7038385E+002
3	0	6.050047847162932E+002	2.7920637E-001	-2.7038031E+002
3	0	6.055047847036622E+002	2.7875811E-001	-2.7038031E+002
3	0	6.060047846910311E+002	2.7832833E-001	-2.7038031E+002
3	0	6.065047846784000E+002	2.7793211E-001	-2.7038742E+002
3	0	6.070047846657690E+002	2.7753791E-001	-2.7037326E+002
3	0	6.075047846531379E+002	2.7714512E-001	-2.7038742E+002
3	0	6.080047846405068E+002	2.7675104E-001	-2.7035559E+002
3	0	6.085047846278758E+002	2.7635434E-001	-2.7038742E+002
3	0	6.090047846152447E+002	2.7594796E-001	-2.7039447E+002
3	0	6.095047846026137E+002	2.7553493E-001	-2.7037677E+002
3	0	6.100047845899826E+002	2.7514985E-001	-2.7038742E+002
3	0	6.105047845773515E+002	2.7477711E-001	-2.7038031E+002
3	0	6.110047845647205E+002	2.7442786E-001	-2.7036972E+002
3	0	6.115047845520894E+002	2.7406463E-001	-2.7038385E+002
3	0	6.120047845394583E+002	2.7369738E-001	-2.7036618E+002
3	0	6.125047845268273E+002	2.7333266E-001	-2.7036267E+002
3	0	6.130047845141962E+002	2.7294990E-001	-2.7038742E+002
3	0	6.135047845015652E+002	2.7256969E-001	-2.7036972E+002
3	0	6.140047844889341E+002	2.7219942E-001	-2.7036267E+002
3	0	6.145047844763030E+002	2.7186760E-001	-2.7037326E+002
3	0	6.150047844636720E+002	2.7153134E-001	-2.7038031E+002
3	0	6.155047844510409E+002	2.7119589E-001	-2.7036267E+002
3	0	6.160047844384098E+002	2.7086973E-001	-2.7037326E+002
3	0	6.165047844257788E+002	2.7054030E-001	-2.7039093E+002
3	0	6.170047844131477E+002	2.7020350E-001	-2.7036972E+002
3	0	6.175047844005167E+002	2.6983854E-001	-2.7037326E+002
3	0	6.180047843878856E+002	2.6949361E-001	-2.7039093E+002
3	0	6.185047843752545E+002	2.6919106E-001	-2.7038742E+002
3	0	6.190047843626235E+002	2.6889411E-001	-2.7036972E+002
3	0	6.195047843499924E+002	2.6858404E-001	-2.7035559E+002
3	0	6.200047843373613E+002	2.6827756E-001	-2.7036618E+002
3	0	6.205047843247303E+002	2.6797235E-001	-2.7036972E+002
3	0	6.210047843120992E+002	2.6765773E-001	-2.7037326E+002
3	0	6.215047842994682E+002	2.6732218E-001	-2.7038385E+002
3	0	6.220047842868371E+002	2.6701134E-001	-2.7037677E+002
3	0	6.225047842742060E+002	2.6673320E-001	-2.7040506E+002
3	0	6.230047842615750E+002	2.6646793E-001	-2.7039447E+002
3	0	6.235047842489439E+002	2.6618665E-001	-2.7036618E+002
3	0	6.240047842363128E+002	2.6591182E-001	-2.7035913E+002
3	0	6.245047842236818E+002	2.6563296E-001	-2.7036618E+002
3	0	6.250047842110507E+002	2.6534626E-001	-2.7036972E+002
3	0	6.255047841984197E+002	2.6502532E-001	-2.7038031E+002
3	0	6.260047841857886E+002	2.6474398E-001	-2.7036972E+002
3	0	6.265047841731575E+002	2.6448932E-001	-2.7039093E+002
3	0	6.270047841605265E+002	2.6424247E-001	-2.7036972E+002
3	0	6.275047841478954E+002	2.6398218E-001	-2.7038385E+002
3	0	6.280047841352643E+002	2.6372421E-001	-2.7040860E+002
3	0	6.285047841226333E+002	2.6348016E-001	-2.7035559E+002
3	0	6.290047841100022E+002	2.6320761E-001	-2.7037677E+002
3	0	6.295047840973712E+002	2.6292476E-001	-2.7037326E+002
3	0	6.300047840847401E+002	2.6264945E-001	-2.7038385E+002
3	0	6.300051840847300E+002	2.6249340E-001	-2.7036267E+002
3	0	6.755057829352882E+002	1.2781997E+000	-2.7039093E+002
3	0	6.760057829226571E+002	1.2770245E+000	-2.7036972E+002
3	0	6.765057829100260E+002	1.2494345E+000	-2.7036267E+002
3	0	6.770057828973950E+002	1.1914016E+000	-2.7034851E+002
3	0	6.775057828847639E+002	1.0353526E+000	-2.7038742E+002
3	0	6.780057828721328E+002	5.6735545E-001	-2.7035913E+002
3	0	6.785057828595018E+002	3.8179874E-001	-2.7038742E+002
3	0	6.790057828468707E+002	3.5350147E-001	-2.7038742E+002
3	0	6.795057828342397E+002	3.4317371E-001	-2.7038742E+002
3	0	6.800057828216086E+002	3.3527517E-001	-2.7037326E+002
3	0	6.805057828089775E+002	3.2938004E-001	-2.7037677E+002
3	0	6.810057827963465E+002	3.2493162E-001	-2.7036618E+002
3	0	6.815057827837154E+002	3.2145905E-001	-2.7037677E+002
3	0	6.820057827710843E+002	3.1870359E-001	-2.7040155E+002
3	0	6.825057827584533E+002	3.1645885E-001	-2.7035913E+002
3	0	6.830057827458222E+002	3.1459013E-001	-2.7035559E+002
3	0	6.835057827331912E+002	3.1297943E-001	-2.7035913E+002
3	0	6.840057827205601E+002	3.1156200E-001	-2.7039801E+002
3	0	6.845057827079290E+002	3.1030124E-001	-2.7037326E+002
3	0	6.850057826952980E+002	3.0915043E-001	-2.7036267E+002
3	0	6.855057826826669E+002	3.0806968E-001	-2.7038031E+002
3	0	6.860057826700358E+002	3.0707991E-001	-2.7037677E+002
3	0	6.865057826574048E+002	3.0618861E-001	-2.7035913E+002
3	0	6.870057826447737E+002	3.0535430E-001	-2.7037326E+002
3	0	6.875057826321427E+002	3.0456161E-001	-2.7037326E+002
3	0	6.880057826195116E+002	3.0379912E-001	-2.7039447E+002
3	0	6.885057826068805E+002	3.0306065E-001	-2.7039447E+002
3	0	6.890057825942495E+002	3.0233327E-001	-2.7035205E+002
3	0	6.895057825816184E+002	3.0160493E-001	-2.7040506E+002
3	0	6.900057825689873E+002	3.0090231E-001	-2.7038385E+002
3	0	6.905057825563563E+002	3.0025297E-001	-2.7039447E+002
3	0	6.910057825437252E+002	2.9962206E-001	-2.7037677E+002
3	0	6.915057825310942E+002	2.9899952E-001	-2.7039447E+002
3	0	6.920057825184631E+002	2.9838181E-001	-2.7038031E+002
3	0	6.925057825058320E+002	2.9777172E-001	-2.7037326E+002
3	0	6.930057824932010E+002	2.9716364E-001	-2.7037326E+002
3	0	6.935057824805699E+002	2.9653803E-001	-2.7036972E+002
3	0	6.940057824679388E+002	2.9593498E-001	-2.7038742E+002
3	0	6.945057824553078E+002	2.9536870E-001	-2.7037677E+002
3	0	6.950057824426767E+002	2.9482430E-001	-2.7039093E+002
3	0	6.955057824300457E+002	2.9427895E-001	-2.7033789E+002
3	0	6.960057824174146E+002	2.9373017E-001	-2.7037677E+002
3	0	6.965057824047835E+002	2.9318494E-001	-2.7036267E+002
3	0	6.970057823921525E+002	2.9262644E-001	-2.7036618E+002
3	0	6.975057823795214E+002	2.9205260E-001	-2.7035913E+002
3	0	6.980057823668903E+002	2.9149991E-001	-2.7035559E+002
3	0	6.985057823542593E+002	2.9098222E-001	-2.7038742E+002
3	0	6.990057823416282E+002	2.9047045E-001	-2.7036972E+002
3	0	6.995057823289972E+002	2.8996933E-001	-2.7037677E+002
3	0	7.000057823163661E+002	2.8947014E-001	-2.7037677E+002
3	0	7.005057823037350E+002	2.8896394E-001	-2.7036972E+002
3	0	7.010057822911040E+002	2.8845102E-001	-2.7036267E+002
3	0	7.015057822784729E+002	2.8792277E-001	-2.7039447E+002
3	0	7.020057822658418E+002	2.8741327E-001	-2.7035913E+002
3	0	7.025057822532108E+002	2.8693694E-001	-2.7036267E+002
3	0	7.030057822405797E+002	2.8646517E-001	-2.7036267E+002
3	0	7.035057822279487E+002	2.8599185E-001	-2.7038742E+002
3	0	7.040057822153176E+002	2.8552741E-001	-2.7038031E+002
3	0	7.045057822026865E+002	2.8506023E-001	-2.7035559E+002
3	0	7.050057821900555E+002	2.8458259E-001	-2.7037677E+002
3	0	7.055057821774244E+002	2.8409138E-001	-2.7037326E+002
3	0	7.060057821647933E+002	2.8361237E-001	-2.7039093E+002
3	0	7.065057821521623E+002	2.8316876E-001	-2.7038031E+002
3	0	7.070057821395312E+002	2.8273505E-001	-2.7039447E+002
3	0	7.075057821269002E+002	2.8229970E-001	-2.7037677E+002
3	0	7.080057821142691E+002	2.8186768E-001	-2.7037326E+002
3	0	7.085057821016380E+002	2.8143021E-001	-2.7039447E+002
3	0	7.090057820890070E+002	2.8098029E-001	-2.7035913E+002
3	0	7.095057820763759E+002	2.8052455E-001	-2.7038385E+002
3	0	7.100057820637448E+002	2.8009486E-001	-2.7039447E+002
3	0	7.105057820511138E+002	2.7968261E-001	-2.7036972E+002
3	0	7.110057820384827E+002	2.7927813E-001	-2.7036972E+002
3	0	7.115057820258517E+002	2.7887389E-001	-2.7036972E+002
3	0	7.120057820132206E+002	2.7846622E-001	-2.7037326E+002
3	0	7.125057820005895E+002	2.7806154E-001	-2.7038385E+002
3	0	7.130057819879585E+002	2.7765521E-001	-2.7037677E+002
3	0	7.135057819753274E+002	2.7722877E-001	-2.7038031E+002
3	0	7.140057819626963E+002	2.7682367E-001	-2.7037677E+002
3	0	7.145057819500653E+002	2.7645141E-001	-2.7039447E+002
3	0	7.150057819374342E+002	2.7608120E-001	-2.7036618E+002
3	0	7.155057819248032E+002	2.7571991E-001	-2.7040860E+002
3	0	7.160057819121721E+002	2.7535284E-001	-2.7036618E+002
3	0	7.165057818995410E+002	2.7498806E-001	-2.7039093E+002
3	0	7.170057818869100E+002	2.7460387E-001	-2.7037677E+002
3	0	7.175057818742789E+002	2.7421102E-001	-2.7036618E+002
3	0	7.180057818616478E+002	2.7384481E-001	-2.7035913E+002
3	0	7.185057818490168E+002	2.7349287E-001	-2.7036267E+002
3	0	7.190057818363857E+002	2.7315947E-001	-2.7038742E+002
3	0	7.195057818237547E+002	2.7281737E-001	-2.7036267E+002
3	0	7.200057818111236E+002	2.7248007E-001	-2.7036618E+002
3	0	7.205057817984925E+002	2.7214125E-001	-2.7039447E+002
3	0	7.210057817858615E+002	2.7177912E-001	-2.7037326E+002
3	0	7.215057817732304E+002	2.7141032E-001	-2.7036267E+002
3	0	7.220057817605993E+002	2.7105969E-001	-2.7038385E+002
3	0	7.225057817479683E+002	2.7075204E-001	-2.7037326E+002
3	0	7.230057817353372E+002	2.7044249E-001	-2.7035559E+002
3	0	7.235057817227062E+002	2.7012861E-001	-2.7037677E+002
3	0	7.240057817100751E+002	2.6981640E-001	-2.7038742E+002
3	0	7.245057816974440E+002	2.6950118E-001	-2.7036972E+002
3	0	7.250057816848130E+002	2.6917684E-001	-2.7038385E+002
3	0	7.255057816721819E+002	2.6884085E-001	-2.7036618E+002
3	0	7.260057816595508E+002	2.6851940E-001	-2.7034851E+002
3	0	7.265057816469198E+002	2.6823133E-001	-2.7036972E+002
3	0	7.270057816342887E+002	2.6794806E-001	-2.7037326E+002
3	0	7.275057816216577E+002	2.6766387E-001	-2.7036972E+002
3	0	7.280057816090266E+002	2.6737580E-001	-2.7037326E+002
3	0	7.285057815963955E+002	2.6708740E-001	-2.7036972E+002
3	0	7.290057815837645E+002	2.6678553E-001	-2.7039093E+002
3	0	7.295057815711334E+002	2.6647913E-001	-2.7036972E+002
3	0	7.300057815585023E+002	2.6618668E-001	-2.7036972E+002
3	0	7.305057815458713E+002	2.6592961E-001	-2.7035913E+002
3	0	7.310057815332402E+002	2.6566574E-001	-2.7036267E+002
3	0	7.315057815206092E+002	2.6541114E-001	-2.7038385E+002
3	0	7.320057815079781E+002	2.6514301E-001	-2.7039801E+002
3	0	7.325057814953470E+002	2.6488245E-001	-2.7037677E+002
3	0	7.330057814827160E+002	2.6460508E-001	-2.7037677E+002
3	0	7.335057814700849E+002	2.6430997E-001	-2.7036618E+002
3	0	7.340057814574539E+002	2.6404995E-001	-2.7039801E+002
3	0	7.345057814448228E+002	2.6380444E-001	-2.7037326E+002
3	0	7.350057814321917E+002	2.6358098E-001	-2.7036618E+002
3	0	7.350061814321816E+002	2.6347622E-001	-2.7040155E+002
3	0	7.805067802827398E+002	1.2780648E+000	-2.7038385E+002
3	0	7.810067802701087E+002	1.2767353E+000	-2.7036267E+002
3	0	7.815067802574777E+002	1.2493759E+000	-2.7036618E+002
3	0	7.820067802448466E+002	1.1924307E+000	-2.7036618E+002
3	0	7.825067802322155E+002	1.0382738E+000	-2.7035559E+002
3	0	7.830067802195845E+002	5.6974483E-001	-2.7037326E+002
3	0	7.835067802069534E+002	3.8225183E-001	-2.7037326E+002
3	0	7.840067801943223E+002	3.5368785E-001	-2.7037677E+002
3	0	7.845067801816913E+002	3.4337881E-001	-2.7038031E+002
3	0	7.850067801690602E+002	3.3548063E-001	-2.7038385E+002
3	0	7.855067801564292E+002	3.2957840E-001	-2.7039801E+002
3	0	7.860067801437981E+002	3.2513577E-001	-2.7037677E+002
3	0	7.865067801311670E+002	3.2170346E-001	-2.7037677E+002
3	0	7.870067801185360E+002	3.1897223E-001	-2.7037326E+002
3	0	7.875067801059049E+002	3.1673190E-001	-2.7034851E+002
3	0	7.880067800932738E+002	3.1485671E-001	-2.7038031E+002
3	0	7.885067800806428E+002	3.1324491E-001	-2.7037326E+002
3	0	7.890067800680117E+002	3.1181014E-001	-2.7036618E+002
3	0	7.895067800553807E+002	3.1051293E-001	-2.7037677E+002
3	0	7.900067800427496E+002	3.0936494E-001	-2.7037326E+002
3	0	7.905067800301185E+002	3.0832520E-001	-2.7036267E+002
3	0	7.910067800174875E+002	3.0736363E-001	-2.7038031E+002
3	0	7.915067800048564E+002	3.0646098E-001	-2.7038385E+002
3	0	7.920067799922253E+002	3.0561754E-001	-2.7036972E+002
3	0	7.925067799795943E+002	3.0481380E-001	-2.7038031E+002
3	0	7.930067799669632E+002	3.0403101E-001	-2.7039093E+002
3	0	7.935067799543322E+002	3.0325192E-001	-2.7037677E+002
3	0	7.940067799417011E+002	3.0251390E-001	-2.7039447E+002
3	0	7.945067799290700E+002	3.0182135E-001	-2.7037326E+002
3	0	7.950067799164390E+002	3.0115077E-001	-2.7038742E+002
3	0	7.955067799038079E+002	3.0049923E-001	-2.7039093E+002
3	0	7.960067798911768E+002	2.9987445E-001	-2.7036267E+002
3	0	7.965067798785458E+002	2.9924822E-001	-2.7035559E+002
3	0	7.970067798659147E+002	2.9861277E-001	-2.7040155E+002
3	0	7.975067798532837E+002	2.9796711E-001	-2.7039447E+002
3	0	7.980067798406526E+002	2.9734987E-001	-2.7041919E+002
3	0	7.985067798280215E+002	2.9677254E-001	-2.7039447E+002
3	0	7.990067798153905E+002	2.9619429E-001	-2.7036267E+002
3	0	7.995067798027594E+002	2.9562610E-001	-2.7038385E+002
3	0	8.000067797901283E+002	2.9506859E-001	-2.7037677E+002
3	0	8.005067797774973E+002	2.9452464E-001	-2.7035559E+002
3	0	8.010067797648662E+002	2.9395327E-001	-2.7035559E+002
3	0	8.015067797522352E+002	2.9336622E-001	-2.7036267E+002
3	0	8.020067797396041E+002	2.9280689E-001	-2.7036972E+002
3	0	8.025067797269730E+002	2.9227772E-001	-2.7038031E+002
3	0	8.030067797143420E+002	2.9176003E-001	-2.7035559E+002
3	0	8.035067797017109E+002	2.9123774E-001	-2.7037677E+002
3	0	8.040067796890798E+002	2.9072377E-001	-2.7037326E+002
3	0	8.045067796764488E+002	2.9021779E-001	-2.7038031E+002
3	0	8.050067796638177E+002	2.8969407E-001	-2.7035913E+002
3	0	8.055067796511867E+002	2.8915000E-001	-2.7038742E+002
3	0	8.060067796385556E+002	2.8863007E-001	-2.7036267E+002
3	0	8.065067796259245E+002	2.8813848E-001	-2.7036267E+002
3	0	8.070067796132935E+002	2.8765708E-001	-2.7036972E+002
3	0	8.075067796006624E+002	2.8717619E-001	-2.7036972E+002
3	0	8.080067795880314E+002	2.8669998E-001	-2.7037326E+002
3	0	8.085067795754003E+002	2.8622237E-001	-2.7038031E+002
3	0	8.090067795627692E+002	2.8572845E-001	-2.7037677E+002
3	0	8.095067795501382E+002	2.8522563E-001	-2.7036267E+002
3	0	8.100067795375071E+002	2.8473994E-001	-2.7036618E+002
3	0	8.105067795248760E+002	2.8428587E-001	-2.7035559E+002
3	0	8.110067795122450E+002	2.8383547E-001	-2.7039447E+002
3	0	8.115067794996139E+002	2.8338718E-001	-2.7036972E+002
3	0	8.120067794869829E+002	2.8294608E-001	-2.7037326E+002
3	0	8.125067794743518E+002	2.8250059E-001	-2.7036972E+002
3	0	8.130067794617207E+002	2.8204215E-001	-2.7038385E+002
3	0	8.135067794490897E+002	2.8157151E-001	-2.7037326E+002
3	0	8.140067794364586E+002	2.8112441E-001	-2.7039093E+002
3	0	8.145067794238275E+002	2.8070879E-001	-2.7037677E+002
3	0	8.150067794111965E+002	2.8030404E-001	-2.7037677E+002
3	0	8.155067793985654E+002	2.7989715E-001	-2.7036618E+002
3	0	8.160067793859344E+002	2.7948400E-001	-2.7035913E+002
3	0	8.165067793733033E+002	2.7907145E-001	-2.7035913E+002
3	0	8.170067793606722E+002	2.7865049E-001	-2.7036267E+002
3	0	8.175067793480412E+002	2.7821201E-001	-2.7038031E+002
3	0	8.180067793354101E+002	2.7779350E-001	-2.7037677E+002
3	0	8.185067793227790E+002	2.7740768E-001	-2.7036972E+002
3	0	8.190067793101480E+002	2.7703539E-001	-2.7036618E+002
3	0	8.195067792975169E+002	2.7664793E-001	-2.7036267E+002
3	0	8.200067792848859E+002	2.7627155E-001	-2.7037677E+002
3	0	8.205067792722548E+002	2.7589941E-001	-2.7036267E+002
3	0	8.210067792596237E+002	2.7550927E-001	-2.7036267E+002
3	0	8.215067792469927E+002	2.7511728E-001	-2.7039093E+002
3	0	8.220067792343616E+002	2.7472344E-001	-2.7038385E+002
3	0	8.225067792217305E+002	2.7437890E-001	-2.7038031E+002
3	0	8.230067792090995E+002	2.7403191E-001	-2.7035205E+002
3	0	8.235067791964684E+002	2.7367812E-001	-2.7038031E+002
3	0	8.240067791838374E+002	2.7333295E-001	-2.7038031E+002
3	0	8.245067791712063E+002	2.7297655E-001	-2.7040506E+002
3	0	8.250067791585752E+002	2.7262196E-001	-2.7038031E+002
3	0	8.255067791459442E+002	2.7224252E-001	-2.7035205E+002
3	0	8.260067791333131E+002	2.7189097E-001	-2.7037677E+002
3	0	8.265067791206820E+002	2.7156845E-001	-2.7036267E+002
3	0	8.270067791080510E+002	2.7125430E-001	-2.7036267E+002
3	0	8.275067790954199E+002	2.7093360E-001	-2.7036618E+002
3	0	8.280067790827889E+002	2.7061674E-001	-2.7039801E+002
3	0	8.285067790701578E+002	2.7030379E-001	-2.7034497E+002
3	0	8.290067790575267E+002	2.6997086E-001	-2.7036618E+002
3	0	8.295067790448957E+002	2.6961833E-001	-2.7037326E+002
3	0	8.300067790322646E+002	2.6928741E-001	-2.7037326E+002
3	0	8.305067790196335E+002	2.6899534E-001	-2.7038385E+002
3	0	8.310067790070025E+002	2.6869547E-001	-2.7035913E+002
3	0	8.315067789943714E+002	2.6839790E-001	-2.7039093E+002
3	0	8.320067789817404E+002	2.6810455E-001	-2.7039093E+002
3	0	8.325067789691093E+002	2.6781222E-001	-2.7036618E+002
3	0	8.330067789564782E+002	2.6750422E-001	-2.7039447E+002
3	0	8.335067789438472E+002	2.6718172E-001	-2.7036972E+002
3	0	8.340067789312161E+002	2.6687595E-001	-2.7036972E+002
3	0	8.345067789185850E+002	2.6661238E-001	-2.7036267E+002
3	0	8.350067789059540E+002	2.6634738E-001	-2.7037677E+002
3	0	8.355067788933229E+002	2.6608402E-001	-2.7041214E+002
3	0	8.360067788806919E+002	2.6581484E-001	-2.7039447E+002
3	0	8.365067788680608E+002	2.6555601E-001	-2.7036618E+002
3	0	8.370067788554297E+002	2.6527774E-001	-2.7037677E+002
3	0	8.375067788427987E+002	2.6498294E-001	-2.7036618E+002
3	0	8.380067788301676E+002	2.6471061E-001	-2.7036618E+002
3	0	8.385067788175365E+002	2.6446810E-001	-2.7038742E+002
3	0	8.390067788049055E+002	2.6423344E-001	-2.7039093E+002
3	0	8.395067787922744E+002	2.6399505E-001	-2.7035205E+002
3	0	8.400067787796434E+002	2.6374149E-001	-2.7038742E+002
3	0	8.400071787796333E+002	2.6367661E-001	-2.7035913E+002
3	0	8.855077776301914E+002	1.2782089E+000	-2.7039093E+002
3	0	8.860077776175604E+002	1.2771417E+000	-2.7037677E+002
3	0	8.865077776049293E+002	1.2495898E+000	-2.7039093E+002
3	0	8.870077775922982E+002	1.1913389E+000	-2.7036972E+002
3	0	8.875077775796672E+002	1.0315194E+000	-2.7036618E+002
3	0	8.880077775670361E+002	5.6212121E-001	-2.7038385E+002
3	0	8.885077775544050E+002	3.8131571E-001	-2.7037326E+002
3	0	8.890077775417740E+002	3.5359445E-001	-2.7036618E+002
3	0	8.895077775291429E+002	3.4336573E-001	-2.7040155E+002
3	0	8.900077775165119E+002	3.3550385E-001	-2.7037677E+002
3	0	8.905077775038808E+002	3.2964227E-001	-2.7036618E+002
3	0	8.910077774912497E+002	3.2521379E-001	-2.7038031E+002
3	0	8.915077774786187E+002	3.2178092E-001	-2.7039093E+002
3	0	8.920077774659876E+002	3.1904724E-001	-2.7038742E+002
3	0	8.925077774533565E+002	3.1679803E-001	-2.7038742E+002
3	0	8.930077774407255E+002	3.1489477E-001	-2.7037326E+002
3	0	8.935077774280944E+002	3.1324410E-001	-2.7038031E+002
3	0	8.940077774154634E+002	3.1180876E-001	-2.7039093E+002
3	0	8.945077774028323E+002	3.1055325E-001	-2.7039801E+002
3	0	8.950077773902012E+002	3.0941817E-001	-2.7037677E+002
3	0	8.955077773775702E+002	3.0837774E-001	-2.7039447E+002
3	0	8.960077773649391E+002	3.0741611E-001	-2.7036972E+002
3	0	8.965077773523080E+002	3.0651358E-001	-2.7038385E+002
3	0	8.970077773396770E+002	3.0565536E-001	-2.7037677E+002
3	0	8.975077773270459E+002	3.0482179E-001	-2.7037677E+002
3	0	8.980077773144149E+002	3.0403587E-001	-2.7039801E+002
3	0	8.985077773017838E+002	3.0329892E-001	-2.7038031E+002
3	0	8.990077772891527E+002	3.0258334E-001	-2.7038742E+002
3	0	8.995077772765217E+002	3.0189273E-001	-2.7039093E+002
3	0	9.000077772638906E+002	3.0122149E-001	-2.7036618E+002
3	0	9.005077772512595E+002	3.0056491E-001	-2.7038385E+002
3	0	9.010077772386285E+002	2.9990861E-001	-2.7038742E+002
3	0	9.015077772259974E+002	2.9925138E-001	-2.7036972E+002
3	0	9.020077772133664E+002	2.9861492E-001	-2.7038385E+002
3	0	9.025077772007353E+002	2.9800907E-001	-2.7036618E+002
3	0	9.030077771881042E+002	2.9740831E-001	-2.7036972E+002
3	0	9.035077771754732E+002	2.9682425E-001	-2.7040155E+002
3	0	9.040077771628421E+002	2.9624477E-001	-2.7037326E+002
3	0	9.045077771502110E+002	2.9568043E-001	-2.7036972E+002
3	0	9.050077771375800E+002	2.9510087E-001	-2.7038385E+002
3	0	9.055077771249489E+002	2.9452053E-001	-2.7039801E+002
3	0	9.060077771123179E+002	2.9395351E-001	-2.7036618E+002
3	0	9.065077770996868E+002	2.9341209E-001	-2.7040155E+002
3	0	9.070077770870557E+002	2.9286462E-001	-2.7039447E+002
3	0	9.075077770744247E+002	2.9232296E-001	-2.7038385E+002
3	0	9.080077770617936E+002	2.9180050E-001	-2.7036267E+002
3	0	9.085077770491625E+002	2.9127198E-001	-2.7036972E+002
3	0	9.090077770365315E+002	2.9073885E-001	-2.7036972E+002
3	0	9.095077770239004E+002	2.9019934E-001	-2.7039447E+002
3	0	9.100077770112694E+002	2.8967616E-001	-2.7038742E+002
3	0	9.105077769986383E+002	2.8917527E-001	-2.7038031E+002
3	0	9.110077769860072E+002	2.8867149E-001	-2.7038742E+002
3	0	9.115077769733762E+002	2.8817537E-001	-2.7038031E+002
3	0	9.120077769607451E+002	2.8767681E-001	-2.7038031E+002
3	0	9.125077769481140E+002	2.8716475E-001	-2.7037326E+002
3	0	9.130077769354830E+002	2.8666937E-001	-2.7035559E+002
3	0	9.135077769228519E+002	2.8617647E-001	-2.7040506E+002
3	0	9.140077769102209E+002	2.8569704E-001	-2.7036618E+002
3	0	9.145077768975898E+002	2.8524688E-001	-2.7037677E+002
3	0	9.150077768849587E+002	2.8479084E-001	-2.7039093E+002
3	0	9.155077768723277E+002	2.8434053E-001	-2.7036618E+002
3	0	9.160077768596966E+002	2.8389025E-001	-2.7037677E+002
3	0	9.165077768470655E+002	2.8344193E-001	-2.7038385E+002
3	0	9.170077768344345E+002	2.8297669E-001	-2.7036267E+002
3	0	9.175077768218034E+002	2.8249004E-001	-2.7036618E+002
3	0	9.180077768091724E+002	2.8203878E-001	-2.7037677E+002
3	0	9.185077767965413E+002	2.8161991E-001	-2.7035205E+002
3	0	9.190077767839102E+002	2.8119284E-001	-2.7036972E+002
3	0	9.195077767712792E+002	2.8076690E-001	-2.7036267E+002
3	0	9.200077767586481E+002	2.8035608E-001	-2.7038031E+002
3	0	9.205077767460170E+002	2.7994120E-001	-2.7037677E+002
3	0	9.210077767333860E+002	2.7950427E-001	-2.7037677E+002
3	0	9.215077767207549E+002	2.7905717E-001	-2.7038742E+002
3	0	9.220077767081239E+002	2.7863744E-001	-2.7038031E+002
3	0	9.225077766954928E+002	2.7824521E-001	-2.7037326E+002
3	0	9.230077766828617E+002	2.7785382E-001	-2.7037326E+002
3	0	9.235077766702307E+002	2.7746359E-001	-2.7035913E+002
3	0	9.240077766575996E+002	2.7708426E-001	-2.7036972E+002
3	0	9.245077766449685E+002	2.7668923E-001	-2.7038385E+002
3	0	9.250077766323375E+002	2.7628577E-001	-2.7039801E+002
3	0	9.255077766197064E+002	2.7587372E-001	-2.7039801E+002
3	0	9.260077766070754E+002	2.7548671E-001	-2.7040155E+002
3	0	9.265077765944443E+002	2.7514213E-001	-2.7036972E+002
3	0	9.270077765818132E+002	2.7476186E-001	-2.7036267E+002
3	0	9.275077765691822E+002	2.7441347E-001	-2.7036618E+002
3	0	9.280077765565511E+002	2.7405378E-001	-2.7038385E+002
3	0	9.285077765439200E+002	2.7368796E-001	-2.7038385E+002
3	0	9.290077765312890E+002	2.7331859E-001	-2.7036972E+002
3	0	9.295077765186579E+002	2.7292609E-001	-2.7035913E+002
3	0	9.300077765060269E+002	2.7256188E-001	-2.7038742E+002
3	0	9.305077764933958E+002	2.7223676E-001	-2.7039447E+002
3	0	9.310077764807647E+002	2.7190679E-001	-2.7036972E+002
3	0	9.315077764681337E+002	2.7156648E-001	-2.7039093E+002
3	0	9.320077764555026E+002	2.7123097E-001	-2.7036267E+002
3	0	9.325077764428715E+002	2.7090216E-001	-2.7037326E+002
3	0	9.330077764302405E+002	2.7055559E-001	-2.7037326E+002
3	0	9.335077764176094E+002	2.7020758E-001	-2.7038742E+002
3	0	9.340077764049784E+002	2.6986367E-001	-2.7038385E+002
3	0	9.345077763923473E+002	2.6956585E-001	-2.7036267E+002
3	0	9.350077763797162E+002	2.6926762E-001	-2.7036618E+002
3	0	9.355077763670852E+002	2.6897249E-001	-2.7038031E+002
3	0	9.360077763544541E+002	2.6866835E-001	-2.7036972E+002
3	0	9.365077763418230E+002	2.6836747E-001	-2.7036267E+002
3	0	9.370077763291920E+002	2.6804650E-001	-2.7036618E+002
3	0	9.375077763165609E+002	2.6771733E-001	-2.7038742E+002
3	0	9.380077763039299E+002	2.6741207E-001	-2.7040506E+002
3	0	9.385077762912988E+002	2.6713395E-001	-2.7039447E+002
3	0	9.390077762786677E+002	2.6686126E-001	-2.7036267E+002
3	0	9.395077762660367E+002	2.6658991E-001	-2.7039093E+002
3	0	9.400077762534056E+002	2.6632237E-001	-2.7038385E+002
3	0	9.405077762407745E+002	2.6604611E-001	-2.7038031E+002
3	0	9.410077762281435E+002	2.6576582E-001	-2.7035913E+002
3	0	9.415077762155124E+002	2.6546845E-001	-2.7037677E+002
3	0	9.420077762028814E+002	2.6518354E-001	-2.7036618E+002
3	0	9.425077761902503E+002	2.6493740E-001	-2.7038385E+002
3	0	9.430077761776192E+002	2.6468998E-001	-2.7037326E+002
3	0	9.435077761649882E+002	2.6444048E-001	-2.7038031E+002
3	0	9.440077761523571E+002	2.6419419E-001	-2.7038385E+002
3	0	9.445077761397260E+002	2.6393417E-001	-2.7039801E+002
3	0	9.450077761270950E+002	2.6367134E-001	-2.7036618E+002
3	0	9.450081761270849E+002	2.6348579E-001	-2.7038031E+002
3	0	9.905087749776430E+002	1.2781696E+000	-2.7036618E+002
3	0	9.910087749650120E+002	1.2768271E+000	-2.7036972E+002
3	0	9.915087749523809E+002	1.2486051E+000	-2.7038031E+002
3	0	9.920087749397499E+002	1.1892211E+000	-2.7037326E+002
3	0	9.925087749271188E+002	1.0256211E+000	-2.7038742E+002
3	0	9.930087749144877E+002	5.5706900E-001	-2.7037677E+002
3	0	9.935087749018567E+002	3.8005081E-001	-2.7040155E+002
3	0	9.940087748892256E+002	3.5280642E-001	-2.7037326E+002
3	0	9.945087748765945E+002	3.4266335E-001	-2.7036972E+002
3	0	9.950087748639635E+002	3.3484948E-001	-2.7039447E+002
3	0	9.955087748513324E+002	3.2900131E-001	-2.7036972E+002
3	0	9.960087748387014E+002	3.2458013E-001	-2.7039447E+002
3	0	9.965087748260703E+002	3.2113898E-001	-2.7036267E+002
3	0	9.970087748134392E+002	3.1838915E-001	-2.7039801E+002
3	0	9.975087748008082E+002	3.1610408E-001	-2.7041568E+002
3	0	9.980087747881771E+002	3.1420681E-001	-2.7039801E+002
3	0	9.985087747755460E+002	3.1259388E-001	-2.7035559E+002
3	0	9.990087747629150E+002	3.1118530E-001	-2.7040155E+002
3	0	9.995087747502839E+002	3.0992976E-001	-2.7037326E+002
3	0	1.000008774737653E+003	3.0880827E-001	-2.7040860E+002
3	0	1.000508774725022E+003	3.0776700E-001	-2.7037677E+002
3	0	1.001008774712391E+003	3.0678520E-001	-2.7035559E+002
3	0	1.001508774699760E+003	3.0584869E-001	-2.7035205E+002
3	0	1.002008774687129E+003	3.0497548E-001	-2.7038385E+002
3	0	1.002508774674498E+003	3.0418068E-001	-2.7038031E+002
3	0	1.003008774661866E+003	3.0341548E-001	-2.7037677E+002
3	0	1.003508774649235E+003	3.0267769E-001	-2.7035205E+002
3	0	1.004008774636604E+003	3.0197060E-001	-2.7035559E+002
3	0	1.004508774623973E+003	3.0128083E-001	-2.7038031E+002
3	0	1.005008774611342E+003	3.0058834E-001	-2.7036972E+002
3	0	1.005508774598711E+003	2.9990208E-001	-2.7037677E+002
3	0	1.006008774586080E+003	2.9923537E-001	-2.7039093E+002
3	0	1.006508774573449E+003	2.9860803E-001	-2.7036618E+002
3	0	1.007008774560818E+003	2.9799849E-001	-2.7039801E+002
3	0	1.007508774548187E+003	2.9739839E-001	-2.7039801E+002
3	0	1.008008774535556E+003	2.9681614E-001	-2.7038031E+002
3	0	1.008508774522925E+003	2.9622772E-001	-2.7037326E+002
3	0	1.009008774510294E+003	2.9564101E-001	-2.7037326E+002
3	0	1.009508774497663E+003	2.9503432E-001	-2.7038031E+002
3	0	1.010008774485032E+003	2.9445586E-001	-2.7036972E+002
3	0	1.010508774472401E+003	2.9389796E-001	-2.7038031E+002
3	0	1.011008774459769E+003	2.9335031E-001	-2.7038385E+002
3	0	1.011508774447138E+003	2.9280382E-001	-2.7037677E+002
3	0	1.012008774434507E+003	2.9226288E-001	-2.7038742E+002
3	0	1.012508774421876E+003	2.9172739E-001	-2.7037677E+002
3	0	1.013008774409245E+003	2.9117277E-001	-2.7035559E+002
3	0	1.013508774396614E+003	2.9061627E-001	-2.7037326E+002
3	0	1.014008774383983E+003	2.9008153E-001	-2.7036267E+002
3	0	1.014508774371352E+003	2.8957313E-001	-2.7037677E+002
3	0	1.015008774358721E+003	2.8906614E-001	-2.7037677E+002
3	0	1.015508774346090E+003	2.8856587E-001	-2.7039447E+002
3	0	1.016008774333459E+003	2.8806239E-001	-2.7038031E+002
3	0	1.016508774320828E+003	2.8756842E-001	-2.7038031E+002
3	0	1.017008774308197E+003	2.8706300E-001	-2.7036618E+002
3	0	1.017508774295566E+003	2.8654948E-001	-2.7036618E+002
3	0	1.018008774282935E+003	2.8604755E-001	-2.7037677E+002
3	0	1.018508774270304E+003	2.8558120E-001	-2.7039093E+002
3	0	1.019008774257672E+003	2.8511721E-001	-2.7037326E+002
3	0	1.019508774245041E+003	2.8465265E-001	-2.7038742E+002
3	0	1.020008774232410E+003	2.8419718E-001	-2.7037677E+002
3	0	1.020508774219779E+003	2.8373939E-001	-2.7038385E+002
3	0	1.021008774207148E+003	2.8326303E-001	-2.7039447E+002
3	0	1.021508774194517E+003	2.8278288E-001	-2.7037326E+002
3	0	1.022008774181886E+003	2.8231835E-001	-2.7039447E+002
3	0	1.022508774169255E+003	2.8189275E-001	-2.7038031E+002
3	0	1.023008774156624E+003	2.8146127E-001	-2.7036618E+002
3	0	1.023508774143993E+003	2.8103256E-001	-2.7037677E+002
3	0	1.024008774131362E+003	2.8061262E-001	-2.7036267E+002
3	0	1.024508774118731E+003	2.8019696E-001	-2.7037677E+002
3	0	1.025008774106100E+003	2.7975768E-001	-2.7038742E+002
3	0	1.025508774093469E+003	2.7930391E-001	-2.7037677E+002
3	0	1.026008774080838E+003	2.7887657E-001	-2.7038031E+002
3	0	1.026508774068207E+003	2.7847987E-001	-2.7038031E+002
3	0	1.027008774055575E+003	2.7807847E-001	-2.7038385E+002
3	0	1.027508774042944E+003	2.7768517E-001	-2.7038742E+002
3	0	1.028008774030313E+003	2.7728850E-001	-2.7038385E+002
3	0	1.028508774017682E+003	2.7689788E-001	-2.7037677E+002
3	0	1.029008774005051E+003	2.7649200E-001	-2.7037326E+002
3	0	1.029508773992420E+003	2.7607188E-001	-2.7038385E+002
3	0	1.030008773979789E+003	2.7568135E-001	-2.7036972E+002
3	0	1.030508773967158E+003	2.7532229E-001	-2.7038742E+002
3	0	1.031008773954527E+003	2.7495867E-001	-2.7035559E+002
3	0	1.031508773941896E+003	2.7459684E-001	-2.7037677E+002
3	0	1.032008773929265E+003	2.7422968E-001	-2.7036972E+002
3	0	1.032508773916634E+003	2.7387470E-001	-2.7037677E+002
3	0	1.033008773904003E+003	2.7348268E-001	-2.7037677E+002
3	0	1.033508773891372E+003	2.7309543E-001	-2.7036267E+002
3	0	1.034008773878741E+003	2.7272812E-001	-2.7037326E+002
3	0	1.034508773866110E+003	2.7238929E-001	-2.7036972E+002
3	0	1.035008773853478E+003	2.7205801E-001	-2.7038742E+002
3	0	1.035508773840847E+003	2.7172348E-001	-2.7036972E+002
3	0	1.036008773828216E+003	2.7139747E-001	-2.7038385E+002
3	0	1.036508773815585E+003	2.7106473E-001	-2.7037326E+002
3	0	1.037008773802954E+003	2.7071640E-001	-2.7038385E+002
3	0	1.037508773790323E+003	2.7036002E-001	-2.7037326E+002
3	0	1.038008773777692E+003	2.7002394E-001	-2.7038385E+002
3	0	1.038508773765061E+003	2.6971632E-001	-2.7037326E+002
3	0	1.039008773752430E+003	2.6941168E-001	-2.7036972E+002
3	0	1.039508773739799E+003	2.6910627E-001	-2.7039093E+002
3	0	1.040008773727168E+003	2.6880717E-001	-2.7035913E+002
3	0	1.040508773714537E+003	2.6849812E-001	-2.7036972E+002
3	0	1.041008773701906E+003	2.6817983E-001	-2.7038742E+002
3	0	1.041508773689275E+003	2.6785135E-001	-2.7036618E+002
3	0	1.042008773676644E+003	2.6754227E-001	-2.7036267E+002
3	0	1.042508773664013E+003	2.6726490E-001	-2.7039801E+002
3	0	1.043008773651381E+003	2.6698846E-001	-2.7036972E+002
3	0	1.043508773638750E+003	2.6671118E-001	-2.7039801E+002
3	0	1.044008773626119E+003	2.6643673E-001	-2.7036267E+002
3	0	1.044508773613488E+003	2.6616579E-001	-2.7035559E+002
3	0	1.045008773600857E+003	2.6586717E-001	-2.7038385E+002
3	0	1.045508773588226E+003	2.6556543E-001	-2.7034851E+002
3	0	1.046008773575595E+003	2.6528108E-001	-2.7039447E+002
3	0	1.046508773562964E+003	2.6501906E-001	-2.7037326E+002
3	0	1.047008773550333E+003	2.6476806E-001	-2.7038742E+002
3	0	1.047508773537702E+003	2.6450476E-001	-2.7036267E+002
3	0	1.048008773525071E+003	2.6425371E-001	-2.7037326E+002
3	0	1.048508773512440E+003	2.6399341E-001	-2.7037677E+002
3	0	1.049008773499809E+003	2.6371613E-001	-2.7035913E+002
3	0	1.049508773487178E+003	2.6344100E-001	-2.7038385E+002
3	0	1.050008773474547E+003	2.6317558E-001	-2.7039801E+002
3	0	1.050009173474537E+003	2.6310411E-001	-2.7038742E+002
3	0	1.095509772325095E+003	1.2782408E+000	-2.7038031E+002
3	0	1.096009772312464E+003	1.2770231E+000	-2.7036972E+002
3	0	1.096509772299833E+003	1.2492142E+000	-2.7039447E+002
3	0	1.097009772287201E+003	1.1909032E+000	-2.7037326E+002
3	0	1.097509772274570E+003	1.0350111E+000	-2.7036267E+002
3	0	1.098009772261939E+003	5.6868893E-001	-2.7037677E+002
3	0	1.098509772249308E+003	3.8152638E-001	-2.7038385E+002
3	0	1.099009772236677E+003	3.5291198E-001	-2.7037677E+002
3	0	1.099509772224046E+003	3.4269369E-001	-2.7039093E+002
3	0	1.100009772211415E+003	3.3483517E-001	-2.7039447E+002
3	0	1.100509772198784E+003	3.2895270E-001	-2.7039801E+002
3	0	1.101009772186153E+003	3.2449266E-001	-2.7035913E+002
3	0	1.101509772173522E+003	3.2100949E-001	-2.7038385E+002
3	0	1.102009772160891E+003	3.1824708E-001	-2.7039447E+002
3	0	1.102509772148260E+003	3.1599978E-001	-2.7036972E+002
3	0	1.103009772135629E+003	3.1412357E-001	-2.7039093E+002
3	0	1.103509772122998E+003	3.1250465E-001	-2.7036972E+002
3	0	1.104009772110367E+003	3.1108317E-001	-2.7036972E+002
3	0	1.104509772097736E+003	3.0982673E-001	-2.7036972E+002
3	0	1.105009772085104E+003	3.0866703E-001	-2.7039093E+002
3	0	1.105509772072473E+003	3.0758938E-001	-2.7037677E+002
3	0	1.106009772059842E+003	3.0659562E-001	-2.7038385E+002
3	0	1.106509772047211E+003	3.0570370E-001	-2.7036267E+002
3	0	1.107009772034580E+003	3.0486766E-001	-2.7039093E+002
3	0	1.107509772021949E+003	3.0407763E-001	-2.7039447E+002
3	0	1.108009772009318E+003	3.0330861E-001	-2.7037677E+002
3	0	1.108509771996687E+003	3.0256891E-001	-2.7039447E+002
3	0	1.109009771984056E+003	3.0183917E-001	-2.7035559E+002
3	0	1.109509771971425E+003	3.0110586E-001	-2.7035913E+002
3	0	1.110009771958794E+003	3.0041176E-001	-2.7038385E+002
3	0	1.110509771946163E+003	2.9976910E-001	-2.7038742E+002
3	0	1.111009771933532E+003	2.9913360E-001	-2.7039447E+002
3	0	1.111509771920901E+003	2.9850775E-001	-2.7036618E+002
3	0	1.112009771908270E+003	2.9788700E-001	-2.7039093E+002
3	0	1.112509771895639E+003	2.9728073E-001	-2.7038031E+002
3	0	1.113009771883007E+003	2.9666588E-001	-2.7038742E+002
3	0	1.113509771870376E+003	2.9603976E-001	-2.7038031E+002
3	0	1.114009771857745E+003	2.9544032E-001	-2.7038742E+002
3	0	1.114509771845114E+003	2.9488331E-001	-2.7037326E+002
3	0	1.115009771832483E+003	2.9432890E-001	-2.7038742E+002
3	0	1.115509771819852E+003	2.9376993E-001	-2.7037677E+002
3	0	1.116009771807221E+003	2.9322499E-001	-2.7036972E+002
3	0	1.116509771794590E+003	2.9267988E-001	-2.7037677E+002
3	0	1.117009771781959E+003	2.9211819E-001	-2.7038385E+002
3	0	1.117509771769328E+003	2.9154742E-001	-2.7037326E+002
3	0	1.118009771756697E+003	2.9099417E-001	-2.7034851E+002
3	0	1.118509771744066E+003	2.9047844E-001	-2.7035205E+002
3	0	1.119009771731435E+003	2.8997192E-001	-2.7038031E+002
3	0	1.119509771718804E+003	2.8946298E-001	-2.7039447E+002
3	0	1.120009771706173E+003	2.8895521E-001	-2.7035913E+002
3	0	1.120509771693542E+003	2.8845292E-001	-2.7038742E+002
3	0	1.121009771680910E+003	2.8793371E-001	-2.7034497E+002
3	0	1.121509771668279E+003	2.8740317E-001	-2.7036618E+002
3	0	1.122009771655648E+003	2.8689408E-001	-2.7034851E+002
3	0	1.122509771643017E+003	2.8641838E-001	-2.7037677E+002
3	0	1.123009771630386E+003	2.8594831E-001	-2.7038742E+002
3	0	1.123509771617755E+003	2.8547388E-001	-2.7037677E+002
3	0	1.124009771605124E+003	2.8499982E-001	-2.7036972E+002
3	0	1.124509771592493E+003	2.8453457E-001	-2.7035913E+002
3	0	1.125009771579862E+003	2.8405383E-001	-2.7038031E+002
3	0	1.125509771567231E+003	2.8356275E-001	-2.7038031E+002
3	0	1.126009771554600E+003	2.8308681E-001	-2.7038031E+002
3	0	1.126509771541969E+003	2.8264511E-001	-2.7036972E+002
3	0	1.127009771529338E+003	2.8220612E-001	-2.7039093E+002
3	0	1.127509771516707E+003	2.8177133E-001	-2.7037677E+002
3	0	1.128009771504076E+003	2.8133449E-001	-2.7039447E+002
3	0	1.128509771491445E+003	2.8089952E-001	-2.7039801E+002
3	0	1.129009771478813E+003	2.8045911E-001	-2.7038031E+002
3	0	1.129509771466182E+003	2.8000391E-001	-2.7039447E+002
3	0	1.130009771453551E+003	2.7956468E-001	-2.7037677E+002
3	0	1.130509771440920E+003	2.7915570E-001	-2.7039093E+002
3	0	1.131009771428289E+003	2.7875420E-001	-2.7038742E+002
3	0	1.131509771415658E+003	2.7834368E-001	-2.7034851E+002
3	0	1.132009771403027E+003	2.7793416E-001	-2.7038385E+002
3	0	1.132509771390396E+003	2.7753207E-001	-2.7035913E+002
3	0	1.133009771377765E+003	2.7712232E-001	-2.7038742E+002
3	0	1.133509771365134E+003	2.7668655E-001	-2.7037677E+002
3	0	1.134009771352503E+003	2.7627847E-001	-2.7038742E+002
3	0	1.134509771339872E+003	2.7590963E-001	-2.7035559E+002
3	0	1.135009771327241E+003	2.7553862E-001	-2.7037326E+002
3	0	1.135509771314610E+003	2.7517861E-001	-2.7035559E+002
3	0	1.136009771301979E+003	2.7479592E-001	-2.7037677E+002
3	0	1.136509771289348E+003	2.7443680E-001	-2.7036972E+002
3	0	1.137009771276716E+003	2.7405176E-001	-2.7038742E+002
3	0	1.137509771264085E+003	2.7365145E-001	-2.7038385E+002
3	0	1.138009771251454E+003	2.7327609E-001	-2.7035913E+002
3	0	1.138509771238823E+003	2.7293122E-001	-2.7037677E+002
3	0	1.139009771226192E+003	2.7259821E-001	-2.7039447E+002
3	0	1.139509771213561E+003	2.7225363E-001	-2.7038742E+002
3	0	1.140009771200930E+003	2.7192065E-001	-2.7038385E+002
3	0	1.140509771188299E+003	2.7158651E-001	-2.7039801E+002
3	0	1.141009771175668E+003	2.7123499E-001	-2.7038385E+002
3	0	1.141509771163037E+003	2.7086630E-001	-2.7034497E+002
3	0	1.142009771150406E+003	2.7052739E-001	-2.7038031E+002
3	0	1.142509771137775E+003	2.7022216E-001	-2.7037677E+002
3	0	1.143009771125144E+003	2.6990336E-001	-2.7036267E+002
3	0	1.143509771112513E+003	2.6959610E-001	-2.7035913E+002
3	0	1.144009771099882E+003	2.6928538E-001	-2.7038031E+002
3	0	1.144509771087251E+003	2.6897484E-001	-2.7039801E+002
3	0	1.145009771074619E+003	2.6864552E-001	-2.7039093E+002
3	0	1.145509771061988E+003	2.6829806E-001	-2.7036267E+002
3	0	1.146009771049357E+003	2.6798162E-001	-2.7038385E+002
3	0	1.146509771036726E+003	2.6769799E-001	-2.7036972E+002
3	0	1.147009771024095E+003	2.6740670E-001	-2.7038742E+002
3	0	1.147509771011464E+003	2.6711872E-001	-2.7036972E+002
3	0	1.148009770998833E+003	2.6683307E-001	-2.7037677E+002
3	0	1.148509770986202E+003	2.6654726E-001	-2.7037326E+002
3	0	1.149009770973571E+003	2.6624259E-001	-2.7036267E+002
3	0	1.149509770960940E+003	2.6593485E-001	-2.7038385E+002
3	0	1.150009770948309E+003	2.6564673E-001	-2.7037326E+002
3	0	1.150509770935678E+003	2.6539940E-001	-2.7037326E+002
3	0	1.151009770923047E+003	2.6513496E-001	-2.7039801E+002
3	0	1.151509770910416E+003	2.6487476E-001	-2.7038385E+002
3	0	1.152009770897785E+003	2.6461425E-001	-2.7040860E+002
3	0	1.152509770885154E+003	2.6434660E-001	-2.7037677E+002
3	0	1.153009770872522E+003	2.6407340E-001	-2.7038385E+002
3	0	1.153509770859891E+003	2.6376826E-001	-2.7038742E+002
3	0	1.154009770847260E+003	2.6350716E-001	-2.7037677E+002
3	0	1.154509770834629E+003	2.6326171E-001	-2.7033789E+002
3	0	1.155009770821998E+003	2.6302677E-001	-2.7038385E+002
3	0	1.155010170821988E+003	2.6289415E-001	-2.7040155E+002