EC-Lab ASCII FILE
Nb header lines : 48                          

Open Circuit Voltage

Run on channel : 1 (SN 81504)
User : 
CE vs. WE compliance from -10 V to 10 V
Electrode connection : standard
Potential control : Ewe
Ewe ctrl range : min = -2.50 V, max = 2.50 V
Safety Limits :
	Do not start on E overload
Acquisition started on : 05/07/2026 16:58:53.259
Loaded Setting File :  C:\PEM-WE_measurements\2026\372_IV_IV IrOx, 5 min Pt, 30 min C, etched cathode\new station\Loopeis new\1,46 V different time gaps open cell\Loopeis 1,46V_60s_2_PEIS from 65kHz to 10kHz.mps
Saved on :
	File : L_12_Loopeis 1,46V_60s_2_PEIS from 65kHz to 10kHz_14_OCV_C01.mpr
	Directory : C:\PEM-WE_measurements\2026\372_IV_IV IrOx, 5 min Pt, 30 min C, etched cathode\new station\Loopeis new\1,46 V different time gaps open cell\
	Host : 192.168.0.2
Device : SP-150e (SN .005491)
Address : 192.168.0.91
EC-LAB for windows v11.71 (software)
Internet server v28.00 (firmware)
Command interpretor v14.01 (firmware)
Electrode material : 
Initial state : 
Electrolyte : 
Comments : 
Current amplifier : SP-150eB-20A
Electrode surface area : 0.001 cm²
Characteristic mass : 0.001 g
Equivalent Weight : 0.000 g/eq.
Density : 0.000 g/cm3
Volume (V) : 0.001 cm³
Record Analogic IN 1
Text export
   Mode : Standard
   Time format : Elapsed
Cycle Definition : Charge/Discharge alternance
tR (h:m:s)          0:01:0.0000         
dER/dt (mV/h)       1.0                 
record              <Ewe>               
dER (mV)            10.00               
dtR (s)             0.5000              
E range min (V)     -2.500              
E range max (V)     2.500               

mode	error	time/s	<Ewe/V>	Analog IN 1/V	
3	0	6.753501927504840E+002	1.2782773E+000	-3.4306191E-005
3	0	6.758501927378529E+002	1.2760379E+000	-7.2477276E-005
3	0	6.763501927252219E+002	1.2460455E+000	-5.3391734E-005
3	0	6.768501927125908E+002	1.1833500E+000	-7.2477276E-005
3	0	6.773501926999597E+002	1.0067502E+000	2.2950437E-005
3	0	6.778501926873287E+002	5.3893846E-001	-1.1064836E-004
3	0	6.783501926746976E+002	3.7433967E-001	3.8648941E-006
3	0	6.788501926620665E+002	3.4960163E-001	-1.5220648E-005
3	0	6.793501926494355E+002	3.3985296E-001	-7.2477276E-005
3	0	6.798501926368044E+002	3.3221969E-001	-9.1562819E-005
3	0	6.803501926241734E+002	3.2646120E-001	6.1121522E-005
3	0	6.808501926115423E+002	3.2208306E-001	-1.2973390E-004
3	0	6.813501925989112E+002	3.1868005E-001	-1.4881945E-004
3	0	6.818501925862802E+002	3.1594974E-001	4.2035979E-005
3	0	6.823501925736491E+002	3.1369400E-001	-1.4881945E-004
3	0	6.828501925610180E+002	3.1178051E-001	-1.5220648E-005
3	0	6.833501925483870E+002	3.1015521E-001	-3.4306191E-005
3	0	6.838501925357559E+002	3.0874479E-001	-9.1562819E-005
3	0	6.843501925231249E+002	3.0749038E-001	3.8648941E-006
3	0	6.848501925104938E+002	3.0635023E-001	-5.3391734E-005
3	0	6.853501924978627E+002	3.0531260E-001	-1.5220648E-005
3	0	6.858501924852317E+002	3.0434713E-001	-9.1562819E-005
3	0	6.863501924726006E+002	3.0343136E-001	-9.1562819E-005
3	0	6.868501924599695E+002	3.0254906E-001	-1.1064836E-004
3	0	6.873501924473385E+002	3.0173004E-001	-3.4306191E-005
3	0	6.878501924347074E+002	3.0096844E-001	-1.1064836E-004
3	0	6.883501924220764E+002	3.0022958E-001	-5.3391734E-005
3	0	6.888501924094453E+002	2.9951391E-001	-7.2477276E-005
3	0	6.893501923968142E+002	2.9880571E-001	3.8648941E-006
3	0	6.898501923841832E+002	2.9811037E-001	-1.2973390E-004
3	0	6.903501923715521E+002	2.9744312E-001	3.8648941E-006
3	0	6.908501923589210E+002	2.9677981E-001	-7.2477276E-005
3	0	6.913501923462900E+002	2.9615739E-001	-7.2477276E-005
3	0	6.918501923336589E+002	2.9555857E-001	-7.2477276E-005
3	0	6.923501923210279E+002	2.9496622E-001	-1.5220648E-005
3	0	6.928501923083968E+002	2.9437312E-001	2.2950437E-005
3	0	6.933501922957657E+002	2.9379186E-001	3.8648941E-006
3	0	6.938501922831347E+002	2.9321980E-001	-1.1064836E-004
3	0	6.943501922705036E+002	2.9262707E-001	8.0207064E-005
3	0	6.948501922578726E+002	2.9202664E-001	-3.4306191E-005
3	0	6.953501922452415E+002	2.9145470E-001	-7.2477276E-005
3	0	6.958501922326104E+002	2.9091108E-001	-9.1562819E-005
3	0	6.963501922199794E+002	2.9036880E-001	4.2035979E-005
3	0	6.968501922073483E+002	2.8982827E-001	-7.2477276E-005
3	0	6.973501921947172E+002	2.8929430E-001	-1.5220648E-005
3	0	6.978501921820862E+002	2.8875524E-001	-1.1064836E-004
3	0	6.983501921694551E+002	2.8820756E-001	-9.1562819E-005
3	0	6.988501921568241E+002	2.8764585E-001	-1.6790499E-004
3	0	6.993501921441930E+002	2.8711513E-001	-1.1064836E-004
3	0	6.998501921315619E+002	2.8661320E-001	2.2950437E-005
3	0	7.003501921189309E+002	2.8611284E-001	-3.4306191E-005
3	0	7.008501921062998E+002	2.8560823E-001	-5.3391734E-005
3	0	7.013501920936687E+002	2.8511488E-001	4.2035979E-005
3	0	7.018501920810377E+002	2.8461358E-001	2.2950437E-005
3	0	7.023501920684066E+002	2.8410321E-001	-1.8699054E-004
3	0	7.028501920557756E+002	2.8357992E-001	-1.5220648E-005
3	0	7.033501920431445E+002	2.8309479E-001	6.1121522E-005
3	0	7.038501920305134E+002	2.8263134E-001	2.2950437E-005
3	0	7.043501920178824E+002	2.8216749E-001	-1.4881945E-004
3	0	7.048501920052513E+002	2.8170338E-001	-9.1562819E-005
3	0	7.053501919926202E+002	2.8124228E-001	3.8648941E-006
3	0	7.058501919799892E+002	2.8077781E-001	8.0207064E-005
3	0	7.063501919673581E+002	2.8029874E-001	9.9292607E-005
3	0	7.068501919547271E+002	2.7981496E-001	-2.2516162E-004
3	0	7.073501919420960E+002	2.7936527E-001	-1.8699054E-004
3	0	7.078501919294649E+002	2.7894023E-001	-1.5220648E-005
3	0	7.083501919168339E+002	2.7850980E-001	-1.5220648E-005
3	0	7.088501919042028E+002	2.7808315E-001	-1.5220648E-005
3	0	7.093501918915717E+002	2.7765214E-001	-5.3391734E-005
3	0	7.098501918789407E+002	2.7722299E-001	-7.2477276E-005
3	0	7.103501918663096E+002	2.7678370E-001	1.3746369E-004
3	0	7.108501918536786E+002	2.7633229E-001	-5.3391734E-005
3	0	7.113501918410475E+002	2.7591744E-001	1.7563478E-004
3	0	7.118501918284164E+002	2.7552456E-001	1.1837815E-004
3	0	7.123501918157854E+002	2.7512547E-001	6.1121522E-005
3	0	7.128501918031543E+002	2.7473596E-001	3.8648941E-006
3	0	7.133501917905232E+002	2.7434334E-001	4.2035979E-005
3	0	7.138501917778922E+002	2.7394915E-001	3.8648941E-006
3	0	7.143501917652611E+002	2.7353266E-001	-7.2477276E-005
3	0	7.148501917526301E+002	2.7311188E-001	3.8648941E-006
3	0	7.153501917399990E+002	2.7272278E-001	-3.4306191E-005
3	0	7.158501917273679E+002	2.7236933E-001	4.2035979E-005
3	0	7.163501917147369E+002	2.7201366E-001	-9.1562819E-005
3	0	7.168501917021058E+002	2.7164543E-001	-3.4306191E-005
3	0	7.173501916894747E+002	2.7127209E-001	2.2950437E-005
3	0	7.178501916768437E+002	2.7091476E-001	-5.3391734E-005
3	0	7.183501916642126E+002	2.7053657E-001	-1.1064836E-004
3	0	7.188501916515816E+002	2.7013865E-001	-3.4306191E-005
3	0	7.193501916389505E+002	2.6978242E-001	-3.4306191E-005
3	0	7.198501916263194E+002	2.6945886E-001	-9.1562819E-005
3	0	7.203501916136884E+002	2.6912260E-001	-1.5220648E-005
3	0	7.208501916010573E+002	2.6878327E-001	3.8648941E-006
3	0	7.213501915884262E+002	2.6844728E-001	3.8648941E-006
3	0	7.218501915757952E+002	2.6811683E-001	-3.4306191E-005
3	0	7.223501915631641E+002	2.6776442E-001	2.2950437E-005
3	0	7.228501915505331E+002	2.6740414E-001	-5.3391734E-005
3	0	7.233501915379020E+002	2.6707736E-001	-3.4306191E-005
3	0	7.238501915252709E+002	2.6677409E-001	2.2950437E-005
3	0	7.243501915126399E+002	2.6646888E-001	-3.4306191E-005
3	0	7.248501915000088E+002	2.6616621E-001	-1.1064836E-004
3	0	7.253501914873777E+002	2.6586798E-001	8.0207064E-005
3	0	7.258501914747467E+002	2.6556069E-001	-3.4306191E-005
3	0	7.263501914621156E+002	2.6522914E-001	3.8648941E-006
3	0	7.268501914494846E+002	2.6488969E-001	-9.1562819E-005
3	0	7.273501914368535E+002	2.6459548E-001	-9.1562819E-005
3	0	7.278501914242224E+002	2.6432750E-001	-9.1562819E-005
3	0	7.283501914115914E+002	2.6404777E-001	2.3289140E-004
3	0	7.288501913989603E+002	2.6377741E-001	2.2950437E-005
3	0	7.293501913863292E+002	2.6350322E-001	-1.5220648E-005
3	0	7.298501913736982E+002	2.6322609E-001	-5.3391734E-005
3	0	7.303501913610671E+002	2.6292631E-001	-7.2477276E-005
3	0	7.308501913484361E+002	2.6262352E-001	-1.4881945E-004
3	0	7.313501913358050E+002	2.6234865E-001	-9.1562819E-005
3	0	7.318501913231739E+002	2.6209924E-001	-9.1562819E-005
3	0	7.323501913105429E+002	2.6184911E-001	-7.2477276E-005
3	0	7.328501912979118E+002	2.6159704E-001	8.0207064E-005
3	0	7.333501912852807E+002	2.6134381E-001	-9.1562819E-005
3	0	7.338501912726497E+002	2.6108822E-001	-1.5220648E-005
3	0	7.343501912600186E+002	2.6081344E-001	-1.2973390E-004
3	0	7.348501912473876E+002	2.6052675E-001	-9.1562819E-005
3	0	7.348505912473775E+002	2.6040706E-001	-1.5220648E-005