EC-Lab ASCII FILE
Nb header lines : 48                          

Open Circuit Voltage

Run on channel : 1 (SN 81504)
User : 
CE vs. WE compliance from -10 V to 10 V
Electrode connection : standard
Potential control : Ewe
Ewe ctrl range : min = -2.50 V, max = 2.50 V
Safety Limits :
	Do not start on E overload
Acquisition started on : 05/07/2026 16:58:53.259
Loaded Setting File :  C:\PEM-WE_measurements\2026\372_IV_IV IrOx, 5 min Pt, 30 min C, etched cathode\new station\Loopeis new\1,46 V different time gaps open cell\Loopeis 1,46V_60s_2_PEIS from 65kHz to 10kHz.mps
Saved on :
	File : L_12_Loopeis 1,46V_60s_2_PEIS from 65kHz to 10kHz_02_OCV_C01.mpr
	Directory : C:\PEM-WE_measurements\2026\372_IV_IV IrOx, 5 min Pt, 30 min C, etched cathode\new station\Loopeis new\1,46 V different time gaps open cell\
	Host : 192.168.0.2
Device : SP-150e (SN .005491)
Address : 192.168.0.91
EC-LAB for windows v11.71 (software)
Internet server v28.00 (firmware)
Command interpretor v14.01 (firmware)
Electrode material : 
Initial state : 
Electrolyte : 
Comments : 
Current amplifier : SP-150eB-20A
Electrode surface area : 0.001 cm²
Characteristic mass : 0.001 g
Equivalent Weight : 0.000 g/eq.
Density : 0.000 g/cm3
Volume (V) : 0.001 cm³
Record Analogic IN 1
Text export
   Mode : Standard
   Time format : Elapsed
Cycle Definition : Charge/Discharge alternance
tR (h:m:s)          0:01:0.0000         
dER/dt (mV/h)       1.0                 
record              <Ewe>               
dER (mV)            10.00               
dtR (s)             0.5000              
E range min (V)     -2.500              
E range max (V)     2.500               

mode	error	time/s	<Ewe/V>	Analog IN 1/V	
3	0	4.549979885057837E+001	1.2780060E+000	-3.4306191E-005
3	0	4.599979883794731E+001	1.2762033E+000	3.8648941E-006
3	0	4.649979882531625E+001	1.2474430E+000	-7.2477276E-005
3	0	4.699979881268519E+001	1.1875200E+000	-5.3391734E-005
3	0	4.749979880005412E+001	1.0270709E+000	-3.4306191E-005
3	0	4.799979878742306E+001	5.6168503E-001	4.2035979E-005
3	0	4.849979877479200E+001	3.7822458E-001	2.2950437E-005
3	0	4.899979876216094E+001	3.5017052E-001	-3.4306191E-005
3	0	4.949979874952987E+001	3.4018144E-001	-1.2973390E-004
3	0	4.999979873689881E+001	3.3244938E-001	3.8648941E-006
3	0	5.049979872426775E+001	3.2662904E-001	2.2950437E-005
3	0	5.099979871163669E+001	3.2219812E-001	-3.4306191E-005
3	0	5.149979869900562E+001	3.1874970E-001	3.8648941E-006
3	0	5.199979868637456E+001	3.1601173E-001	-1.1064836E-004
3	0	5.249979867374350E+001	3.1379357E-001	-1.5220648E-005
3	0	5.299979866111244E+001	3.1191334E-001	6.1121522E-005
3	0	5.349979864848137E+001	3.1030732E-001	-1.4881945E-004
3	0	5.399979863585031E+001	3.0891204E-001	6.1121522E-005
3	0	5.449979862321925E+001	3.0765724E-001	4.2035979E-005
3	0	5.499979861058819E+001	3.0649701E-001	-1.2973390E-004
3	0	5.549979859795712E+001	3.0542260E-001	-1.2973390E-004
3	0	5.599979858532606E+001	3.0445564E-001	-1.5220648E-005
3	0	5.649979857269500E+001	3.0356464E-001	8.0207064E-005
3	0	5.699979856006394E+001	3.0271432E-001	-1.4881945E-004
3	0	5.749979854743287E+001	3.0191609E-001	-1.5220648E-005
3	0	5.799979853480181E+001	3.0115077E-001	4.2035979E-005
3	0	5.849979852217075E+001	3.0042076E-001	-9.1562819E-005
3	0	5.899979850953969E+001	2.9969674E-001	-5.3391734E-005
3	0	5.949979849690862E+001	2.9896796E-001	-9.1562819E-005
3	0	5.999979848427756E+001	2.9828566E-001	-1.2973390E-004
3	0	6.049979847164650E+001	2.9763645E-001	-1.6790499E-004
3	0	6.099979845901544E+001	2.9699999E-001	-9.1562819E-005
3	0	6.149979844638438E+001	2.9637340E-001	-7.2477276E-005
3	0	6.199979843375331E+001	2.9576698E-001	-1.5220648E-005
3	0	6.249979842112225E+001	2.9516307E-001	-3.4306191E-005
3	0	6.299979840849119E+001	2.9456222E-001	-3.4306191E-005
3	0	6.349979839586013E+001	2.9394075E-001	-5.3391734E-005
3	0	6.399979838322906E+001	2.9334927E-001	3.8648941E-006
3	0	6.449979837059800E+001	2.9278636E-001	-3.4306191E-005
3	0	6.499979835796694E+001	2.9222098E-001	-7.2477276E-005
3	0	6.549979834533588E+001	2.9166684E-001	2.2950437E-005
3	0	6.599979833270481E+001	2.9112276E-001	-3.4306191E-005
3	0	6.649979832007375E+001	2.9057518E-001	3.8648941E-006
3	0	6.699979830744269E+001	2.9002631E-001	2.2950437E-005
3	0	6.749979829481163E+001	2.8945345E-001	3.8648941E-006
3	0	6.799979828218056E+001	2.8891692E-001	6.1121522E-005
3	0	6.849979826954950E+001	2.8840321E-001	-7.2477276E-005
3	0	6.899979825691844E+001	2.8788659E-001	-7.2477276E-005
3	0	6.949979824428738E+001	2.8737631E-001	-1.1064836E-004
3	0	6.999979823165631E+001	2.8687233E-001	6.1121522E-005
3	0	7.049979821902525E+001	2.8637391E-001	-1.5220648E-005
3	0	7.099979820639419E+001	2.8585836E-001	-1.4881945E-004
3	0	7.149979819376313E+001	2.8533047E-001	-1.1064836E-004
3	0	7.199979818113206E+001	2.8483495E-001	2.2950437E-005
3	0	7.249979816850100E+001	2.8435954E-001	-7.2477276E-005
3	0	7.299979815586994E+001	2.8388143E-001	-1.1064836E-004
3	0	7.349979814323888E+001	2.8340769E-001	2.2950437E-005
3	0	7.399979813060781E+001	2.8294137E-001	9.9292607E-005
3	0	7.449979811797675E+001	2.8246486E-001	-3.4306191E-005
3	0	7.499979810534569E+001	2.8198656E-001	-1.5220648E-005
3	0	7.549979809271463E+001	2.8149587E-001	4.2035979E-005
3	0	7.599979808008356E+001	2.8102982E-001	2.2950437E-005
3	0	7.649979806745250E+001	2.8059298E-001	-5.3391734E-005
3	0	7.699979805482144E+001	2.8015497E-001	-3.4306191E-005
3	0	7.749979804219038E+001	2.7971426E-001	-1.4881945E-004
3	0	7.799979802955932E+001	2.7926666E-001	2.2950437E-005
3	0	7.849979801692825E+001	2.7881005E-001	-1.5220648E-005
3	0	7.899979800429719E+001	2.7836969E-001	-9.1562819E-005
3	0	7.949979799166613E+001	2.7792707E-001	4.2035979E-005
3	0	7.999979797903507E+001	2.7751142E-001	2.2950437E-005
3	0	8.049979796640400E+001	2.7712020E-001	6.1121522E-005
3	0	8.099979795377294E+001	2.7671191E-001	-3.4306191E-005
3	0	8.149979794114188E+001	2.7631503E-001	-3.4306191E-005
3	0	8.199979792851082E+001	2.7592114E-001	-3.4306191E-005
3	0	8.249979791587975E+001	2.7552116E-001	-1.1064836E-004
3	0	8.299979790324869E+001	2.7511606E-001	1.1837815E-004
3	0	8.349979789061763E+001	2.7467704E-001	-1.5220648E-005
3	0	8.399979787798657E+001	2.7428567E-001	2.2950437E-005
3	0	8.449979786535550E+001	2.7391884E-001	-7.2477276E-005
3	0	8.499979785272444E+001	2.7353296E-001	4.2035979E-005
3	0	8.549979784009338E+001	2.7316427E-001	-9.1562819E-005
3	0	8.599979782746232E+001	2.7279508E-001	-5.3391734E-005
3	0	8.649979781483125E+001	2.7242383E-001	-1.2973390E-004
3	0	8.699979780220019E+001	2.7203238E-001	6.1121522E-005
3	0	8.749979778956913E+001	2.7163765E-001	4.2035979E-005
3	0	8.799979777693807E+001	2.7126744E-001	-1.1064836E-004
3	0	8.849979776430700E+001	2.7092931E-001	-5.3391734E-005
3	0	8.899979775167594E+001	2.7059221E-001	9.9292607E-005
3	0	8.949979773904488E+001	2.7026176E-001	8.0207064E-005
3	0	8.999979772641382E+001	2.6991576E-001	-5.3391734E-005
3	0	9.049979771378275E+001	2.6957721E-001	-3.4306191E-005
3	0	9.099979770115169E+001	2.6921371E-001	3.8648941E-006
3	0	9.149979768852063E+001	2.6884589E-001	-1.4881945E-004
3	0	9.199979767588957E+001	2.6850623E-001	-1.4881945E-004
3	0	9.249979766325851E+001	2.6819140E-001	-5.3391734E-005
3	0	9.299979765062744E+001	2.6788583E-001	-1.5220648E-005
3	0	9.349979763799638E+001	2.6757675E-001	3.8648941E-006
3	0	9.399979762536532E+001	2.6726693E-001	8.0207064E-005
3	0	9.449979761273426E+001	2.6695162E-001	-5.3391734E-005
3	0	9.499979760010319E+001	2.6662517E-001	-5.3391734E-005
3	0	9.549979758747213E+001	2.6627836E-001	-9.1562819E-005
3	0	9.599979757484107E+001	2.6596659E-001	2.2950437E-005
3	0	9.649979756221001E+001	2.6568350E-001	4.2035979E-005
3	0	9.699979754957894E+001	2.6540798E-001	-9.1562819E-005
3	0	9.749979753694788E+001	2.6511061E-001	8.0207064E-005
3	0	9.799979752431682E+001	2.6482514E-001	-5.3391734E-005
3	0	9.849979751168576E+001	2.6453584E-001	-3.4306191E-005
3	0	9.899979749905469E+001	2.6423818E-001	8.0207064E-005
3	0	9.949979748642363E+001	2.6391605E-001	-2.0607607E-004
3	0	9.999979747379257E+001	2.6363492E-001	-1.1064836E-004
3	0	1.004997974611615E+002	2.6337826E-001	-7.2477276E-005
3	0	1.009997974485304E+002	2.6312184E-001	-7.2477276E-005
3	0	1.014997974358994E+002	2.6286861E-001	-3.4306191E-005
3	0	1.019997974232683E+002	2.6260558E-001	-7.2477276E-005
3	0	1.024997974106373E+002	2.6234990E-001	-1.4881945E-004
3	0	1.029997973980062E+002	2.6206651E-001	4.2035979E-005
3	0	1.034997973853751E+002	2.6177183E-001	4.2035979E-005
3	0	1.039997973727441E+002	2.6150760E-001	-5.3391734E-005
3	0	1.044997973601130E+002	2.6126644E-001	-9.1562819E-005
3	0	1.049997973474819E+002	2.6103947E-001	-1.1064836E-004
3	0	1.050001973474718E+002	2.6093808E-001	-1.5220648E-005