EC-Lab ASCII FILE
Nb header lines : 48                          

Open Circuit Voltage

Run on channel : 1 (SN 81504)
User : 
CE vs. WE compliance from -10 V to 10 V
Electrode connection : standard
Potential control : Ewe
Ewe ctrl range : min = -2.50 V, max = 2.50 V
Safety Limits :
	Do not start on E overload
Acquisition started on : 05/07/2026 16:58:53.259
Loaded Setting File :  C:\PEM-WE_measurements\2026\372_IV_IV IrOx, 5 min Pt, 30 min C, etched cathode\new station\Loopeis new\1,46 V different time gaps open cell\Loopeis 1,46V_60s_2_PEIS from 65kHz to 10kHz.mps
Saved on :
	File : L_12_Loopeis 1,46V_60s_2_PEIS from 65kHz to 10kHz_12_OCV_C01.mpr
	Directory : C:\PEM-WE_measurements\2026\372_IV_IV IrOx, 5 min Pt, 30 min C, etched cathode\new station\Loopeis new\1,46 V different time gaps open cell\
	Host : 192.168.0.2
Device : SP-150e (SN .005491)
Address : 192.168.0.91
EC-LAB for windows v11.71 (software)
Internet server v28.00 (firmware)
Command interpretor v14.01 (firmware)
Electrode material : 
Initial state : 
Electrolyte : 
Comments : 
Current amplifier : SP-150eB-20A
Electrode surface area : 0.001 cm²
Characteristic mass : 0.001 g
Equivalent Weight : 0.000 g/eq.
Density : 0.000 g/cm3
Volume (V) : 0.001 cm³
Record Analogic IN 1
Text export
   Mode : Standard
   Time format : Elapsed
Cycle Definition : Charge/Discharge alternance
tR (h:m:s)          0:01:0.0000         
dER/dt (mV/h)       1.0                 
record              <Ewe>               
dER (mV)            10.00               
dtR (s)             0.5000              
E range min (V)     -2.500              
E range max (V)     2.500               

mode	error	time/s	<Ewe/V>	Analog IN 1/V	
3	0	5.703155954038812E+002	1.0708929E+000	1.1837815E-004
3	0	5.708155953912501E+002	1.2302080E+000	-1.1064836E-004
3	0	5.713155953786190E+002	1.2019851E+000	-2.2516162E-004
3	0	5.718155953659880E+002	1.1378162E+000	4.2035979E-005
3	0	5.723155953533569E+002	9.4370061E-001	-1.1064836E-004
3	0	5.728155953407258E+002	4.9446541E-001	2.2950437E-005
3	0	5.733155953280948E+002	3.4454107E-001	-1.4881945E-004
3	0	5.738155953154637E+002	3.2427567E-001	-1.5220648E-005
3	0	5.743155953028327E+002	3.1576747E-001	3.8648941E-006
3	0	5.748155952902016E+002	3.0882096E-001	3.8648941E-006
3	0	5.753155952775705E+002	3.0346310E-001	-3.4306191E-005
3	0	5.758155952649395E+002	2.9935762E-001	2.2950437E-005
3	0	5.763155952523084E+002	2.9614130E-001	-3.4306191E-005
3	0	5.768155952396774E+002	2.9357314E-001	-5.3391734E-005
3	0	5.773155952270463E+002	2.9146773E-001	-5.3391734E-005
3	0	5.778155952144152E+002	2.8968799E-001	-1.5220648E-005
3	0	5.783155952017842E+002	2.8815222E-001	-1.5220648E-005
3	0	5.788155951891531E+002	2.8678501E-001	2.2950437E-005
3	0	5.793155951765220E+002	2.8559777E-001	-1.1064836E-004
3	0	5.798155951638910E+002	2.8454778E-001	-7.2477276E-005
3	0	5.803155951512599E+002	2.8357473E-001	-1.1064836E-004
3	0	5.808155951386289E+002	2.8267536E-001	-7.2477276E-005
3	0	5.813155951259978E+002	2.8184777E-001	-9.1562819E-005
3	0	5.818155951133667E+002	2.8105319E-001	8.0207064E-005
3	0	5.823155951007357E+002	2.8028893E-001	-5.3391734E-005
3	0	5.828155950881046E+002	2.7954248E-001	2.2950437E-005
3	0	5.833155950754735E+002	2.7884489E-001	-3.4306191E-005
3	0	5.838155950628425E+002	2.7819186E-001	-1.6790499E-004
3	0	5.843155950502114E+002	2.7754980E-001	-1.5220648E-005
3	0	5.848155950375804E+002	2.7692574E-001	-1.5220648E-005
3	0	5.853155950249493E+002	2.7631259E-001	4.2035979E-005
3	0	5.858155950123182E+002	2.7571762E-001	-5.3391734E-005
3	0	5.863155949996872E+002	2.7511525E-001	-7.2477276E-005
3	0	5.868155949870561E+002	2.7451143E-001	-1.5220648E-005
3	0	5.873155949744250E+002	2.7393815E-001	-1.6790499E-004
3	0	5.878155949617940E+002	2.7339119E-001	4.2035979E-005
3	0	5.883155949491629E+002	2.7283484E-001	-7.2477276E-005
3	0	5.888155949365319E+002	2.7229816E-001	-1.6790499E-004
3	0	5.893155949239008E+002	2.7176616E-001	-1.8699054E-004
3	0	5.898155949112697E+002	2.7123091E-001	2.2950437E-005
3	0	5.903155948986387E+002	2.7069101E-001	-1.1064836E-004
3	0	5.908155948860076E+002	2.7013123E-001	-7.2477276E-005
3	0	5.913155948733765E+002	2.6961151E-001	3.8648941E-006
3	0	5.918155948607455E+002	2.6911771E-001	3.8648941E-006
3	0	5.923155948481144E+002	2.6861054E-001	2.2950437E-005
3	0	5.928155948354834E+002	2.6811668E-001	4.2035979E-005
3	0	5.933155948228523E+002	2.6762041E-001	-9.1562819E-005
3	0	5.938155948102212E+002	2.6713011E-001	-3.4306191E-005
3	0	5.943155947975902E+002	2.6662132E-001	3.8648941E-006
3	0	5.948155947849591E+002	2.6610729E-001	4.2035979E-005
3	0	5.953155947723280E+002	2.6562792E-001	-3.4306191E-005
3	0	5.958155947596970E+002	2.6515976E-001	3.8648941E-006
3	0	5.963155947470659E+002	2.6469228E-001	3.8648941E-006
3	0	5.968155947344349E+002	2.6423141E-001	-1.5220648E-005
3	0	5.973155947218038E+002	2.6377067E-001	-7.2477276E-005
3	0	5.978155947091727E+002	2.6331279E-001	-5.3391734E-005
3	0	5.983155946965417E+002	2.6283416E-001	4.2035979E-005
3	0	5.988155946839106E+002	2.6234764E-001	-1.5220648E-005
3	0	5.993155946712795E+002	2.6189274E-001	-3.4306191E-005
3	0	5.998155946586485E+002	2.6145667E-001	-9.1562819E-005
3	0	6.003155946460174E+002	2.6101315E-001	6.1121522E-005
3	0	6.008155946333864E+002	2.6057306E-001	4.2035979E-005
3	0	6.013155946207553E+002	2.6013651E-001	-1.1064836E-004
3	0	6.018155946081242E+002	2.5971401E-001	-7.2477276E-005
3	0	6.023155945954932E+002	2.5927520E-001	2.2950437E-005
3	0	6.028155945828621E+002	2.5882655E-001	-7.2477276E-005
3	0	6.033155945702310E+002	2.5839934E-001	4.2035979E-005
3	0	6.038155945576000E+002	2.5799838E-001	-7.2477276E-005
3	0	6.043155945449689E+002	2.5758874E-001	-9.1562819E-005
3	0	6.048155945323379E+002	2.5718832E-001	-1.1064836E-004
3	0	6.053155945197068E+002	2.5679260E-001	-7.2477276E-005
3	0	6.058155945070757E+002	2.5639436E-001	-1.8699054E-004
3	0	6.063155944944447E+002	2.5598162E-001	-1.1064836E-004
3	0	6.068155944818136E+002	2.5556093E-001	-5.3391734E-005
3	0	6.073155944691825E+002	2.5517303E-001	-1.5220648E-005
3	0	6.078155944565515E+002	2.5479794E-001	6.1121522E-005
3	0	6.083155944439204E+002	2.5442350E-001	-5.3391734E-005
3	0	6.088155944312894E+002	2.5405276E-001	1.5654923E-004
3	0	6.093155944186583E+002	2.5368968E-001	-1.8699054E-004
3	0	6.098155944060272E+002	2.5331911E-001	-5.3391734E-005
3	0	6.103155943933962E+002	2.5293848E-001	3.8648941E-006
3	0	6.108155943807651E+002	2.5254276E-001	-5.3391734E-005
3	0	6.113155943681340E+002	2.5218269E-001	-3.4306191E-005
3	0	6.118155943555030E+002	2.5183466E-001	-9.1562819E-005
3	0	6.123155943428719E+002	2.5148734E-001	-9.1562819E-005
3	0	6.128155943302409E+002	2.5114253E-001	3.8648941E-006
3	0	6.133155943176098E+002	2.5079903E-001	-3.4306191E-005
3	0	6.138155943049787E+002	2.5045964E-001	-1.1064836E-004
3	0	6.143155942923477E+002	2.5010377E-001	4.2035979E-005
3	0	6.148155942797166E+002	2.4974349E-001	-5.3391734E-005
3	0	6.153155942670855E+002	2.4941102E-001	6.1121522E-005
3	0	6.158155942544545E+002	2.4910182E-001	3.8648941E-006
3	0	6.163155942418234E+002	2.4878448E-001	-1.4881945E-004
3	0	6.168155942291924E+002	2.4846786E-001	-1.4881945E-004
3	0	6.173155942165613E+002	2.4815573E-001	-2.0607607E-004
3	0	6.178155942039302E+002	2.4784327E-001	-5.3391734E-005
3	0	6.183155941912992E+002	2.4750966E-001	4.2035979E-005
3	0	6.188155941786681E+002	2.4716507E-001	-5.3391734E-005
3	0	6.193155941660370E+002	2.4685597E-001	-5.3391734E-005
3	0	6.198155941534060E+002	2.4657024E-001	-1.1064836E-004
3	0	6.203155941407749E+002	2.4627472E-001	6.1121522E-005
3	0	6.208155941281439E+002	2.4598409E-001	3.8648941E-006
3	0	6.213155941155128E+002	2.4569811E-001	3.8648941E-006
3	0	6.218155941028817E+002	2.4541280E-001	-7.2477276E-005
3	0	6.223155940902507E+002	2.4511167E-001	-1.5220648E-005
3	0	6.228155940776196E+002	2.4479379E-001	9.9292607E-005
3	0	6.233155940649885E+002	2.4450941E-001	4.2035979E-005
3	0	6.238155940523575E+002	2.4424630E-001	3.8648941E-006
3	0	6.243155940397264E+002	2.4398163E-001	-5.3391734E-005
3	0	6.248155940270954E+002	2.4372081E-001	-3.4306191E-005
3	0	6.253155940144643E+002	2.4346215E-001	2.2950437E-005
3	0	6.258155940018332E+002	2.4319813E-001	-5.3391734E-005
3	0	6.263155939892022E+002	2.4292438E-001	-1.4881945E-004
3	0	6.268155939765711E+002	2.4263719E-001	3.8648941E-006
3	0	6.273155939639400E+002	2.4238150E-001	-5.3391734E-005
3	0	6.278155939513090E+002	2.4214527E-001	-1.1064836E-004
3	0	6.283155939386779E+002	2.4190357E-001	-1.1064836E-004
3	0	6.288155939260469E+002	2.4166732E-001	3.8648941E-006
3	0	6.293155939134158E+002	2.4143571E-001	2.2950437E-005
3	0	6.298155939007847E+002	2.4118805E-001	8.0207064E-005
3	0	6.298495938999258E+002	2.4104695E-001	-9.1562819E-005