EC-Lab ASCII FILE
Nb header lines : 48                          

Open Circuit Voltage

Run on channel : 1 (SN 81504)
User : 
CE vs. WE compliance from -10 V to 10 V
Electrode connection : standard
Potential control : Ewe
Ewe ctrl range : min = -2.50 V, max = 2.50 V
Safety Limits :
	Do not start on E overload
Acquisition started on : 05/07/2026 16:58:53.259
Loaded Setting File :  C:\PEM-WE_measurements\2026\372_IV_IV IrOx, 5 min Pt, 30 min C, etched cathode\new station\Loopeis new\1,46 V different time gaps open cell\Loopeis 1,46V_60s_2_PEIS from 65kHz to 10kHz.mps
Saved on :
	File : L_12_Loopeis 1,46V_60s_2_PEIS from 65kHz to 10kHz_16_OCV_C01.mpr
	Directory : C:\PEM-WE_measurements\2026\372_IV_IV IrOx, 5 min Pt, 30 min C, etched cathode\new station\Loopeis new\1,46 V different time gaps open cell\
	Host : 192.168.0.2
Device : SP-150e (SN .005491)
Address : 192.168.0.91
EC-LAB for windows v11.71 (software)
Internet server v28.00 (firmware)
Command interpretor v14.01 (firmware)
Electrode material : 
Initial state : 
Electrolyte : 
Comments : 
Current amplifier : SP-150eB-20A
Electrode surface area : 0.001 cm²
Characteristic mass : 0.001 g
Equivalent Weight : 0.000 g/eq.
Density : 0.000 g/cm3
Volume (V) : 0.001 cm³
Record Analogic IN 1
Text export
   Mode : Standard
   Time format : Elapsed
Cycle Definition : Charge/Discharge alternance
tR (h:m:s)          0:01:0.0000         
dER/dt (mV/h)       1.0                 
record              <Ewe>               
dER (mV)            10.00               
dtR (s)             0.5000              
E range min (V)     -2.500              
E range max (V)     2.500               

mode	error	time/s	<Ewe/V>	Analog IN 1/V	
3	0	7.820443934549985E+002	1.0693040E+000	6.1121522E-005
3	0	7.825443934423674E+002	1.2297564E+000	-3.4306191E-005
3	0	7.830443934297364E+002	1.2009377E+000	-3.4306191E-005
3	0	7.835443934171053E+002	1.1363226E+000	-3.4306191E-005
3	0	7.840443934044742E+002	9.4334859E-001	-1.5220648E-005
3	0	7.845443933918432E+002	4.9616575E-001	-3.4306191E-005
3	0	7.850443933792121E+002	3.4385306E-001	-1.1064836E-004
3	0	7.855443933665811E+002	3.2314441E-001	-9.1562819E-005
3	0	7.860443933539500E+002	3.1472078E-001	-1.1064836E-004
3	0	7.865443933413189E+002	3.0780411E-001	-1.5220648E-005
3	0	7.870443933286879E+002	3.0244946E-001	-3.4306191E-005
3	0	7.875443933160568E+002	2.9834250E-001	6.1121522E-005
3	0	7.880443933034258E+002	2.9513115E-001	6.1121522E-005
3	0	7.885443932907947E+002	2.9256490E-001	-3.4306191E-005
3	0	7.890443932781636E+002	2.9045239E-001	-3.4306191E-005
3	0	7.895443932655326E+002	2.8868520E-001	2.2950437E-005
3	0	7.900443932529015E+002	2.8714818E-001	-9.1562819E-005
3	0	7.905443932402704E+002	2.8578293E-001	8.0207064E-005
3	0	7.910443932276394E+002	2.8459668E-001	-1.2973390E-004
3	0	7.915443932150083E+002	2.8354293E-001	-3.4306191E-005
3	0	7.920443932023773E+002	2.8259259E-001	-7.2477276E-005
3	0	7.925443931897462E+002	2.8171203E-001	-1.5220648E-005
3	0	7.930443931771151E+002	2.8088266E-001	3.8648941E-006
3	0	7.935443931644841E+002	2.8009358E-001	3.8648941E-006
3	0	7.940443931518530E+002	2.7932987E-001	-1.5220648E-005
3	0	7.945443931392219E+002	2.7858856E-001	4.2035979E-005
3	0	7.950443931265909E+002	2.7788380E-001	-7.2477276E-005
3	0	7.955443931139598E+002	2.7723458E-001	-7.2477276E-005
3	0	7.960443931013288E+002	2.7660322E-001	6.1121522E-005
3	0	7.965443930886977E+002	2.7598780E-001	3.8648941E-006
3	0	7.970443930760666E+002	2.7537718E-001	-3.4306191E-005
3	0	7.975443930634356E+002	2.7478057E-001	2.2950437E-005
3	0	7.980443930508045E+002	2.7418405E-001	-1.6790499E-004
3	0	7.985443930381734E+002	2.7356887E-001	-1.2973390E-004
3	0	7.990443930255424E+002	2.7298367E-001	-9.1562819E-005
3	0	7.995443930129113E+002	2.7243116E-001	-7.2477276E-005
3	0	8.000443930002803E+002	2.7189592E-001	-1.5220648E-005
3	0	8.005443929876492E+002	2.7134815E-001	6.1121522E-005
3	0	8.010443929750181E+002	2.7081844E-001	-5.3391734E-005
3	0	8.015443929623871E+002	2.7028564E-001	-1.1064836E-004
3	0	8.020443929497560E+002	2.6974234E-001	-1.2973390E-004
3	0	8.025443929371249E+002	2.6918975E-001	-7.2477276E-005
3	0	8.030443929244939E+002	2.6865622E-001	-1.6790499E-004
3	0	8.035443929118628E+002	2.6815540E-001	4.2035979E-005
3	0	8.040443928992318E+002	2.6764703E-001	-9.1562819E-005
3	0	8.045443928866007E+002	2.6715365E-001	-7.2477276E-005
3	0	8.050443928739696E+002	2.6665843E-001	-7.2477276E-005
3	0	8.055443928613386E+002	2.6615793E-001	-3.4306191E-005
3	0	8.060443928487075E+002	2.6565158E-001	-1.5220648E-005
3	0	8.065443928360764E+002	2.6513883E-001	6.1121522E-005
3	0	8.070443928234454E+002	2.6465702E-001	6.1121522E-005
3	0	8.075443928108143E+002	2.6419604E-001	8.0207064E-005
3	0	8.080443927981833E+002	2.6373434E-001	-1.5220648E-005
3	0	8.085443927855522E+002	2.6327649E-001	-5.3391734E-005
3	0	8.090443927729211E+002	2.6281446E-001	6.1121522E-005
3	0	8.095443927602901E+002	2.6235676E-001	2.2950437E-005
3	0	8.100443927476590E+002	2.6188573E-001	-5.3391734E-005
3	0	8.105443927350279E+002	2.6139909E-001	-9.1562819E-005
3	0	8.110443927223969E+002	2.6093495E-001	-1.5220648E-005
3	0	8.115443927097658E+002	2.6050693E-001	-5.3391734E-005
3	0	8.120443926971348E+002	2.6007476E-001	-9.1562819E-005
3	0	8.125443926845037E+002	2.5964966E-001	-1.2973390E-004
3	0	8.130443926718726E+002	2.5922170E-001	3.8648941E-006
3	0	8.135443926592416E+002	2.5879893E-001	3.8648941E-006
3	0	8.140443926466105E+002	2.5835609E-001	-1.6790499E-004
3	0	8.145443926339794E+002	2.5790605E-001	-1.4881945E-004
3	0	8.150443926213484E+002	2.5747544E-001	-5.3391734E-005
3	0	8.155443926087173E+002	2.5707266E-001	-7.2477276E-005
3	0	8.160443925960863E+002	2.5667331E-001	2.2950437E-005
3	0	8.165443925834552E+002	2.5627440E-001	2.2950437E-005
3	0	8.170443925708241E+002	2.5587580E-001	6.1121522E-005
3	0	8.175443925581931E+002	2.5547990E-001	4.2035979E-005
3	0	8.180443925455620E+002	2.5506374E-001	-9.1562819E-005
3	0	8.185443925329309E+002	2.5464389E-001	-7.2477276E-005
3	0	8.190443925202999E+002	2.5424722E-001	-7.2477276E-005
3	0	8.195443925076688E+002	2.5387773E-001	-7.2477276E-005
3	0	8.200443924950378E+002	2.5350884E-001	6.1121522E-005
3	0	8.205443924824067E+002	2.5313199E-001	-7.2477276E-005
3	0	8.210443924697756E+002	2.5276625E-001	3.8648941E-006
3	0	8.215443924571446E+002	2.5239611E-001	2.2950437E-005
3	0	8.220443924445135E+002	2.5201014E-001	2.2950437E-005
3	0	8.225443924318824E+002	2.5161374E-001	-7.2477276E-005
3	0	8.230443924192514E+002	2.5124508E-001	-5.3391734E-005
3	0	8.235443924066203E+002	2.5090110E-001	-5.3391734E-005
3	0	8.240443923939893E+002	2.5056171E-001	-5.3391734E-005
3	0	8.245443923813582E+002	2.5021636E-001	-7.2477276E-005
3	0	8.250443923687271E+002	2.4987550E-001	-7.2477276E-005
3	0	8.255443923560961E+002	2.4953544E-001	-3.4306191E-005
3	0	8.260443923434650E+002	2.4918522E-001	4.2035979E-005
3	0	8.265443923308339E+002	2.4881917E-001	3.8648941E-006
3	0	8.270443923182029E+002	2.4848536E-001	-1.6790499E-004
3	0	8.275443923055718E+002	2.4817087E-001	-7.2477276E-005
3	0	8.280443922929408E+002	2.4786192E-001	-9.1562819E-005
3	0	8.285443922803097E+002	2.4754843E-001	-3.4306191E-005
3	0	8.290443922676786E+002	2.4722947E-001	4.2035979E-005
3	0	8.295443922550476E+002	2.4691564E-001	4.2035979E-005
3	0	8.300443922424165E+002	2.4659161E-001	-1.6790499E-004
3	0	8.305443922297854E+002	2.4624853E-001	-1.2973390E-004
3	0	8.310443922171544E+002	2.4593526E-001	3.8648941E-006
3	0	8.315443922045233E+002	2.4565546E-001	-7.2477276E-005
3	0	8.320443921918923E+002	2.4537688E-001	3.8648941E-006
3	0	8.325443921792612E+002	2.4508737E-001	3.8648941E-006
3	0	8.330443921666301E+002	2.4480002E-001	-1.8699054E-004
3	0	8.335443921539991E+002	2.4451371E-001	6.1121522E-005
3	0	8.340443921413680E+002	2.4421403E-001	-1.1064836E-004
3	0	8.345443921287369E+002	2.4389498E-001	6.1121522E-005
3	0	8.350443921161059E+002	2.4360612E-001	-9.1562819E-005
3	0	8.355443921034748E+002	2.4334887E-001	3.8648941E-006
3	0	8.360443920908438E+002	2.4309489E-001	-2.8241824E-004
3	0	8.365443920782127E+002	2.4283050E-001	4.2035979E-005
3	0	8.370443920655816E+002	2.4257477E-001	3.8648941E-006
3	0	8.375443920529506E+002	2.4230933E-001	-1.5220648E-005
3	0	8.380443920403195E+002	2.4203233E-001	-3.4306191E-005
3	0	8.385443920276884E+002	2.4174279E-001	8.0207064E-005
3	0	8.390443920150574E+002	2.4148008E-001	-5.3391734E-005
3	0	8.395443920024263E+002	2.4123834E-001	-3.4306191E-005
3	0	8.400443919897953E+002	2.4099672E-001	2.2950437E-005
3	0	8.405443919771642E+002	2.4075736E-001	3.8648941E-006
3	0	8.410443919645331E+002	2.4051857E-001	-1.4881945E-004
3	0	8.415443919519021E+002	2.4027330E-001	-5.3391734E-005
3	0	8.415783919510432E+002	2.4015427E-001	3.8648941E-006