EC-Lab ASCII FILE
Nb header lines : 48                          

Open Circuit Voltage

Run on channel : 1 (SN 81504)
User : 
CE vs. WE compliance from -10 V to 10 V
Electrode connection : standard
Potential control : Ewe
Ewe ctrl range : min = -2.50 V, max = 2.50 V
Safety Limits :
	Do not start on E overload
Acquisition started on : 05/07/2026 16:58:53.259
Loaded Setting File :  C:\PEM-WE_measurements\2026\372_IV_IV IrOx, 5 min Pt, 30 min C, etched cathode\new station\Loopeis new\1,46 V different time gaps open cell\Loopeis 1,46V_60s_2_PEIS from 65kHz to 10kHz.mps
Saved on :
	File : L_12_Loopeis 1,46V_60s_2_PEIS from 65kHz to 10kHz_06_OCV_C01.mpr
	Directory : C:\PEM-WE_measurements\2026\372_IV_IV IrOx, 5 min Pt, 30 min C, etched cathode\new station\Loopeis new\1,46 V different time gaps open cell\
	Host : 192.168.0.2
Device : SP-150e (SN .005491)
Address : 192.168.0.91
EC-LAB for windows v11.71 (software)
Internet server v28.00 (firmware)
Command interpretor v14.01 (firmware)
Electrode material : 
Initial state : 
Electrolyte : 
Comments : 
Current amplifier : SP-150eB-20A
Electrode surface area : 0.001 cm²
Characteristic mass : 0.001 g
Equivalent Weight : 0.000 g/eq.
Density : 0.000 g/cm3
Volume (V) : 0.001 cm³
Record Analogic IN 1
Text export
   Mode : Standard
   Time format : Elapsed
Cycle Definition : Charge/Discharge alternance
tR (h:m:s)          0:01:0.0000         
dER/dt (mV/h)       1.0                 
record              <Ewe>               
dER (mV)            10.00               
dtR (s)             0.5000              
E range min (V)     -2.500              
E range max (V)     2.500               

mode	error	time/s	<Ewe/V>	Analog IN 1/V	
3	0	2.558985968385241E+002	1.2777030E+000	2.2950437E-005
3	0	2.563985968258930E+002	1.2753903E+000	-1.1064836E-004
3	0	2.568985968132620E+002	1.2456048E+000	-1.2973390E-004
3	0	2.573985968006309E+002	1.1836913E+000	-1.4881945E-004
3	0	2.578985967879999E+002	1.0138077E+000	6.1121522E-005
3	0	2.583985967753688E+002	5.4897106E-001	-1.1064836E-004
3	0	2.588985967627377E+002	3.7459537E-001	2.2950437E-005
3	0	2.593985967501067E+002	3.4803760E-001	1.1837815E-004
3	0	2.598985967374756E+002	3.3832583E-001	-1.2973390E-004
3	0	2.603985967248445E+002	3.3072573E-001	-1.1064836E-004
3	0	2.608985967122135E+002	3.2496479E-001	-9.1562819E-005
3	0	2.613985966995824E+002	3.2058033E-001	4.2035979E-005
3	0	2.618985966869514E+002	3.1717482E-001	-1.5220648E-005
3	0	2.623985966743203E+002	3.1445071E-001	4.2035979E-005
3	0	2.628985966616892E+002	3.1219214E-001	-5.3391734E-005
3	0	2.633985966490582E+002	3.1027186E-001	-3.4306191E-005
3	0	2.638985966364271E+002	3.0865523E-001	3.8648941E-006
3	0	2.643985966237960E+002	3.0724001E-001	-9.1562819E-005
3	0	2.648985966111650E+002	3.0598700E-001	-5.3391734E-005
3	0	2.653985965985339E+002	3.0486259E-001	3.8648941E-006
3	0	2.658985965859029E+002	3.0383256E-001	1.1837815E-004
3	0	2.663985965732718E+002	3.0286077E-001	-1.5220648E-005
3	0	2.668985965606407E+002	3.0193964E-001	-3.4306191E-005
3	0	2.673985965480097E+002	3.0105746E-001	-5.3391734E-005
3	0	2.678985965353786E+002	3.0025280E-001	3.8648941E-006
3	0	2.683985965227475E+002	2.9949999E-001	-1.1064836E-004
3	0	2.688985965101165E+002	2.9876912E-001	-1.5220648E-005
3	0	2.693985964974854E+002	2.9806256E-001	-1.5220648E-005
3	0	2.698985964848544E+002	2.9737535E-001	-7.2477276E-005
3	0	2.703985964722233E+002	2.9669875E-001	-5.3391734E-005
3	0	2.708985964595922E+002	2.9601845E-001	-2.0607607E-004
3	0	2.713985964469612E+002	2.9534853E-001	3.8648941E-006
3	0	2.718985964343301E+002	2.9472244E-001	4.2035979E-005
3	0	2.723985964216990E+002	2.9411748E-001	6.1121522E-005
3	0	2.728985964090680E+002	2.9351139E-001	2.2950437E-005
3	0	2.733985963964369E+002	2.9291308E-001	-3.4306191E-005
3	0	2.738985963838059E+002	2.9232985E-001	-7.2477276E-005
3	0	2.743985963711748E+002	2.9175127E-001	-1.2973390E-004
3	0	2.748985963585437E+002	2.9115227E-001	4.2035979E-005
3	0	2.753985963459127E+002	2.9055572E-001	-7.2477276E-005
3	0	2.758985963332816E+002	2.8999957E-001	1.5654923E-004
3	0	2.763985963206505E+002	2.8944826E-001	-7.2477276E-005
3	0	2.768985963080195E+002	2.8890547E-001	-7.2477276E-005
3	0	2.773985962953884E+002	2.8836501E-001	2.2950437E-005
3	0	2.778985962827574E+002	2.8783327E-001	-1.4881945E-004
3	0	2.783985962701263E+002	2.8729418E-001	3.8648941E-006
3	0	2.788985962574952E+002	2.8674954E-001	-7.2477276E-005
3	0	2.793985962448642E+002	2.8619173E-001	-7.2477276E-005
3	0	2.798985962322331E+002	2.8567261E-001	-3.4306191E-005
3	0	2.803985962196020E+002	2.8517371E-001	6.1121522E-005
3	0	2.808985962069710E+002	2.8467393E-001	-5.3391734E-005
3	0	2.813985961943399E+002	2.8418243E-001	-5.3391734E-005
3	0	2.818985961817089E+002	2.8369343E-001	-2.2516162E-004
3	0	2.823985961690778E+002	2.8319460E-001	-1.6790499E-004
3	0	2.828985961564467E+002	2.8268284E-001	-1.5220648E-005
3	0	2.833985961438157E+002	2.8216940E-001	8.0207064E-005
3	0	2.838985961311846E+002	2.8169218E-001	3.8648941E-006
3	0	2.843985961185535E+002	2.8123632E-001	-9.1562819E-005
3	0	2.848985961059225E+002	2.8077808E-001	2.2950437E-005
3	0	2.853985960932914E+002	2.8032115E-001	4.2035979E-005
3	0	2.858985960806604E+002	2.7986854E-001	3.8648941E-006
3	0	2.863985960680293E+002	2.7940834E-001	-1.5220648E-005
3	0	2.868985960553982E+002	2.7893803E-001	-7.2477276E-005
3	0	2.873985960427672E+002	2.7845687E-001	6.1121522E-005
3	0	2.878985960301361E+002	2.7800846E-001	-7.2477276E-005
3	0	2.883985960175050E+002	2.7758217E-001	-1.2973390E-004
3	0	2.888985960048740E+002	2.7715722E-001	2.2950437E-005
3	0	2.893985959922429E+002	2.7672619E-001	2.2950437E-005
3	0	2.898985959796119E+002	2.7630219E-001	-3.4306191E-005
3	0	2.903985959669808E+002	2.7587923E-001	2.2950437E-005
3	0	2.908985959543497E+002	2.7544037E-001	-3.4306191E-005
3	0	2.913985959417187E+002	2.7500585E-001	-1.1064836E-004
3	0	2.918985959290876E+002	2.7459064E-001	1.7563478E-004
3	0	2.923985959164565E+002	2.7420035E-001	1.5654923E-004
3	0	2.928985959038255E+002	2.7381602E-001	2.2950437E-005
3	0	2.933985958911944E+002	2.7341822E-001	4.2035979E-005
3	0	2.938985958785634E+002	2.7302599E-001	4.2035979E-005
3	0	2.943985958659323E+002	2.7263305E-001	-1.1064836E-004
3	0	2.948985958533012E+002	2.7221999E-001	-3.4306191E-005
3	0	2.953985958406702E+002	2.7180186E-001	3.8648941E-006
3	0	2.958985958280391E+002	2.7142274E-001	-3.4306191E-005
3	0	2.963985958154080E+002	2.7106041E-001	6.1121522E-005
3	0	2.968985958027770E+002	2.7070329E-001	-9.1562819E-005
3	0	2.973985957901459E+002	2.7035004E-001	-1.6790499E-004
3	0	2.978985957775149E+002	2.6999125E-001	-1.1064836E-004
3	0	2.983985957648838E+002	2.6962435E-001	-1.5220648E-005
3	0	2.988985957522527E+002	2.6924303E-001	-1.5220648E-005
3	0	2.993985957396217E+002	2.6885816E-001	3.8648941E-006
3	0	2.998985957269906E+002	2.6851445E-001	-1.6790499E-004
3	0	3.003985957143595E+002	2.6817831E-001	8.0207064E-005
3	0	3.008985957017285E+002	2.6784861E-001	-1.8699054E-004
3	0	3.013985956890974E+002	2.6752156E-001	2.2950437E-005
3	0	3.018985956764664E+002	2.6719445E-001	-5.3391734E-005
3	0	3.023985956638353E+002	2.6685390E-001	-5.3391734E-005
3	0	3.028985956512042E+002	2.6651233E-001	3.8648941E-006
3	0	3.033985956385732E+002	2.6615515E-001	1.1837815E-004
3	0	3.038985956259421E+002	2.6584059E-001	-9.1562819E-005
3	0	3.043985956133110E+002	2.6554632E-001	2.2950437E-005
3	0	3.048985956006800E+002	2.6524484E-001	-3.4306191E-005
3	0	3.053985955880489E+002	2.6493779E-001	-7.2477276E-005
3	0	3.058985955754179E+002	2.6463941E-001	-7.2477276E-005
3	0	3.063985955627868E+002	2.6433253E-001	-1.5220648E-005
3	0	3.068985955501557E+002	2.6400164E-001	1.1837815E-004
3	0	3.073985955375247E+002	2.6367021E-001	4.2035979E-005
3	0	3.078985955248936E+002	2.6338124E-001	-1.6790499E-004
3	0	3.083985955122625E+002	2.6310354E-001	-1.5220648E-005
3	0	3.088985954996315E+002	2.6282942E-001	6.1121522E-005
3	0	3.093985954870004E+002	2.6254538E-001	-7.2477276E-005
3	0	3.098985954743694E+002	2.6227367E-001	-1.4881945E-004
3	0	3.103985954617383E+002	2.6199263E-001	-5.3391734E-005
3	0	3.108985954491072E+002	2.6170170E-001	6.1121522E-005
3	0	3.113985954364762E+002	2.6139206E-001	3.8648941E-006
3	0	3.118985954238451E+002	2.6112705E-001	-1.1064836E-004
3	0	3.123985954112140E+002	2.6088056E-001	-1.1064836E-004
3	0	3.128985953985830E+002	2.6063171E-001	-3.4306191E-005
3	0	3.133985953859519E+002	2.6038587E-001	-1.5220648E-005
3	0	3.138985953733209E+002	2.6012868E-001	-1.5220648E-005
3	0	3.143985953606898E+002	2.5987348E-001	-1.5220648E-005
3	0	3.148985953480587E+002	2.5959754E-001	-3.4306191E-005
3	0	3.153985953354277E+002	2.5932401E-001	3.8648941E-006
3	0	3.153989953354176E+002	2.5922054E-001	-7.2477276E-005