EC-Lab ASCII FILE
Nb header lines : 48                          

Open Circuit Voltage

Run on channel : 1 (SN 81504)
User : 
CE vs. WE compliance from -10 V to 10 V
Electrode connection : standard
Potential control : Ewe
Ewe ctrl range : min = -2.50 V, max = 2.50 V
Safety Limits :
	Do not start on E overload
Acquisition started on : 05/07/2026 16:58:53.259
Loaded Setting File :  C:\PEM-WE_measurements\2026\372_IV_IV IrOx, 5 min Pt, 30 min C, etched cathode\new station\Loopeis new\1,46 V different time gaps open cell\Loopeis 1,46V_60s_2_PEIS from 65kHz to 10kHz.mps
Saved on :
	File : L_12_Loopeis 1,46V_60s_2_PEIS from 65kHz to 10kHz_08_OCV_C01.mpr
	Directory : C:\PEM-WE_measurements\2026\372_IV_IV IrOx, 5 min Pt, 30 min C, etched cathode\new station\Loopeis new\1,46 V different time gaps open cell\
	Host : 192.168.0.2
Device : SP-150e (SN .005491)
Address : 192.168.0.91
EC-LAB for windows v11.71 (software)
Internet server v28.00 (firmware)
Command interpretor v14.01 (firmware)
Electrode material : 
Initial state : 
Electrolyte : 
Comments : 
Current amplifier : SP-150eB-20A
Electrode surface area : 0.001 cm²
Characteristic mass : 0.001 g
Equivalent Weight : 0.000 g/eq.
Density : 0.000 g/cm3
Volume (V) : 0.001 cm³
Record Analogic IN 1
Text export
   Mode : Standard
   Time format : Elapsed
Cycle Definition : Charge/Discharge alternance
tR (h:m:s)          0:01:0.0000         
dER/dt (mV/h)       1.0                 
record              <Ewe>               
dER (mV)            10.00               
dtR (s)             0.5000              
E range min (V)     -2.500              
E range max (V)     2.500               

mode	error	time/s	<Ewe/V>	Analog IN 1/V	
3	0	3.612451974791475E+002	1.0706209E+000	-7.2477276E-005
3	0	3.617451974665164E+002	1.2304318E+000	-1.1064836E-004
3	0	3.622451974538853E+002	1.2016848E+000	-9.1562819E-005
3	0	3.627451974412543E+002	1.1372746E+000	1.3746369E-004
3	0	3.632451974286232E+002	9.4436342E-001	-5.3391734E-005
3	0	3.637451974159922E+002	4.9447435E-001	-7.2477276E-005
3	0	3.642451974033611E+002	3.4461784E-001	-5.3391734E-005
3	0	3.647451973907300E+002	3.2440534E-001	-7.2477276E-005
3	0	3.652451973780990E+002	3.1586903E-001	6.1121522E-005
3	0	3.657451973654679E+002	3.0893993E-001	-1.1064836E-004
3	0	3.662451973528368E+002	3.0359212E-001	-1.5220648E-005
3	0	3.667451973402058E+002	2.9945648E-001	-9.1562819E-005
3	0	3.672451973275747E+002	2.9622775E-001	8.0207064E-005
3	0	3.677451973149437E+002	2.9366434E-001	-2.2516162E-004
3	0	3.682451973023126E+002	2.9156798E-001	-5.3391734E-005
3	0	3.687451972896815E+002	2.8980762E-001	-5.3391734E-005
3	0	3.692451972770505E+002	2.8830823E-001	6.1121522E-005
3	0	3.697451972644194E+002	2.8699988E-001	-1.5220648E-005
3	0	3.702451972517883E+002	2.8581861E-001	-9.1562819E-005
3	0	3.707451972391573E+002	2.8473854E-001	-5.3391734E-005
3	0	3.712451972265262E+002	2.8373727E-001	8.0207064E-005
3	0	3.717451972138952E+002	2.8283882E-001	-3.4306191E-005
3	0	3.722451972012641E+002	2.8201333E-001	-3.4306191E-005
3	0	3.727451971886330E+002	2.8122878E-001	-5.3391734E-005
3	0	3.732451971760020E+002	2.8048211E-001	-1.2973390E-004
3	0	3.737451971633709E+002	2.7977020E-001	-1.8699054E-004
3	0	3.742451971507398E+002	2.7909121E-001	4.2035979E-005
3	0	3.747451971381088E+002	2.7841175E-001	-3.4306191E-005
3	0	3.752451971254777E+002	2.7773759E-001	-1.1064836E-004
3	0	3.757451971128467E+002	2.7710825E-001	-3.4306191E-005
3	0	3.762451971002156E+002	2.7649775E-001	3.8648941E-006
3	0	3.767451970875845E+002	2.7590632E-001	-1.5220648E-005
3	0	3.772451970749535E+002	2.7532414E-001	-5.3391734E-005
3	0	3.777451970623224E+002	2.7475095E-001	2.2950437E-005
3	0	3.782451970496913E+002	2.7417427E-001	-3.4306191E-005
3	0	3.787451970370603E+002	2.7359083E-001	-1.1064836E-004
3	0	3.792451970244292E+002	2.7300209E-001	4.2035979E-005
3	0	3.797451970117982E+002	2.7246505E-001	3.8648941E-006
3	0	3.802451969991671E+002	2.7193865E-001	4.2035979E-005
3	0	3.807451969865360E+002	2.7139857E-001	-1.1064836E-004
3	0	3.812451969739050E+002	2.7087316E-001	-5.3391734E-005
3	0	3.817451969612739E+002	2.7035615E-001	-5.3391734E-005
3	0	3.822451969486428E+002	2.6983774E-001	3.8648941E-006
3	0	3.827451969360118E+002	2.6930854E-001	-7.2477276E-005
3	0	3.832451969233807E+002	2.6877266E-001	8.0207064E-005
3	0	3.837451969107497E+002	2.6827601E-001	6.1121522E-005
3	0	3.842451968981186E+002	2.6778236E-001	2.2950437E-005
3	0	3.847451968854875E+002	2.6729247E-001	-3.4306191E-005
3	0	3.852451968728565E+002	2.6680776E-001	-1.5220648E-005
3	0	3.857451968602254E+002	2.6632786E-001	-1.1064836E-004
3	0	3.862451968475943E+002	2.6584747E-001	1.1837815E-004
3	0	3.867451968349633E+002	2.6534963E-001	-7.2477276E-005
3	0	3.872451968223322E+002	2.6484990E-001	-7.2477276E-005
3	0	3.877451968097012E+002	2.6439551E-001	4.2035979E-005
3	0	3.882451967970701E+002	2.6393688E-001	-5.3391734E-005
3	0	3.887451967844390E+002	2.6348695E-001	2.2950437E-005
3	0	3.892451967718080E+002	2.6303887E-001	-3.4306191E-005
3	0	3.897451967591769E+002	2.6258129E-001	4.2035979E-005
3	0	3.902451967465458E+002	2.6210639E-001	-3.4306191E-005
3	0	3.907451967339148E+002	2.6164433E-001	-7.2477276E-005
3	0	3.912451967212837E+002	2.6119059E-001	6.1121522E-005
3	0	3.917451967086527E+002	2.6076832E-001	-1.1064836E-004
3	0	3.922451966960216E+002	2.6036170E-001	4.2035979E-005
3	0	3.927451966833905E+002	2.5994247E-001	-9.1562819E-005
3	0	3.932451966707595E+002	2.5952926E-001	2.2950437E-005
3	0	3.937451966581284E+002	2.5911853E-001	-1.1064836E-004
3	0	3.942451966454973E+002	2.5869519E-001	-1.1064836E-004
3	0	3.947451966328663E+002	2.5826031E-001	-3.4306191E-005
3	0	3.952451966202352E+002	2.5782228E-001	-9.1562819E-005
3	0	3.957451966076042E+002	2.5741825E-001	4.2035979E-005
3	0	3.962451965949731E+002	2.5702587E-001	-1.5220648E-005
3	0	3.967451965823420E+002	2.5663048E-001	9.9292607E-005
3	0	3.972451965697110E+002	2.5623986E-001	6.1121522E-005
3	0	3.977451965570799E+002	2.5584406E-001	-1.4881945E-004
3	0	3.982451965444488E+002	2.5544974E-001	4.2035979E-005
3	0	3.987451965318178E+002	2.5504076E-001	-1.2973390E-004
3	0	3.992451965191867E+002	2.5463241E-001	3.8648941E-006
3	0	3.997451965065557E+002	2.5426501E-001	-3.4306191E-005
3	0	4.002451964939246E+002	2.5390863E-001	-7.2477276E-005
3	0	4.007451964812935E+002	2.5354892E-001	-1.5220648E-005
3	0	4.012451964686625E+002	2.5318834E-001	-1.2973390E-004
3	0	4.017451964560314E+002	2.5283599E-001	-3.4306191E-005
3	0	4.022451964434003E+002	2.5246999E-001	-3.4306191E-005
3	0	4.027451964307693E+002	2.5208613E-001	-5.3391734E-005
3	0	4.032451964181382E+002	2.5170168E-001	2.2950437E-005
3	0	4.037451964055072E+002	2.5135750E-001	-3.4306191E-005
3	0	4.042451963928761E+002	2.5103042E-001	-7.2477276E-005
3	0	4.047451963802450E+002	2.5069538E-001	-1.6790499E-004
3	0	4.052451963676140E+002	2.5036493E-001	-3.4306191E-005
3	0	4.057451963549829E+002	2.5003430E-001	6.1121522E-005
3	0	4.062451963423518E+002	2.4970429E-001	-1.4881945E-004
3	0	4.067451963297208E+002	2.4935228E-001	8.0207064E-005
3	0	4.072451963170897E+002	2.4900085E-001	-1.5220648E-005
3	0	4.077451963044587E+002	2.4869289E-001	4.2035979E-005
3	0	4.082451962918276E+002	2.4838699E-001	-5.3391734E-005
3	0	4.087451962791965E+002	2.4808510E-001	-5.3391734E-005
3	0	4.092451962665655E+002	2.4777927E-001	2.2950437E-005
3	0	4.097451962539344E+002	2.4747591E-001	-5.3391734E-005
3	0	4.102451962413033E+002	2.4715723E-001	6.1121522E-005
3	0	4.107451962286723E+002	2.4683847E-001	-1.1064836E-004
3	0	4.112451962160412E+002	2.4650770E-001	-1.2973390E-004
3	0	4.117451962034102E+002	2.4621478E-001	-1.5220648E-005
3	0	4.122451961907791E+002	2.4594256E-001	8.0207064E-005
3	0	4.127451961781480E+002	2.4567130E-001	3.8648941E-006
3	0	4.132451961655170E+002	2.4539404E-001	-1.5220648E-005
3	0	4.137451961528859E+002	2.4511708E-001	-9.1562819E-005
3	0	4.142451961402548E+002	2.4482389E-001	2.2950437E-005
3	0	4.147451961276238E+002	2.4451676E-001	-7.2477276E-005
3	0	4.152451961149927E+002	2.4421006E-001	-1.1064836E-004
3	0	4.157451961023617E+002	2.4394989E-001	-7.2477276E-005
3	0	4.162451960897306E+002	2.4369650E-001	-5.3391734E-005
3	0	4.167451960770995E+002	2.4343859E-001	-3.4306191E-005
3	0	4.172451960644685E+002	2.4318348E-001	-5.3391734E-005
3	0	4.177451960518374E+002	2.4292950E-001	-5.3391734E-005
3	0	4.182451960392063E+002	2.4266918E-001	-1.4881945E-004
3	0	4.187451960265753E+002	2.4237996E-001	-1.4881945E-004
3	0	4.192451960139442E+002	2.4209650E-001	-3.4306191E-005
3	0	4.197451960013132E+002	2.4185890E-001	-5.3391734E-005
3	0	4.202451959886821E+002	2.4162877E-001	-1.5220648E-005
3	0	4.207451959760510E+002	2.4140172E-001	-3.4306191E-005
3	0	4.207807959751517E+002	2.4127668E-001	-5.3391734E-005