EC-Lab ASCII FILE
Nb header lines : 55                          

Open Circuit Voltage

Run on channel : 1 (SN 81504)
User : 
CE vs. WE compliance from -10 V to 10 V
Electrode connection : standard
Potential control : Ewe
Ewe ctrl range : min = -2.50 V, max = 2.50 V
Safety Limits :
	Do not start on E overload
Acquisition started on : 05/07/2026 17:16:31.252
Loaded Setting File :  C:\PEM-WE_measurements\2026\372_IV_IV IrOx, 5 min Pt, 30 min C, etched cathode\new station\Loopeis new\1,46 V different time gaps open cell\Loopeis 1,46V_60s_3_PEIS from 6500Hz to 1000Hz.mps
Saved on :
	File : L_13_Loopeis 1,46V_60s_3_PEIS from 6500Hz to 1000Hz_08_OCV_C01.mpr
	Directory : C:\PEM-WE_measurements\2026\372_IV_IV IrOx, 5 min Pt, 30 min C, etched cathode\new station\Loopeis new\1,46 V different time gaps open cell\
	Host : 192.168.0.2
Device : SP-150e (SN .005491)
Address : 192.168.0.91
EC-LAB for windows v11.71 (software)
Internet server v28.00 (firmware)
Command interpretor v14.01 (firmware)
Electrode material : 
Initial state : 
Electrolyte : 
Comments : 
Current amplifier : SP-150eB-20A
Electrode surface area : 0.001 cm²
Characteristic mass : 0.001 g
Equivalent Weight : 0.000 g/eq.
Density : 0.000 g/cm3
Volume (V) : 0.001 cm³
Record Analogic IN 1
Text export
   Mode : Standard
   Time format : Elapsed
Cycle Definition : Charge/Discharge alternance
External device configuration :
   device type : Temperature Probe
   device name : Other
   Analog IN 1 : 
      unit : T/Â°C
      max : 100.000 at 2.000 V
      min : 0.000 at 1.460 V
tR (h:m:s)          0:01:0.0000         
dER/dt (mV/h)       1.0                 
record              <Ewe>               
dER (mV)            10.00               
dtR (s)             0.5000              
E range min (V)     -2.500              
E range max (V)     2.500               

mode	error	time/s	<Ewe/V>	Analog IN 1/V	
3	0	3.604193974390364E+002	1.0710702E+000	-2.7036618E+002
3	0	3.609193974264053E+002	1.2281786E+000	-2.7038031E+002
3	0	3.614193974137743E+002	1.1968687E+000	-2.7037326E+002
3	0	3.619193974011432E+002	1.1274503E+000	-2.7038385E+002
3	0	3.624193973885122E+002	9.0760267E-001	-2.7038031E+002
3	0	3.629193973758811E+002	4.6968719E-001	-2.7038031E+002
3	0	3.634193973632500E+002	3.3778104E-001	-2.7034497E+002
3	0	3.639193973506190E+002	3.2051119E-001	-2.7034497E+002
3	0	3.644193973379879E+002	3.1231233E-001	-2.7038385E+002
3	0	3.649193973253568E+002	3.0557761E-001	-2.7039093E+002
3	0	3.654193973127258E+002	3.0036446E-001	-2.7039093E+002
3	0	3.659193973000947E+002	2.9635113E-001	-2.7037326E+002
3	0	3.664193972874637E+002	2.9321212E-001	-2.7038385E+002
3	0	3.669193972748326E+002	2.9068542E-001	-2.7035559E+002
3	0	3.674193972622015E+002	2.8860968E-001	-2.7036972E+002
3	0	3.679193972495705E+002	2.8685856E-001	-2.7038742E+002
3	0	3.684193972369394E+002	2.8533483E-001	-2.7038031E+002
3	0	3.689193972243083E+002	2.8398964E-001	-2.7037677E+002
3	0	3.694193972116773E+002	2.8281692E-001	-2.7038385E+002
3	0	3.699193971990462E+002	2.8178352E-001	-2.7038385E+002
3	0	3.704193971864152E+002	2.8083205E-001	-2.7038742E+002
3	0	3.709193971737841E+002	2.7994999E-001	-2.7037677E+002
3	0	3.714193971611530E+002	2.7914232E-001	-2.7038031E+002
3	0	3.719193971485220E+002	2.7836475E-001	-2.7038385E+002
3	0	3.724193971358909E+002	2.7760231E-001	-2.7038031E+002
3	0	3.729193971232598E+002	2.7685907E-001	-2.7039801E+002
3	0	3.734193971106288E+002	2.7616620E-001	-2.7038385E+002
3	0	3.739193970979977E+002	2.7552044E-001	-2.7040155E+002
3	0	3.744193970853667E+002	2.7489674E-001	-2.7037677E+002
3	0	3.749193970727356E+002	2.7429241E-001	-2.7036972E+002
3	0	3.754193970601045E+002	2.7369130E-001	-2.7036618E+002
3	0	3.759193970474735E+002	2.7309716E-001	-2.7037326E+002
3	0	3.764193970348424E+002	2.7249151E-001	-2.7035913E+002
3	0	3.769193970222113E+002	2.7188882E-001	-2.7038385E+002
3	0	3.774193970095803E+002	2.7131203E-001	-2.7039447E+002
3	0	3.779193969969492E+002	2.7076635E-001	-2.7036618E+002
3	0	3.784193969843182E+002	2.7022547E-001	-2.7038031E+002
3	0	3.789193969716871E+002	2.6969242E-001	-2.7039093E+002
3	0	3.794193969590560E+002	2.6916963E-001	-2.7036972E+002
3	0	3.799193969464250E+002	2.6864067E-001	-2.7036972E+002
3	0	3.804193969337939E+002	2.6810187E-001	-2.7038385E+002
3	0	3.809193969211628E+002	2.6754102E-001	-2.7035913E+002
3	0	3.814193969085318E+002	2.6701584E-001	-2.7036972E+002
3	0	3.819193968959007E+002	2.6651523E-001	-2.7036972E+002
3	0	3.824193968832697E+002	2.6602140E-001	-2.7037677E+002
3	0	3.829193968706386E+002	2.6552451E-001	-2.7037326E+002
3	0	3.834193968580075E+002	2.6502931E-001	-2.7037677E+002
3	0	3.839193968453765E+002	2.6454294E-001	-2.7037677E+002
3	0	3.844193968327454E+002	2.6403654E-001	-2.7041568E+002
3	0	3.849193968201143E+002	2.6351959E-001	-2.7037326E+002
3	0	3.854193968074833E+002	2.6303369E-001	-2.7039801E+002
3	0	3.859193967948522E+002	2.6256853E-001	-2.7039447E+002
3	0	3.864193967822212E+002	2.6210731E-001	-2.7040155E+002
3	0	3.869193967695901E+002	2.6164901E-001	-2.7035205E+002
3	0	3.874193967569590E+002	2.6118812E-001	-2.7038385E+002
3	0	3.879193967443280E+002	2.6072642E-001	-2.7039801E+002
3	0	3.884193967316969E+002	2.6024476E-001	-2.7037677E+002
3	0	3.889193967190658E+002	2.5976881E-001	-2.7035559E+002
3	0	3.894193967064348E+002	2.5932294E-001	-2.7036972E+002
3	0	3.899193966938037E+002	2.5890216E-001	-2.7038031E+002
3	0	3.904193966811727E+002	2.5847048E-001	-2.7036618E+002
3	0	3.909193966685416E+002	2.5804111E-001	-2.7037677E+002
3	0	3.914193966559105E+002	2.5761467E-001	-2.7035559E+002
3	0	3.919193966432795E+002	2.5718370E-001	-2.7036972E+002
3	0	3.924193966306484E+002	2.5673947E-001	-2.7036267E+002
3	0	3.929193966180173E+002	2.5629017E-001	-2.7036618E+002
3	0	3.934193966053863E+002	2.5587174E-001	-2.7037677E+002
3	0	3.939193965927552E+002	2.5547478E-001	-2.7036618E+002
3	0	3.944193965801242E+002	2.5507945E-001	-2.7037677E+002
3	0	3.949193965674931E+002	2.5468478E-001	-2.7037326E+002
3	0	3.954193965548620E+002	2.5428978E-001	-2.7038031E+002
3	0	3.959193965422310E+002	2.5388545E-001	-2.7035559E+002
3	0	3.964193965295999E+002	2.5347567E-001	-2.7036972E+002
3	0	3.969193965169688E+002	2.5305465E-001	-2.7039447E+002
3	0	3.974193965043378E+002	2.5265998E-001	-2.7037677E+002
3	0	3.979193964917067E+002	2.5230098E-001	-2.7039447E+002
3	0	3.984193964790757E+002	2.5193071E-001	-2.7040155E+002
3	0	3.989193964664446E+002	2.5156733E-001	-2.7036972E+002
3	0	3.994193964538135E+002	2.5120184E-001	-2.7034851E+002
3	0	3.999193964411825E+002	2.5083080E-001	-2.7036618E+002
3	0	4.004193964285514E+002	2.5044754E-001	-2.7039093E+002
3	0	4.009193964159203E+002	2.5004771E-001	-2.7039093E+002
3	0	4.014193964032893E+002	2.4969040E-001	-2.7038031E+002
3	0	4.019193963906582E+002	2.4935479E-001	-2.7036618E+002
3	0	4.024193963780272E+002	2.4901745E-001	-2.7034851E+002
3	0	4.029193963653961E+002	2.4867588E-001	-2.7036267E+002
3	0	4.034193963527650E+002	2.4833876E-001	-2.7034851E+002
3	0	4.039193963401340E+002	2.4800199E-001	-2.7036972E+002
3	0	4.044193963275029E+002	2.4764439E-001	-2.7038385E+002
3	0	4.049193963148718E+002	2.4727431E-001	-2.7036267E+002
3	0	4.054193963022408E+002	2.4693802E-001	-2.7038385E+002
3	0	4.059193962896097E+002	2.4663314E-001	-2.7039447E+002
3	0	4.064193962769787E+002	2.4632242E-001	-2.7037677E+002
3	0	4.069193962643476E+002	2.4600559E-001	-2.7040860E+002
3	0	4.074193962517165E+002	2.4569342E-001	-2.7036972E+002
3	0	4.079193962390855E+002	2.4538146E-001	-2.7036618E+002
3	0	4.084193962264544E+002	2.4505128E-001	-2.7035205E+002
3	0	4.089193962138233E+002	2.4470316E-001	-2.7037326E+002
3	0	4.094193962011923E+002	2.4439545E-001	-2.7038385E+002
3	0	4.099193961885612E+002	2.4411471E-001	-2.7035913E+002
3	0	4.104193961759302E+002	2.4383757E-001	-2.7038385E+002
3	0	4.109193961632991E+002	2.4354884E-001	-2.7037677E+002
3	0	4.114193961506680E+002	2.4327116E-001	-2.7038742E+002
3	0	4.119193961380370E+002	2.4298686E-001	-2.7038385E+002
3	0	4.124193961254059E+002	2.4268290E-001	-2.7040155E+002
3	0	4.129193961127748E+002	2.4236129E-001	-2.7038742E+002
3	0	4.134193961001438E+002	2.4208519E-001	-2.7039093E+002
3	0	4.139193960875127E+002	2.4183519E-001	-2.7037677E+002
3	0	4.144193960748817E+002	2.4157526E-001	-2.7037677E+002
3	0	4.149193960622506E+002	2.4131136E-001	-2.7038385E+002
3	0	4.154193960496195E+002	2.4105094E-001	-2.7036972E+002
3	0	4.159193960369885E+002	2.4079205E-001	-2.7038385E+002
3	0	4.164193960243574E+002	2.4050936E-001	-2.7039093E+002
3	0	4.169193960117263E+002	2.4021769E-001	-2.7039093E+002
3	0	4.174193959990953E+002	2.3996153E-001	-2.7038031E+002
3	0	4.179193959864642E+002	2.3973165E-001	-2.7039801E+002
3	0	4.184193959738332E+002	2.3950164E-001	-2.7039447E+002
3	0	4.189193959612021E+002	2.3925848E-001	-2.7036267E+002
3	0	4.194193959485710E+002	2.3902448E-001	-2.7038031E+002
3	0	4.199193959359400E+002	2.3878585E-001	-2.7036618E+002
3	0	4.199427959353488E+002	2.3865384E-001	-2.7038385E+002