EC-Lab ASCII FILE
Nb header lines : 55                          

Open Circuit Voltage

Run on channel : 1 (SN 81504)
User : 
CE vs. WE compliance from -10 V to 10 V
Electrode connection : standard
Potential control : Ewe
Ewe ctrl range : min = -2.50 V, max = 2.50 V
Safety Limits :
	Do not start on E overload
Acquisition started on : 05/07/2026 17:16:31.252
Loaded Setting File :  C:\PEM-WE_measurements\2026\372_IV_IV IrOx, 5 min Pt, 30 min C, etched cathode\new station\Loopeis new\1,46 V different time gaps open cell\Loopeis 1,46V_60s_3_PEIS from 6500Hz to 1000Hz.mps
Saved on :
	File : L_13_Loopeis 1,46V_60s_3_PEIS from 6500Hz to 1000Hz_02_OCV_C01.mpr
	Directory : C:\PEM-WE_measurements\2026\372_IV_IV IrOx, 5 min Pt, 30 min C, etched cathode\new station\Loopeis new\1,46 V different time gaps open cell\
	Host : 192.168.0.2
Device : SP-150e (SN .005491)
Address : 192.168.0.91
EC-LAB for windows v11.71 (software)
Internet server v28.00 (firmware)
Command interpretor v14.01 (firmware)
Electrode material : 
Initial state : 
Electrolyte : 
Comments : 
Current amplifier : SP-150eB-20A
Electrode surface area : 0.001 cm²
Characteristic mass : 0.001 g
Equivalent Weight : 0.000 g/eq.
Density : 0.000 g/cm3
Volume (V) : 0.001 cm³
Record Analogic IN 1
Text export
   Mode : Standard
   Time format : Elapsed
Cycle Definition : Charge/Discharge alternance
External device configuration :
   device type : Temperature Probe
   device name : Other
   Analog IN 1 : 
      unit : T/Â°C
      max : 100.000 at 2.000 V
      min : 0.000 at 1.460 V
tR (h:m:s)          0:01:0.0000         
dER/dt (mV/h)       1.0                 
record              <Ewe>               
dER (mV)            10.00               
dtR (s)             0.5000              
E range min (V)     -2.500              
E range max (V)     2.500               

mode	error	time/s	<Ewe/V>	Analog IN 1/V	
3	0	4.549979885057837E+001	1.2779236E+000	-2.7037677E+002
3	0	4.599979883794731E+001	1.2754037E+000	-2.7036618E+002
3	0	4.649979882531625E+001	1.2448460E+000	-2.7037677E+002
3	0	4.699979881268519E+001	1.1816292E+000	-2.7036267E+002
3	0	4.749979880005412E+001	1.0029765E+000	-2.7036618E+002
3	0	4.799979878742306E+001	5.3355223E-001	-2.7038031E+002
3	0	4.849979877479200E+001	3.7210599E-001	-2.7038385E+002
3	0	4.899979876216094E+001	3.4832001E-001	-2.7038385E+002
3	0	4.949979874952987E+001	3.3859274E-001	-2.7036618E+002
3	0	4.999979873689881E+001	3.3099878E-001	-2.7037326E+002
3	0	5.049979872426775E+001	3.2528287E-001	-2.7036972E+002
3	0	5.099979871163669E+001	3.2093540E-001	-2.7037326E+002
3	0	5.149979869900562E+001	3.1755829E-001	-2.7037677E+002
3	0	5.199979868637456E+001	3.1485096E-001	-2.7038031E+002
3	0	5.249979867374350E+001	3.1262153E-001	-2.7038742E+002
3	0	5.299979866111244E+001	3.1072843E-001	-2.7036618E+002
3	0	5.349979864848137E+001	3.0908617E-001	-2.7036972E+002
3	0	5.399979863585031E+001	3.0767789E-001	-2.7036972E+002
3	0	5.449979862321925E+001	3.0643114E-001	-2.7038031E+002
3	0	5.499979861058819E+001	3.0530906E-001	-2.7038031E+002
3	0	5.549979859795712E+001	3.0428129E-001	-2.7036618E+002
3	0	5.599979858532606E+001	3.0332375E-001	-2.7037326E+002
3	0	5.649979857269500E+001	3.0242583E-001	-2.7037677E+002
3	0	5.699979856006394E+001	3.0155426E-001	-2.7035205E+002
3	0	5.749979854743287E+001	3.0071029E-001	-2.7038031E+002
3	0	5.799979853480181E+001	2.9993892E-001	-2.7038385E+002
3	0	5.849979852217075E+001	2.9920393E-001	-2.7035559E+002
3	0	5.899979850953969E+001	2.9850557E-001	-2.7037677E+002
3	0	5.949979849690862E+001	2.9782504E-001	-2.7039093E+002
3	0	5.999979848427756E+001	2.9715657E-001	-2.7040155E+002
3	0	6.049979847164650E+001	2.9649469E-001	-2.7036267E+002
3	0	6.099979845901544E+001	2.9583329E-001	-2.7036972E+002
3	0	6.149979844638438E+001	2.9517379E-001	-2.7036618E+002
3	0	6.199979843375331E+001	2.9455397E-001	-2.7038031E+002
3	0	6.249979842112225E+001	2.9396212E-001	-2.7038385E+002
3	0	6.299979840849119E+001	2.9338226E-001	-2.7039447E+002
3	0	6.349979839586013E+001	2.9279944E-001	-2.7038742E+002
3	0	6.399979838322906E+001	2.9222456E-001	-2.7035913E+002
3	0	6.449979837059800E+001	2.9164913E-001	-2.7038031E+002
3	0	6.499979835796694E+001	2.9105493E-001	-2.7035559E+002
3	0	6.549979834533588E+001	2.9045695E-001	-2.7038385E+002
3	0	6.599979833270481E+001	2.8989795E-001	-2.7038385E+002
3	0	6.649979832007375E+001	2.8935853E-001	-2.7036618E+002
3	0	6.699979830744269E+001	2.8883114E-001	-2.7036267E+002
3	0	6.749979829481163E+001	2.8830218E-001	-2.7037326E+002
3	0	6.799979828218056E+001	2.8777555E-001	-2.7036267E+002
3	0	6.849979826954950E+001	2.8725129E-001	-2.7039447E+002
3	0	6.899979825691844E+001	2.8671291E-001	-2.7039801E+002
3	0	6.949979824428738E+001	2.8616017E-001	-2.7039447E+002
3	0	6.999979823165631E+001	2.8565237E-001	-2.7037677E+002
3	0	7.049979821902525E+001	2.8515902E-001	-2.7038742E+002
3	0	7.099979820639419E+001	2.8467306E-001	-2.7035913E+002
3	0	7.149979819376313E+001	2.8418130E-001	-2.7039093E+002
3	0	7.199979818113206E+001	2.8368488E-001	-2.7037326E+002
3	0	7.249979816850100E+001	2.8320125E-001	-2.7038385E+002
3	0	7.299979815586994E+001	2.8268999E-001	-2.7035913E+002
3	0	7.349979814323888E+001	2.8218326E-001	-2.7038742E+002
3	0	7.399979813060781E+001	2.8170753E-001	-2.7038031E+002
3	0	7.449979811797675E+001	2.8124690E-001	-2.7038031E+002
3	0	7.499979810534569E+001	2.8079402E-001	-2.7036618E+002
3	0	7.549979809271463E+001	2.8033644E-001	-2.7039447E+002
3	0	7.599979808008356E+001	2.7987996E-001	-2.7037326E+002
3	0	7.649979806745250E+001	2.7942786E-001	-2.7038031E+002
3	0	7.699979805482144E+001	2.7895850E-001	-2.7039093E+002
3	0	7.749979804219038E+001	2.7848014E-001	-2.7037677E+002
3	0	7.799979802955932E+001	2.7803758E-001	-2.7038742E+002
3	0	7.849979801692825E+001	2.7761269E-001	-2.7039093E+002
3	0	7.899979800429719E+001	2.7718958E-001	-2.7038385E+002
3	0	7.949979799166613E+001	2.7676520E-001	-2.7037677E+002
3	0	7.999979797903507E+001	2.7634215E-001	-2.7036972E+002
3	0	8.049979796640400E+001	2.7592501E-001	-2.7039093E+002
3	0	8.099979795377294E+001	2.7548990E-001	-2.7037677E+002
3	0	8.149979794114188E+001	2.7503163E-001	-2.7039801E+002
3	0	8.199979792851082E+001	2.7463034E-001	-2.7035913E+002
3	0	8.249979791587975E+001	2.7424449E-001	-2.7038742E+002
3	0	8.299979790324869E+001	2.7385029E-001	-2.7036972E+002
3	0	8.349979789061763E+001	2.7346039E-001	-2.7038031E+002
3	0	8.399979787798657E+001	2.7306756E-001	-2.7039093E+002
3	0	8.449979786535550E+001	2.7266660E-001	-2.7038742E+002
3	0	8.499979785272444E+001	2.7226192E-001	-2.7037326E+002
3	0	8.549979784009338E+001	2.7184618E-001	-2.7036972E+002
3	0	8.599979782746232E+001	2.7146271E-001	-2.7038031E+002
3	0	8.649979781483125E+001	2.7110919E-001	-2.7039801E+002
3	0	8.699979780220019E+001	2.7074692E-001	-2.7035913E+002
3	0	8.749979778956913E+001	2.7038503E-001	-2.7036972E+002
3	0	8.799979777693807E+001	2.7001986E-001	-2.7036618E+002
3	0	8.849979776430700E+001	2.6966798E-001	-2.7038031E+002
3	0	8.899979775167594E+001	2.6929489E-001	-2.7036267E+002
3	0	8.949979773904488E+001	2.6890624E-001	-2.7036267E+002
3	0	8.999979772641382E+001	2.6855829E-001	-2.7038385E+002
3	0	9.049979771378275E+001	2.6823306E-001	-2.7039093E+002
3	0	9.099979770115169E+001	2.6790676E-001	-2.7036972E+002
3	0	9.149979768852063E+001	2.6757264E-001	-2.7036972E+002
3	0	9.199979767588957E+001	2.6724544E-001	-2.7036267E+002
3	0	9.249979766325851E+001	2.6691499E-001	-2.7036972E+002
3	0	9.299979765062744E+001	2.6656473E-001	-2.7037326E+002
3	0	9.349979763799638E+001	2.6620969E-001	-2.7036972E+002
3	0	9.399979762536532E+001	2.6589480E-001	-2.7036972E+002
3	0	9.449979761273426E+001	2.6559782E-001	-2.7037326E+002
3	0	9.499979760010319E+001	2.6529187E-001	-2.7038385E+002
3	0	9.549979758747213E+001	2.6499298E-001	-2.7038385E+002
3	0	9.599979757484107E+001	2.6469809E-001	-2.7036618E+002
3	0	9.649979756221001E+001	2.6439911E-001	-2.7039447E+002
3	0	9.699979754957894E+001	2.6407519E-001	-2.7036972E+002
3	0	9.749979753694788E+001	2.6375231E-001	-2.7038742E+002
3	0	9.799979752431682E+001	2.6346186E-001	-2.7036618E+002
3	0	9.849979751168576E+001	2.6319608E-001	-2.7038031E+002
3	0	9.899979749905469E+001	2.6291960E-001	-2.7038031E+002
3	0	9.949979748642363E+001	2.6264513E-001	-2.7037677E+002
3	0	9.999979747379257E+001	2.6237017E-001	-2.7038385E+002
3	0	1.004997974611615E+002	2.6209733E-001	-2.7039447E+002
3	0	1.009997974485304E+002	2.6179796E-001	-2.7038385E+002
3	0	1.014997974358994E+002	2.6148686E-001	-2.7038031E+002
3	0	1.019997974232683E+002	2.6122326E-001	-2.7037326E+002
3	0	1.024997974106373E+002	2.6097491E-001	-2.7038385E+002
3	0	1.029997973980062E+002	2.6072440E-001	-2.7035559E+002
3	0	1.034997973853751E+002	2.6047441E-001	-2.7037677E+002
3	0	1.039997973727441E+002	2.6021981E-001	-2.7036972E+002
3	0	1.044997973601130E+002	2.5995731E-001	-2.7038385E+002
3	0	1.049997973474819E+002	2.5968948E-001	-2.7037677E+002
3	0	1.050001973474718E+002	2.5959599E-001	-2.7040506E+002