EC-Lab ASCII FILE
Nb header lines : 55                          

Open Circuit Voltage

Run on channel : 1 (SN 81504)
User : 
CE vs. WE compliance from -10 V to 10 V
Electrode connection : standard
Potential control : Ewe
Ewe ctrl range : min = -2.50 V, max = 2.50 V
Safety Limits :
	Do not start on E overload
Acquisition started on : 05/07/2026 17:16:31.252
Loaded Setting File :  C:\PEM-WE_measurements\2026\372_IV_IV IrOx, 5 min Pt, 30 min C, etched cathode\new station\Loopeis new\1,46 V different time gaps open cell\Loopeis 1,46V_60s_3_PEIS from 6500Hz to 1000Hz.mps
Saved on :
	File : L_13_Loopeis 1,46V_60s_3_PEIS from 6500Hz to 1000Hz_06_OCV_C01.mpr
	Directory : C:\PEM-WE_measurements\2026\372_IV_IV IrOx, 5 min Pt, 30 min C, etched cathode\new station\Loopeis new\1,46 V different time gaps open cell\
	Host : 192.168.0.2
Device : SP-150e (SN .005491)
Address : 192.168.0.91
EC-LAB for windows v11.71 (software)
Internet server v28.00 (firmware)
Command interpretor v14.01 (firmware)
Electrode material : 
Initial state : 
Electrolyte : 
Comments : 
Current amplifier : SP-150eB-20A
Electrode surface area : 0.001 cm²
Characteristic mass : 0.001 g
Equivalent Weight : 0.000 g/eq.
Density : 0.000 g/cm3
Volume (V) : 0.001 cm³
Record Analogic IN 1
Text export
   Mode : Standard
   Time format : Elapsed
Cycle Definition : Charge/Discharge alternance
External device configuration :
   device type : Temperature Probe
   device name : Other
   Analog IN 1 : 
      unit : T/Â°C
      max : 100.000 at 2.000 V
      min : 0.000 at 1.460 V
tR (h:m:s)          0:01:0.0000         
dER/dt (mV/h)       1.0                 
record              <Ewe>               
dER (mV)            10.00               
dtR (s)             0.5000              
E range min (V)     -2.500              
E range max (V)     2.500               

mode	error	time/s	<Ewe/V>	Analog IN 1/V	
3	0	2.554775968185277E+002	1.2773789E+000	-2.7038031E+002
3	0	2.559775968058966E+002	1.2743020E+000	-2.7038742E+002
3	0	2.564775967932655E+002	1.2436358E+000	-2.7037326E+002
3	0	2.569775967806345E+002	1.1810009E+000	-2.7039447E+002
3	0	2.574775967680034E+002	1.0108132E+000	-2.7039093E+002
3	0	2.579775967553724E+002	5.4277688E-001	-2.7036618E+002
3	0	2.584775967427413E+002	3.7110654E-001	-2.7038385E+002
3	0	2.589775967301102E+002	3.4610301E-001	-2.7037326E+002
3	0	2.594775967174792E+002	3.3652508E-001	-2.7038031E+002
3	0	2.599775967048481E+002	3.2900342E-001	-2.7037677E+002
3	0	2.604775966922170E+002	3.2328278E-001	-2.7038742E+002
3	0	2.609775966795860E+002	3.1892085E-001	-2.7037677E+002
3	0	2.614775966669549E+002	3.1552455E-001	-2.7036618E+002
3	0	2.619775966543239E+002	3.1283990E-001	-2.7039093E+002
3	0	2.624775966416928E+002	3.1062096E-001	-2.7035559E+002
3	0	2.629775966290617E+002	3.0876857E-001	-2.7037326E+002
3	0	2.634775966164307E+002	3.0716711E-001	-2.7039093E+002
3	0	2.639775966037996E+002	3.0576617E-001	-2.7037326E+002
3	0	2.644775965911685E+002	3.0451977E-001	-2.7040155E+002
3	0	2.649775965785375E+002	3.0337346E-001	-2.7037326E+002
3	0	2.654775965659064E+002	3.0231288E-001	-2.7037677E+002
3	0	2.659775965532754E+002	3.0136380E-001	-2.7037677E+002
3	0	2.664775965406443E+002	3.0047408E-001	-2.7039801E+002
3	0	2.669775965280132E+002	2.9964373E-001	-2.7038742E+002
3	0	2.674775965153822E+002	2.9884875E-001	-2.7036618E+002
3	0	2.679775965027511E+002	2.9809052E-001	-2.7038385E+002
3	0	2.684775964901201E+002	2.9734400E-001	-2.7038385E+002
3	0	2.689775964774890E+002	2.9660526E-001	-2.7037677E+002
3	0	2.694775964648579E+002	2.9589364E-001	-2.7037326E+002
3	0	2.699775964522269E+002	2.9523250E-001	-2.7037326E+002
3	0	2.704775964395958E+002	2.9458520E-001	-2.7038385E+002
3	0	2.709775964269647E+002	2.9395443E-001	-2.7039093E+002
3	0	2.714775964143337E+002	2.9333365E-001	-2.7036267E+002
3	0	2.719775964017026E+002	2.9272544E-001	-2.7039801E+002
3	0	2.724775963890716E+002	2.9210892E-001	-2.7037677E+002
3	0	2.729775963764405E+002	2.9148775E-001	-2.7038385E+002
3	0	2.734775963638094E+002	2.9087564E-001	-2.7038742E+002
3	0	2.739775963511784E+002	2.9031125E-001	-2.7038742E+002
3	0	2.744775963385473E+002	2.8974694E-001	-2.7036618E+002
3	0	2.749775963259162E+002	2.8918648E-001	-2.7038742E+002
3	0	2.754775963132852E+002	2.8862962E-001	-2.7037326E+002
3	0	2.759775963006541E+002	2.8808609E-001	-2.7039801E+002
3	0	2.764775962880231E+002	2.8753382E-001	-2.7040155E+002
3	0	2.769775962753920E+002	2.8696761E-001	-2.7040506E+002
3	0	2.774775962627609E+002	2.8640842E-001	-2.7038385E+002
3	0	2.779775962501299E+002	2.8588551E-001	-2.7036618E+002
3	0	2.784775962374988E+002	2.8536347E-001	-2.7034851E+002
3	0	2.789775962248677E+002	2.8484952E-001	-2.7038385E+002
3	0	2.794775962122367E+002	2.8434345E-001	-2.7039447E+002
3	0	2.799775961996056E+002	2.8383863E-001	-2.7035913E+002
3	0	2.804775961869746E+002	2.8332686E-001	-2.7037677E+002
3	0	2.809775961743435E+002	2.8280279E-001	-2.7038742E+002
3	0	2.814775961617124E+002	2.8228039E-001	-2.7039801E+002
3	0	2.819775961490814E+002	2.8180170E-001	-2.7039447E+002
3	0	2.824775961364503E+002	2.8131703E-001	-2.7037326E+002
3	0	2.829775961238192E+002	2.8083822E-001	-2.7036267E+002
3	0	2.834775961111882E+002	2.8037462E-001	-2.7036972E+002
3	0	2.839775960985571E+002	2.7990967E-001	-2.7038385E+002
3	0	2.844775960859261E+002	2.7942541E-001	-2.7038742E+002
3	0	2.849775960732950E+002	2.7893424E-001	-2.7038385E+002
3	0	2.854775960606639E+002	2.7844787E-001	-2.7037326E+002
3	0	2.859775960480329E+002	2.7799252E-001	-2.7035913E+002
3	0	2.864775960354018E+002	2.7753782E-001	-2.7038385E+002
3	0	2.869775960227707E+002	2.7709752E-001	-2.7036267E+002
3	0	2.874775960101397E+002	2.7664801E-001	-2.7037326E+002
3	0	2.879775959975086E+002	2.7621260E-001	-2.7038742E+002
3	0	2.884775959848776E+002	2.7577373E-001	-2.7036972E+002
3	0	2.889775959722465E+002	2.7531683E-001	-2.7037677E+002
3	0	2.894775959596154E+002	2.7486074E-001	-2.7036618E+002
3	0	2.899775959469844E+002	2.7445695E-001	-2.7037677E+002
3	0	2.904775959343533E+002	2.7404696E-001	-2.7038385E+002
3	0	2.909775959217222E+002	2.7363405E-001	-2.7036267E+002
3	0	2.914775959090912E+002	2.7323386E-001	-2.7039093E+002
3	0	2.919775958964601E+002	2.7283290E-001	-2.7038742E+002
3	0	2.924775958838291E+002	2.7242216E-001	-2.7038031E+002
3	0	2.929775958711980E+002	2.7199316E-001	-2.7038742E+002
3	0	2.934775958585669E+002	2.7157462E-001	-2.7035913E+002
3	0	2.939775958459359E+002	2.7119333E-001	-2.7038031E+002
3	0	2.944775958333048E+002	2.7081710E-001	-2.7039801E+002
3	0	2.949775958206737E+002	2.7044517E-001	-2.7038385E+002
3	0	2.954775958080427E+002	2.7007729E-001	-2.7037326E+002
3	0	2.959775957954116E+002	2.6970807E-001	-2.7037326E+002
3	0	2.964775957827806E+002	2.6932487E-001	-2.7036618E+002
3	0	2.969775957701495E+002	2.6893142E-001	-2.7038385E+002
3	0	2.974775957575184E+002	2.6853701E-001	-2.7040155E+002
3	0	2.979775957448874E+002	2.6818419E-001	-2.7037677E+002
3	0	2.984775957322563E+002	2.6783702E-001	-2.7034851E+002
3	0	2.989775957196252E+002	2.6748568E-001	-2.7039801E+002
3	0	2.994775957069942E+002	2.6713970E-001	-2.7038742E+002
3	0	2.999775956943631E+002	2.6679233E-001	-2.7037677E+002
3	0	3.004775956817321E+002	2.6644617E-001	-2.7038031E+002
3	0	3.009775956691010E+002	2.6608339E-001	-2.7035913E+002
3	0	3.014775956564699E+002	2.6572311E-001	-2.7039447E+002
3	0	3.019775956438389E+002	2.6541257E-001	-2.7036618E+002
3	0	3.024775956312078E+002	2.6508513E-001	-2.7036618E+002
3	0	3.029775956185767E+002	2.6476607E-001	-2.7039801E+002
3	0	3.034775956059457E+002	2.6444691E-001	-2.7036972E+002
3	0	3.039775955933146E+002	2.6411256E-001	-2.7036972E+002
3	0	3.044775955806836E+002	2.6377022E-001	-2.7037326E+002
3	0	3.049775955680525E+002	2.6345375E-001	-2.7038385E+002
3	0	3.054775955554214E+002	2.6313427E-001	-2.7038031E+002
3	0	3.059775955427904E+002	2.6285902E-001	-2.7038385E+002
3	0	3.064775955301593E+002	2.6256356E-001	-2.7036618E+002
3	0	3.069775955175282E+002	2.6227263E-001	-2.7035913E+002
3	0	3.074775955048972E+002	2.6198909E-001	-2.7037677E+002
3	0	3.079775954922661E+002	2.6170015E-001	-2.7036618E+002
3	0	3.084775954796351E+002	2.6139560E-001	-2.7036267E+002
3	0	3.089775954670040E+002	2.6108202E-001	-2.7037677E+002
3	0	3.094775954543729E+002	2.6077741E-001	-2.7037326E+002
3	0	3.099775954417419E+002	2.6052120E-001	-2.7039447E+002
3	0	3.104775954291108E+002	2.6025024E-001	-2.7036972E+002
3	0	3.109775954164797E+002	2.5998136E-001	-2.7035205E+002
3	0	3.114775954038487E+002	2.5972372E-001	-2.7037677E+002
3	0	3.119775953912176E+002	2.5946012E-001	-2.7037326E+002
3	0	3.124775953785866E+002	2.5918943E-001	-2.7037326E+002
3	0	3.129775953659555E+002	2.5889406E-001	-2.7039093E+002
3	0	3.134775953533244E+002	2.5860459E-001	-2.7036267E+002
3	0	3.139775953406934E+002	2.5836155E-001	-2.7038385E+002
3	0	3.144775953280623E+002	2.5813329E-001	-2.7037677E+002
3	0	3.149775953154312E+002	2.5788847E-001	-2.7037326E+002
3	0	3.149779953154211E+002	2.5776061E-001	-2.7038031E+002