EC-Lab ASCII FILE
Nb header lines : 55                          

Open Circuit Voltage

Run on channel : 1 (SN 81504)
User : 
CE vs. WE compliance from -10 V to 10 V
Electrode connection : standard
Potential control : Ewe
Ewe ctrl range : min = -2.50 V, max = 2.50 V
Safety Limits :
	Do not start on E overload
Acquisition started on : 05/07/2026 17:16:31.252
Loaded Setting File :  C:\PEM-WE_measurements\2026\372_IV_IV IrOx, 5 min Pt, 30 min C, etched cathode\new station\Loopeis new\1,46 V different time gaps open cell\Loopeis 1,46V_60s_3_PEIS from 6500Hz to 1000Hz.mps
Saved on :
	File : L_13_Loopeis 1,46V_60s_3_PEIS from 6500Hz to 1000Hz_14_OCV_C01.mpr
	Directory : C:\PEM-WE_measurements\2026\372_IV_IV IrOx, 5 min Pt, 30 min C, etched cathode\new station\Loopeis new\1,46 V different time gaps open cell\
	Host : 192.168.0.2
Device : SP-150e (SN .005491)
Address : 192.168.0.91
EC-LAB for windows v11.71 (software)
Internet server v28.00 (firmware)
Command interpretor v14.01 (firmware)
Electrode material : 
Initial state : 
Electrolyte : 
Comments : 
Current amplifier : SP-150eB-20A
Electrode surface area : 0.001 cm²
Characteristic mass : 0.001 g
Equivalent Weight : 0.000 g/eq.
Density : 0.000 g/cm3
Volume (V) : 0.001 cm³
Record Analogic IN 1
Text export
   Mode : Standard
   Time format : Elapsed
Cycle Definition : Charge/Discharge alternance
External device configuration :
   device type : Temperature Probe
   device name : Other
   Analog IN 1 : 
      unit : T/Â°C
      max : 100.000 at 2.000 V
      min : 0.000 at 1.460 V
tR (h:m:s)          0:01:0.0000         
dER/dt (mV/h)       1.0                 
record              <Ewe>               
dER (mV)            10.00               
dtR (s)             0.5000              
E range min (V)     -2.500              
E range max (V)     2.500               

mode	error	time/s	<Ewe/V>	Analog IN 1/V	
3	0	6.776411928593006E+002	1.2767848E+000	-2.7039801E+002
3	0	6.781411928466696E+002	1.2720081E+000	-2.7038031E+002
3	0	6.786411928340385E+002	1.2382913E+000	-2.7037326E+002
3	0	6.791411928214075E+002	1.1703283E+000	-2.7039093E+002
3	0	6.796411928087764E+002	9.7972035E-001	-2.7038385E+002
3	0	6.801411927961453E+002	5.1906121E-001	-2.7036618E+002
3	0	6.806411927835143E+002	3.6205885E-001	-2.7038031E+002
3	0	6.811411927708832E+002	3.3942050E-001	-2.7038385E+002
3	0	6.816411927582521E+002	3.3024976E-001	-2.7038742E+002
3	0	6.821411927456211E+002	3.2292682E-001	-2.7035913E+002
3	0	6.826411927329900E+002	3.1734109E-001	-2.7036972E+002
3	0	6.831411927203590E+002	3.1308776E-001	-2.7036972E+002
3	0	6.836411927077279E+002	3.0977085E-001	-2.7037326E+002
3	0	6.841411926950968E+002	3.0709803E-001	-2.7038742E+002
3	0	6.846411926824658E+002	3.0487809E-001	-2.7038742E+002
3	0	6.851411926698347E+002	3.0302790E-001	-2.7038385E+002
3	0	6.856411926572036E+002	3.0146652E-001	-2.7037677E+002
3	0	6.861411926445726E+002	3.0009392E-001	-2.7039093E+002
3	0	6.866411926319415E+002	2.9886600E-001	-2.7036267E+002
3	0	6.871411926193105E+002	2.9777572E-001	-2.7036267E+002
3	0	6.876411926066794E+002	2.9676560E-001	-2.7036267E+002
3	0	6.881411925940483E+002	2.9581672E-001	-2.7038742E+002
3	0	6.886411925814173E+002	2.9491243E-001	-2.7038385E+002
3	0	6.891411925687862E+002	2.9406670E-001	-2.7037326E+002
3	0	6.896411925561551E+002	2.9330039E-001	-2.7038385E+002
3	0	6.901411925435241E+002	2.9255432E-001	-2.7040860E+002
3	0	6.906411925308930E+002	2.9184225E-001	-2.7038385E+002
3	0	6.911411925182620E+002	2.9114249E-001	-2.7035913E+002
3	0	6.916411925056309E+002	2.9047328E-001	-2.7036267E+002
3	0	6.921411924929998E+002	2.8980327E-001	-2.7036972E+002
3	0	6.926411924803688E+002	2.8913483E-001	-2.7037677E+002
3	0	6.931411924677377E+002	2.8849089E-001	-2.7038385E+002
3	0	6.936411924551066E+002	2.8788704E-001	-2.7037326E+002
3	0	6.941411924424756E+002	2.8727874E-001	-2.7038031E+002
3	0	6.946411924298445E+002	2.8669354E-001	-2.7036972E+002
3	0	6.951411924172135E+002	2.8611189E-001	-2.7039093E+002
3	0	6.956411924045824E+002	2.8553805E-001	-2.7037326E+002
3	0	6.961411923919513E+002	2.8495973E-001	-2.7038385E+002
3	0	6.966411923793203E+002	2.8437033E-001	-2.7038385E+002
3	0	6.971411923666892E+002	2.8379288E-001	-2.7036972E+002
3	0	6.976411923540581E+002	2.8325573E-001	-2.7037326E+002
3	0	6.981411923414271E+002	2.8271490E-001	-2.7035559E+002
3	0	6.986411923287960E+002	2.8218466E-001	-2.7035913E+002
3	0	6.991411923161650E+002	2.8165764E-001	-2.7035559E+002
3	0	6.996411923035339E+002	2.8113526E-001	-2.7037677E+002
3	0	7.001411922909028E+002	2.8060624E-001	-2.7038031E+002
3	0	7.006411922782718E+002	2.8005895E-001	-2.7038742E+002
3	0	7.011411922656407E+002	2.7953130E-001	-2.7038385E+002
3	0	7.016411922530096E+002	2.7903923E-001	-2.7038385E+002
3	0	7.021411922403786E+002	2.7853829E-001	-2.7036972E+002
3	0	7.026411922277475E+002	2.7804652E-001	-2.7038031E+002
3	0	7.031411922151165E+002	2.7755558E-001	-2.7038385E+002
3	0	7.036411922024854E+002	2.7707013E-001	-2.7038031E+002
3	0	7.041411921898543E+002	2.7657589E-001	-2.7036267E+002
3	0	7.046411921772233E+002	2.7606669E-001	-2.7038031E+002
3	0	7.051411921645922E+002	2.7557546E-001	-2.7036972E+002
3	0	7.056411921519612E+002	2.7511334E-001	-2.7035913E+002
3	0	7.061411921393301E+002	2.7465570E-001	-2.7038742E+002
3	0	7.066411921266990E+002	2.7419847E-001	-2.7039447E+002
3	0	7.071411921140680E+002	2.7373609E-001	-2.7037677E+002
3	0	7.076411921014369E+002	2.7327946E-001	-2.7036267E+002
3	0	7.081411920888058E+002	2.7280557E-001	-2.7036267E+002
3	0	7.086411920761748E+002	2.7233103E-001	-2.7038031E+002
3	0	7.091411920635437E+002	2.7187711E-001	-2.7038031E+002
3	0	7.096411920509127E+002	2.7144217E-001	-2.7038742E+002
3	0	7.101411920382816E+002	2.7100846E-001	-2.7039801E+002
3	0	7.106411920256505E+002	2.7058744E-001	-2.7038031E+002
3	0	7.111411920130195E+002	2.7016422E-001	-2.7038031E+002
3	0	7.116411920003884E+002	2.6974791E-001	-2.7037677E+002
3	0	7.121411919877573E+002	2.6931936E-001	-2.7035205E+002
3	0	7.126411919751263E+002	2.6887336E-001	-2.7036972E+002
3	0	7.131411919624952E+002	2.6845267E-001	-2.7036972E+002
3	0	7.136411919498642E+002	2.6806095E-001	-2.7035913E+002
3	0	7.141411919372331E+002	2.6766011E-001	-2.7036618E+002
3	0	7.146411919246020E+002	2.6726371E-001	-2.7036618E+002
3	0	7.151411919119710E+002	2.6687509E-001	-2.7037677E+002
3	0	7.156411918993399E+002	2.6648673E-001	-2.7038385E+002
3	0	7.161411918867088E+002	2.6608542E-001	-2.7038031E+002
3	0	7.166411918740778E+002	2.6567629E-001	-2.7037677E+002
3	0	7.171411918614467E+002	2.6527956E-001	-2.7039447E+002
3	0	7.176411918488157E+002	2.6492020E-001	-2.7039093E+002
3	0	7.181411918361846E+002	2.6456091E-001	-2.7038385E+002
3	0	7.186411918235535E+002	2.6419780E-001	-2.7037326E+002
3	0	7.191411918109225E+002	2.6384449E-001	-2.7039447E+002
3	0	7.196411917982914E+002	2.6348868E-001	-2.7037677E+002
3	0	7.201411917856603E+002	2.6311609E-001	-2.7036618E+002
3	0	7.206411917730293E+002	2.6273769E-001	-2.7038385E+002
3	0	7.211411917603982E+002	2.6237485E-001	-2.7040155E+002
3	0	7.216411917477672E+002	2.6204759E-001	-2.7038031E+002
3	0	7.221411917351361E+002	2.6171443E-001	-2.7035913E+002
3	0	7.226411917225050E+002	2.6138449E-001	-2.7036972E+002
3	0	7.231411917098740E+002	2.6105553E-001	-2.7039447E+002
3	0	7.236411916972429E+002	2.6072481E-001	-2.7036267E+002
3	0	7.241411916846118E+002	2.6038241E-001	-2.7035913E+002
3	0	7.246411916719808E+002	2.6002520E-001	-2.7036618E+002
3	0	7.251411916593497E+002	2.5969303E-001	-2.7037326E+002
3	0	7.256411916467187E+002	2.5939626E-001	-2.7036972E+002
3	0	7.261411916340876E+002	2.5908631E-001	-2.7039801E+002
3	0	7.266411916214565E+002	2.5878382E-001	-2.7040155E+002
3	0	7.271411916088255E+002	2.5848347E-001	-2.7038742E+002
3	0	7.276411915961944E+002	2.5818351E-001	-2.7039093E+002
3	0	7.281411915835633E+002	2.5786582E-001	-2.7038385E+002
3	0	7.286411915709323E+002	2.5753295E-001	-2.7037326E+002
3	0	7.291411915583012E+002	2.5721562E-001	-2.7039093E+002
3	0	7.296411915456702E+002	2.5693509E-001	-2.7036267E+002
3	0	7.301411915330391E+002	2.5665423E-001	-2.7036618E+002
3	0	7.306411915204080E+002	2.5637564E-001	-2.7038031E+002
3	0	7.311411915077770E+002	2.5610724E-001	-2.7038031E+002
3	0	7.316411914951459E+002	2.5582737E-001	-2.7039801E+002
3	0	7.321411914825148E+002	2.5553969E-001	-2.7036972E+002
3	0	7.326411914698838E+002	2.5523436E-001	-2.7035205E+002
3	0	7.331411914572527E+002	2.5495136E-001	-2.7035205E+002
3	0	7.336411914446217E+002	2.5470939E-001	-2.7037677E+002
3	0	7.341411914319906E+002	2.5445417E-001	-2.7037677E+002
3	0	7.346411914193595E+002	2.5420684E-001	-2.7037677E+002
3	0	7.351411914067285E+002	2.5395709E-001	-2.7039801E+002
3	0	7.356411913940974E+002	2.5371096E-001	-2.7036972E+002
3	0	7.361411913814663E+002	2.5344828E-001	-2.7039447E+002
3	0	7.366411913688353E+002	2.5316635E-001	-2.7036972E+002
3	0	7.371411913562042E+002	2.5290993E-001	-2.7038742E+002
3	0	7.371415913561941E+002	2.5278306E-001	-2.7039801E+002