EC-Lab ASCII FILE
Nb header lines : 55                          

Open Circuit Voltage

Run on channel : 1 (SN 81504)
User : 
CE vs. WE compliance from -10 V to 10 V
Electrode connection : standard
Potential control : Ewe
Ewe ctrl range : min = -2.50 V, max = 2.50 V
Safety Limits :
	Do not start on E overload
Acquisition started on : 05/07/2026 17:16:31.252
Loaded Setting File :  C:\PEM-WE_measurements\2026\372_IV_IV IrOx, 5 min Pt, 30 min C, etched cathode\new station\Loopeis new\1,46 V different time gaps open cell\Loopeis 1,46V_60s_3_PEIS from 6500Hz to 1000Hz.mps
Saved on :
	File : L_13_Loopeis 1,46V_60s_3_PEIS from 6500Hz to 1000Hz_12_OCV_C01.mpr
	Directory : C:\PEM-WE_measurements\2026\372_IV_IV IrOx, 5 min Pt, 30 min C, etched cathode\new station\Loopeis new\1,46 V different time gaps open cell\
	Host : 192.168.0.2
Device : SP-150e (SN .005491)
Address : 192.168.0.91
EC-LAB for windows v11.71 (software)
Internet server v28.00 (firmware)
Command interpretor v14.01 (firmware)
Electrode material : 
Initial state : 
Electrolyte : 
Comments : 
Current amplifier : SP-150eB-20A
Electrode surface area : 0.001 cm²
Characteristic mass : 0.001 g
Equivalent Weight : 0.000 g/eq.
Density : 0.000 g/cm3
Volume (V) : 0.001 cm³
Record Analogic IN 1
Text export
   Mode : Standard
   Time format : Elapsed
Cycle Definition : Charge/Discharge alternance
External device configuration :
   device type : Temperature Probe
   device name : Other
   Analog IN 1 : 
      unit : T/Â°C
      max : 100.000 at 2.000 V
      min : 0.000 at 1.460 V
tR (h:m:s)          0:01:0.0000         
dER/dt (mV/h)       1.0                 
record              <Ewe>               
dER (mV)            10.00               
dtR (s)             0.5000              
E range min (V)     -2.500              
E range max (V)     2.500               

mode	error	time/s	<Ewe/V>	Analog IN 1/V	
3	0	5.726149955124856E+002	1.0709960E+000	-2.7035559E+002
3	0	5.731149954998546E+002	1.2271334E+000	-2.7040155E+002
3	0	5.736149954872235E+002	1.1948762E+000	-2.7039093E+002
3	0	5.741149954745924E+002	1.1248883E+000	-2.7038385E+002
3	0	5.746149954619614E+002	9.1224396E-001	-2.7038742E+002
3	0	5.751149954493303E+002	4.7451940E-001	-2.7038031E+002
3	0	5.756149954366992E+002	3.3455348E-001	-2.7036267E+002
3	0	5.761149954240682E+002	3.1641519E-001	-2.7039447E+002
3	0	5.766149954114371E+002	3.0843359E-001	-2.7037326E+002
3	0	5.771149953988061E+002	3.0181026E-001	-2.7035559E+002
3	0	5.776149953861750E+002	2.9665616E-001	-2.7038385E+002
3	0	5.781149953735439E+002	2.9268053E-001	-2.7040506E+002
3	0	5.786149953609129E+002	2.8953969E-001	-2.7037677E+002
3	0	5.791149953482818E+002	2.8703362E-001	-2.7036972E+002
3	0	5.796149953356507E+002	2.8496683E-001	-2.7037677E+002
3	0	5.801149953230197E+002	2.8321987E-001	-2.7037326E+002
3	0	5.806149953103886E+002	2.8170747E-001	-2.7039447E+002
3	0	5.811149952977576E+002	2.8038868E-001	-2.7041214E+002
3	0	5.816149952851265E+002	2.7924910E-001	-2.7039447E+002
3	0	5.821149952724954E+002	2.7822453E-001	-2.7038031E+002
3	0	5.826149952598644E+002	2.7728397E-001	-2.7038031E+002
3	0	5.831149952472333E+002	2.7641204E-001	-2.7040155E+002
3	0	5.836149952346022E+002	2.7560410E-001	-2.7038031E+002
3	0	5.841149952219712E+002	2.7483410E-001	-2.7039093E+002
3	0	5.846149952093401E+002	2.7408269E-001	-2.7037677E+002
3	0	5.851149951967091E+002	2.7336752E-001	-2.7038742E+002
3	0	5.856149951840780E+002	2.7270544E-001	-2.7038031E+002
3	0	5.861149951714469E+002	2.7206925E-001	-2.7041214E+002
3	0	5.866149951588159E+002	2.7144167E-001	-2.7037677E+002
3	0	5.871149951461848E+002	2.7083468E-001	-2.7038742E+002
3	0	5.876149951335537E+002	2.7023980E-001	-2.7039447E+002
3	0	5.881149951209227E+002	2.6963735E-001	-2.7037326E+002
3	0	5.886149951082916E+002	2.6903901E-001	-2.7034851E+002
3	0	5.891149950956606E+002	2.6844808E-001	-2.7038031E+002
3	0	5.896149950830295E+002	2.6790202E-001	-2.7038385E+002
3	0	5.901149950703984E+002	2.6735044E-001	-2.7038031E+002
3	0	5.906149950577674E+002	2.6681781E-001	-2.7038031E+002
3	0	5.911149950451363E+002	2.6628724E-001	-2.7038031E+002
3	0	5.916149950325052E+002	2.6577118E-001	-2.7037326E+002
3	0	5.921149950198742E+002	2.6523319E-001	-2.7036972E+002
3	0	5.926149950072431E+002	2.6468825E-001	-2.7036618E+002
3	0	5.931149949946121E+002	2.6415855E-001	-2.7037326E+002
3	0	5.936149949819810E+002	2.6366338E-001	-2.7037326E+002
3	0	5.941149949693499E+002	2.6316026E-001	-2.7036972E+002
3	0	5.946149949567189E+002	2.6266709E-001	-2.7036267E+002
3	0	5.951149949440878E+002	2.6217988E-001	-2.7038742E+002
3	0	5.956149949314567E+002	2.6169601E-001	-2.7036618E+002
3	0	5.961149949188257E+002	2.6119927E-001	-2.7037677E+002
3	0	5.966149949061946E+002	2.6068893E-001	-2.7035913E+002
3	0	5.971149948935636E+002	2.6019135E-001	-2.7036972E+002
3	0	5.976149948809325E+002	2.5973189E-001	-2.7038385E+002
3	0	5.981149948683014E+002	2.5926784E-001	-2.7037326E+002
3	0	5.986149948556704E+002	2.5880909E-001	-2.7038742E+002
3	0	5.991149948430393E+002	2.5835502E-001	-2.7037326E+002
3	0	5.996149948304083E+002	2.5790009E-001	-2.7038385E+002
3	0	6.001149948177772E+002	2.5743061E-001	-2.7035559E+002
3	0	6.006149948051461E+002	2.5694951E-001	-2.7038031E+002
3	0	6.011149947925151E+002	2.5648934E-001	-2.7038742E+002
3	0	6.016149947798840E+002	2.5606567E-001	-2.7037677E+002
3	0	6.021149947672529E+002	2.5563106E-001	-2.7037677E+002
3	0	6.026149947546219E+002	2.5520420E-001	-2.7036972E+002
3	0	6.031149947419908E+002	2.5478032E-001	-2.7035205E+002
3	0	6.036149947293598E+002	2.5436220E-001	-2.7036972E+002
3	0	6.041149947167287E+002	2.5392568E-001	-2.7036618E+002
3	0	6.046149947040976E+002	2.5347719E-001	-2.7037326E+002
3	0	6.051149946914666E+002	2.5304210E-001	-2.7036267E+002
3	0	6.056149946788355E+002	2.5263759E-001	-2.7038385E+002
3	0	6.061149946662044E+002	2.5223476E-001	-2.7036972E+002
3	0	6.066149946535734E+002	2.5182518E-001	-2.7038031E+002
3	0	6.071149946409423E+002	2.5142753E-001	-2.7038031E+002
3	0	6.076149946283113E+002	2.5102875E-001	-2.7038385E+002
3	0	6.081149946156802E+002	2.5062242E-001	-2.7038742E+002
3	0	6.086149946030491E+002	2.5019526E-001	-2.7039093E+002
3	0	6.091149945904181E+002	2.4979180E-001	-2.7035559E+002
3	0	6.096149945777870E+002	2.4942321E-001	-2.7040155E+002
3	0	6.101149945651559E+002	2.4904954E-001	-2.7038742E+002
3	0	6.106149945525249E+002	2.4867865E-001	-2.7040860E+002
3	0	6.111149945398938E+002	2.4830893E-001	-2.7038742E+002
3	0	6.116149945272628E+002	2.4794134E-001	-2.7038031E+002
3	0	6.121149945146317E+002	2.4756205E-001	-2.7038031E+002
3	0	6.126149945020006E+002	2.4716681E-001	-2.7038385E+002
3	0	6.131149944893696E+002	2.4678712E-001	-2.7040860E+002
3	0	6.136149944767385E+002	2.4644642E-001	-2.7036972E+002
3	0	6.141149944641074E+002	2.4609715E-001	-2.7039093E+002
3	0	6.146149944514764E+002	2.4576366E-001	-2.7037326E+002
3	0	6.151149944388453E+002	2.4542686E-001	-2.7036972E+002
3	0	6.156149944262143E+002	2.4509002E-001	-2.7036618E+002
3	0	6.161149944135832E+002	2.4473676E-001	-2.7036972E+002
3	0	6.166149944009521E+002	2.4438202E-001	-2.7037326E+002
3	0	6.171149943883211E+002	2.4403353E-001	-2.7037677E+002
3	0	6.176149943756900E+002	2.4371371E-001	-2.7039093E+002
3	0	6.181149943630589E+002	2.4339752E-001	-2.7035913E+002
3	0	6.186149943504279E+002	2.4308875E-001	-2.7037326E+002
3	0	6.191149943377968E+002	2.4278250E-001	-2.7038031E+002
3	0	6.196149943251658E+002	2.4247135E-001	-2.7038742E+002
3	0	6.201149943125347E+002	2.4215016E-001	-2.7035913E+002
3	0	6.206149942999036E+002	2.4181955E-001	-2.7037326E+002
3	0	6.211149942872726E+002	2.4149568E-001	-2.7038385E+002
3	0	6.216149942746415E+002	2.4120854E-001	-2.7037677E+002
3	0	6.221149942620104E+002	2.4091485E-001	-2.7038385E+002
3	0	6.226149942493794E+002	2.4063414E-001	-2.7039093E+002
3	0	6.231149942367483E+002	2.4035187E-001	-2.7038031E+002
3	0	6.236149942241173E+002	2.4007244E-001	-2.7039447E+002
3	0	6.241149942114862E+002	2.3977962E-001	-2.7037326E+002
3	0	6.246149941988551E+002	2.3947474E-001	-2.7038385E+002
3	0	6.251149941862241E+002	2.3916891E-001	-2.7037326E+002
3	0	6.256149941735930E+002	2.3890707E-001	-2.7039801E+002
3	0	6.261149941609619E+002	2.3863730E-001	-2.7037677E+002
3	0	6.266149941483309E+002	2.3837508E-001	-2.7040155E+002
3	0	6.271149941356998E+002	2.3810531E-001	-2.7037677E+002
3	0	6.276149941230688E+002	2.3782562E-001	-2.7038742E+002
3	0	6.281149941104377E+002	2.3756835E-001	-2.7038031E+002
3	0	6.286149940978066E+002	2.3728448E-001	-2.7038385E+002
3	0	6.291149940851756E+002	2.3701905E-001	-2.7036972E+002
3	0	6.296149940725445E+002	2.3678334E-001	-2.7036618E+002
3	0	6.301149940599134E+002	2.3654288E-001	-2.7039093E+002
3	0	6.306149940472824E+002	2.3629737E-001	-2.7039447E+002
3	0	6.311149940346513E+002	2.3605624E-001	-2.7037326E+002
3	0	6.316149940220203E+002	2.3581554E-001	-2.7039093E+002
3	0	6.321149940093892E+002	2.3557794E-001	-2.7038385E+002
3	0	6.321405940087425E+002	2.3544808E-001	-2.7039447E+002