EC-Lab ASCII FILE
Nb header lines : 55                          

Open Circuit Voltage

Run on channel : 1 (SN 81504)
User : 
CE vs. WE compliance from -10 V to 10 V
Electrode connection : standard
Potential control : Ewe
Ewe ctrl range : min = -2.50 V, max = 2.50 V
Safety Limits :
	Do not start on E overload
Acquisition started on : 05/07/2026 17:16:31.252
Loaded Setting File :  C:\PEM-WE_measurements\2026\372_IV_IV IrOx, 5 min Pt, 30 min C, etched cathode\new station\Loopeis new\1,46 V different time gaps open cell\Loopeis 1,46V_60s_3_PEIS from 6500Hz to 1000Hz.mps
Saved on :
	File : L_13_Loopeis 1,46V_60s_3_PEIS from 6500Hz to 1000Hz_16_OCV_C01.mpr
	Directory : C:\PEM-WE_measurements\2026\372_IV_IV IrOx, 5 min Pt, 30 min C, etched cathode\new station\Loopeis new\1,46 V different time gaps open cell\
	Host : 192.168.0.2
Device : SP-150e (SN .005491)
Address : 192.168.0.91
EC-LAB for windows v11.71 (software)
Internet server v28.00 (firmware)
Command interpretor v14.01 (firmware)
Electrode material : 
Initial state : 
Electrolyte : 
Comments : 
Current amplifier : SP-150eB-20A
Electrode surface area : 0.001 cm²
Characteristic mass : 0.001 g
Equivalent Weight : 0.000 g/eq.
Density : 0.000 g/cm3
Volume (V) : 0.001 cm³
Record Analogic IN 1
Text export
   Mode : Standard
   Time format : Elapsed
Cycle Definition : Charge/Discharge alternance
External device configuration :
   device type : Temperature Probe
   device name : Other
   Analog IN 1 : 
      unit : T/Â°C
      max : 100.000 at 2.000 V
      min : 0.000 at 1.460 V
tR (h:m:s)          0:01:0.0000         
dER/dt (mV/h)       1.0                 
record              <Ewe>               
dER (mV)            10.00               
dtR (s)             0.5000              
E range min (V)     -2.500              
E range max (V)     2.500               

mode	error	time/s	<Ewe/V>	Analog IN 1/V	
3	0	7.848227935862815E+002	1.0696633E+000	-2.7037677E+002
3	0	7.853227935736504E+002	1.2256082E+000	-2.7039801E+002
3	0	7.858227935610194E+002	1.1912947E+000	-2.7037326E+002
3	0	7.863227935483883E+002	1.1178243E+000	-2.7038385E+002
3	0	7.868227935357572E+002	8.9065701E-001	-2.7036618E+002
3	0	7.873227935231262E+002	4.6168900E-001	-2.7038385E+002
3	0	7.878227935104951E+002	3.3068040E-001	-2.7038031E+002
3	0	7.883227934978640E+002	3.1396854E-001	-2.7039801E+002
3	0	7.888227934852330E+002	3.0610693E-001	-2.7037326E+002
3	0	7.893227934726019E+002	2.9955739E-001	-2.7037326E+002
3	0	7.898227934599709E+002	2.9445493E-001	-2.7036618E+002
3	0	7.903227934473398E+002	2.9050887E-001	-2.7039093E+002
3	0	7.908227934347087E+002	2.8740835E-001	-2.7038385E+002
3	0	7.913227934220777E+002	2.8491396E-001	-2.7038742E+002
3	0	7.918227934094466E+002	2.8285941E-001	-2.7038742E+002
3	0	7.923227933968155E+002	2.8111127E-001	-2.7037677E+002
3	0	7.928227933841845E+002	2.7960390E-001	-2.7038031E+002
3	0	7.933227933715534E+002	2.7832204E-001	-2.7036972E+002
3	0	7.938227933589224E+002	2.7719906E-001	-2.7037326E+002
3	0	7.943227933462913E+002	2.7618214E-001	-2.7039801E+002
3	0	7.948227933336602E+002	2.7525163E-001	-2.7036618E+002
3	0	7.953227933210292E+002	2.7439749E-001	-2.7038742E+002
3	0	7.958227933083981E+002	2.7358699E-001	-2.7038031E+002
3	0	7.963227932957670E+002	2.7279353E-001	-2.7036267E+002
3	0	7.968227932831360E+002	2.7204451E-001	-2.7039093E+002
3	0	7.973227932705049E+002	2.7134892E-001	-2.7037677E+002
3	0	7.978227932578739E+002	2.7069995E-001	-2.7039801E+002
3	0	7.983227932452428E+002	2.7006000E-001	-2.7036972E+002
3	0	7.988227932326117E+002	2.6944402E-001	-2.7038742E+002
3	0	7.993227932199807E+002	2.6884553E-001	-2.7039801E+002
3	0	7.998227932073496E+002	2.6824823E-001	-2.7038742E+002
3	0	8.003227931947185E+002	2.6763862E-001	-2.7038385E+002
3	0	8.008227931820875E+002	2.6702994E-001	-2.7039093E+002
3	0	8.013227931694564E+002	2.6646766E-001	-2.7038385E+002
3	0	8.018227931568254E+002	2.6592618E-001	-2.7038385E+002
3	0	8.023227931441943E+002	2.6538441E-001	-2.7035913E+002
3	0	8.028227931315632E+002	2.6485816E-001	-2.7037326E+002
3	0	8.033227931189322E+002	2.6433727E-001	-2.7037326E+002
3	0	8.038227931063011E+002	2.6381007E-001	-2.7036972E+002
3	0	8.043227930936700E+002	2.6326197E-001	-2.7039093E+002
3	0	8.048227930810390E+002	2.6271403E-001	-2.7038031E+002
3	0	8.053227930684079E+002	2.6220873E-001	-2.7039093E+002
3	0	8.058227930557769E+002	2.6171803E-001	-2.7038742E+002
3	0	8.063227930431458E+002	2.6122764E-001	-2.7036618E+002
3	0	8.068227930305147E+002	2.6074037E-001	-2.7039093E+002
3	0	8.073227930178837E+002	2.6025078E-001	-2.7037326E+002
3	0	8.078227930052526E+002	2.5975922E-001	-2.7039801E+002
3	0	8.083227929926215E+002	2.5925231E-001	-2.7036618E+002
3	0	8.088227929799905E+002	2.5873524E-001	-2.7038031E+002
3	0	8.093227929673594E+002	2.5825548E-001	-2.7038385E+002
3	0	8.098227929547284E+002	2.5779864E-001	-2.7038742E+002
3	0	8.103227929420973E+002	2.5733683E-001	-2.7038385E+002
3	0	8.108227929294662E+002	2.5687265E-001	-2.7038031E+002
3	0	8.113227929168352E+002	2.5641948E-001	-2.7041568E+002
3	0	8.118227929042041E+002	2.5595888E-001	-2.7036267E+002
3	0	8.123227928915730E+002	2.5547627E-001	-2.7036972E+002
3	0	8.128227928789420E+002	2.5500095E-001	-2.7038385E+002
3	0	8.133227928663109E+002	2.5456369E-001	-2.7036618E+002
3	0	8.138227928536799E+002	2.5414222E-001	-2.7035559E+002
3	0	8.143227928410488E+002	2.5371218E-001	-2.7038031E+002
3	0	8.148227928284177E+002	2.5328410E-001	-2.7038031E+002
3	0	8.153227928157867E+002	2.5285664E-001	-2.7041214E+002
3	0	8.158227928031556E+002	2.5242394E-001	-2.7039093E+002
3	0	8.163227927905245E+002	2.5197792E-001	-2.7037677E+002
3	0	8.168227927778935E+002	2.5152582E-001	-2.7035913E+002
3	0	8.173227927652624E+002	2.5111693E-001	-2.7038742E+002
3	0	8.178227927526314E+002	2.5071684E-001	-2.7037677E+002
3	0	8.183227927400003E+002	2.5032187E-001	-2.7038385E+002
3	0	8.188227927273692E+002	2.4992055E-001	-2.7036972E+002
3	0	8.193227927147382E+002	2.4952963E-001	-2.7039447E+002
3	0	8.198227927021071E+002	2.4913341E-001	-2.7037326E+002
3	0	8.203227926894760E+002	2.4871214E-001	-2.7038385E+002
3	0	8.208227926768450E+002	2.4829192E-001	-2.7038385E+002
3	0	8.213227926642139E+002	2.4791430E-001	-2.7035913E+002
3	0	8.218227926515829E+002	2.4754317E-001	-2.7039093E+002
3	0	8.223227926389518E+002	2.4716999E-001	-2.7035205E+002
3	0	8.228227926263207E+002	2.4680042E-001	-2.7036267E+002
3	0	8.233227926136897E+002	2.4643844E-001	-2.7040506E+002
3	0	8.238227926010586E+002	2.4606371E-001	-2.7037326E+002
3	0	8.243227925884275E+002	2.4567422E-001	-2.7035913E+002
3	0	8.248227925757965E+002	2.4527973E-001	-2.7037677E+002
3	0	8.253227925631654E+002	2.4493060E-001	-2.7038385E+002
3	0	8.258227925505344E+002	2.4458709E-001	-2.7036972E+002
3	0	8.263227925379033E+002	2.4424788E-001	-2.7039093E+002
3	0	8.268227925252722E+002	2.4390453E-001	-2.7036618E+002
3	0	8.273227925126412E+002	2.4356054E-001	-2.7036972E+002
3	0	8.278227925000101E+002	2.4321701E-001	-2.7040155E+002
3	0	8.283227924873790E+002	2.4285324E-001	-2.7037326E+002
3	0	8.288227924747480E+002	2.4248284E-001	-2.7039093E+002
3	0	8.293227924621169E+002	2.4215229E-001	-2.7036618E+002
3	0	8.298227924494859E+002	2.4184076E-001	-2.7036972E+002
3	0	8.303227924368548E+002	2.4153380E-001	-2.7037677E+002
3	0	8.308227924242237E+002	2.4122128E-001	-2.7037326E+002
3	0	8.313227924115927E+002	2.4090582E-001	-2.7037326E+002
3	0	8.318227923989616E+002	2.4058700E-001	-2.7037677E+002
3	0	8.323227923863305E+002	2.4025162E-001	-2.7035913E+002
3	0	8.328227923736995E+002	2.3991752E-001	-2.7039447E+002
3	0	8.333227923610684E+002	2.3961996E-001	-2.7039093E+002
3	0	8.338227923484374E+002	2.3933502E-001	-2.7039093E+002
3	0	8.343227923358063E+002	2.3905458E-001	-2.7037677E+002
3	0	8.348227923231752E+002	2.3876935E-001	-2.7039801E+002
3	0	8.353227923105442E+002	2.3848882E-001	-2.7035913E+002
3	0	8.358227922979131E+002	2.3819675E-001	-2.7036972E+002
3	0	8.363227922852820E+002	2.3789036E-001	-2.7038385E+002
3	0	8.368227922726510E+002	2.3757742E-001	-2.7038031E+002
3	0	8.373227922600199E+002	2.3730123E-001	-2.7036267E+002
3	0	8.378227922473889E+002	2.3704198E-001	-2.7039447E+002
3	0	8.383227922347578E+002	2.3678322E-001	-2.7035559E+002
3	0	8.388227922221267E+002	2.3652402E-001	-2.7036618E+002
3	0	8.393227922094957E+002	2.3626570E-001	-2.7035913E+002
3	0	8.398227921968646E+002	2.3599547E-001	-2.7036972E+002
3	0	8.403227921842335E+002	2.3571512E-001	-2.7038031E+002
3	0	8.408227921716025E+002	2.3543251E-001	-2.7036267E+002
3	0	8.413227921589714E+002	2.3518160E-001	-2.7036972E+002
3	0	8.418227921463404E+002	2.3494710E-001	-2.7038385E+002
3	0	8.423227921337093E+002	2.3470902E-001	-2.7039093E+002
3	0	8.428227921210782E+002	2.3446940E-001	-2.7038031E+002
3	0	8.433227921084472E+002	2.3423776E-001	-2.7038031E+002
3	0	8.438227920958161E+002	2.3399274E-001	-2.7035913E+002
3	0	8.443227920831851E+002	2.3372360E-001	-2.7038385E+002
3	0	8.443473920825636E+002	2.3357539E-001	-2.7036618E+002