EC-Lab ASCII FILE
Nb header lines : 55                          

Open Circuit Voltage

Run on channel : 1 (SN 81504)
User : 
CE vs. WE compliance from -10 V to 10 V
Electrode connection : standard
Potential control : Ewe
Ewe ctrl range : min = -2.50 V, max = 2.50 V
Safety Limits :
	Do not start on E overload
Acquisition started on : 05/07/2026 17:16:31.252
Loaded Setting File :  C:\PEM-WE_measurements\2026\372_IV_IV IrOx, 5 min Pt, 30 min C, etched cathode\new station\Loopeis new\1,46 V different time gaps open cell\Loopeis 1,46V_60s_3_PEIS from 6500Hz to 1000Hz.mps
Saved on :
	File : L_13_Loopeis 1,46V_60s_3_PEIS from 6500Hz to 1000Hz_18_OCV_C01.mpr
	Directory : C:\PEM-WE_measurements\2026\372_IV_IV IrOx, 5 min Pt, 30 min C, etched cathode\new station\Loopeis new\1,46 V different time gaps open cell\
	Host : 192.168.0.2
Device : SP-150e (SN .005491)
Address : 192.168.0.91
EC-LAB for windows v11.71 (software)
Internet server v28.00 (firmware)
Command interpretor v14.01 (firmware)
Electrode material : 
Initial state : 
Electrolyte : 
Comments : 
Current amplifier : SP-150eB-20A
Electrode surface area : 0.001 cm²
Characteristic mass : 0.001 g
Equivalent Weight : 0.000 g/eq.
Density : 0.000 g/cm3
Volume (V) : 0.001 cm³
Record Analogic IN 1
Text export
   Mode : Standard
   Time format : Elapsed
Cycle Definition : Charge/Discharge alternance
External device configuration :
   device type : Temperature Probe
   device name : Other
   Analog IN 1 : 
      unit : T/Â°C
      max : 100.000 at 2.000 V
      min : 0.000 at 1.460 V
tR (h:m:s)          0:01:0.0000         
dER/dt (mV/h)       1.0                 
record              <Ewe>               
dER (mV)            10.00               
dtR (s)             0.5000              
E range min (V)     -2.500              
E range max (V)     2.500               

mode	error	time/s	<Ewe/V>	Analog IN 1/V	
3	0	8.898479909331218E+002	1.2765776E+000	-2.7040506E+002
3	0	8.903479909204907E+002	1.2713534E+000	-2.7037677E+002
3	0	8.908479909078596E+002	1.2368270E+000	-2.7039801E+002
3	0	8.913479908952286E+002	1.1677581E+000	-2.7034143E+002
3	0	8.918479908825975E+002	9.7346467E-001	-2.7040155E+002
3	0	8.923479908699665E+002	5.1434284E-001	-2.7036972E+002
3	0	8.928479908573354E+002	3.6048600E-001	-2.7036972E+002
3	0	8.933479908447043E+002	3.3843705E-001	-2.7037326E+002
3	0	8.938479908320733E+002	3.2930493E-001	-2.7038385E+002
3	0	8.943479908194422E+002	3.2200155E-001	-2.7038385E+002
3	0	8.948479908068111E+002	3.1643423E-001	-2.7036267E+002
3	0	8.953479907941801E+002	3.1218570E-001	-2.7038031E+002
3	0	8.958479907815490E+002	3.0886382E-001	-2.7038385E+002
3	0	8.963479907689180E+002	3.0618706E-001	-2.7038385E+002
3	0	8.968479907562869E+002	3.0397284E-001	-2.7038385E+002
3	0	8.973479907436558E+002	3.0214572E-001	-2.7038742E+002
3	0	8.978479907310248E+002	3.0058292E-001	-2.7037677E+002
3	0	8.983479907183937E+002	2.9922104E-001	-2.7039093E+002
3	0	8.988479907057626E+002	2.9800656E-001	-2.7037677E+002
3	0	8.993479906931316E+002	2.9690114E-001	-2.7036267E+002
3	0	8.998479906805005E+002	2.9588637E-001	-2.7037677E+002
3	0	9.003479906678695E+002	2.9492438E-001	-2.7037677E+002
3	0	9.008479906552384E+002	2.9401293E-001	-2.7038742E+002
3	0	9.013479906426073E+002	2.9319748E-001	-2.7038385E+002
3	0	9.018479906299763E+002	2.9243162E-001	-2.7037677E+002
3	0	9.023479906173452E+002	2.9169345E-001	-2.7038385E+002
3	0	9.028479906047141E+002	2.9097909E-001	-2.7037677E+002
3	0	9.033479905920831E+002	2.9028791E-001	-2.7036972E+002
3	0	9.038479905794520E+002	2.8961328E-001	-2.7035913E+002
3	0	9.043479905668210E+002	2.8893813E-001	-2.7037326E+002
3	0	9.048479905541899E+002	2.8827229E-001	-2.7039093E+002
3	0	9.053479905415588E+002	2.8764379E-001	-2.7036618E+002
3	0	9.058479905289278E+002	2.8703606E-001	-2.7038031E+002
3	0	9.063479905162967E+002	2.8643754E-001	-2.7039447E+002
3	0	9.068479905036656E+002	2.8584805E-001	-2.7037677E+002
3	0	9.073479904910346E+002	2.8526565E-001	-2.7038031E+002
3	0	9.078479904784035E+002	2.8468266E-001	-2.7040506E+002
3	0	9.083479904657725E+002	2.8409299E-001	-2.7041214E+002
3	0	9.088479904531414E+002	2.8349400E-001	-2.7037677E+002
3	0	9.093479904405103E+002	2.8293782E-001	-2.7037677E+002
3	0	9.098479904278793E+002	2.8240114E-001	-2.7038031E+002
3	0	9.103479904152482E+002	2.8186482E-001	-2.7037677E+002
3	0	9.108479904026171E+002	2.8132877E-001	-2.7039447E+002
3	0	9.113479903899861E+002	2.8079957E-001	-2.7038742E+002
3	0	9.118479903773550E+002	2.8026623E-001	-2.7038385E+002
3	0	9.123479903647240E+002	2.7971986E-001	-2.7039447E+002
3	0	9.128479903520929E+002	2.7917507E-001	-2.7037677E+002
3	0	9.133479903394618E+002	2.7866352E-001	-2.7037677E+002
3	0	9.138479903268308E+002	2.7817318E-001	-2.7038742E+002
3	0	9.143479903141997E+002	2.7768087E-001	-2.7038385E+002
3	0	9.148479903015686E+002	2.7718970E-001	-2.7038385E+002
3	0	9.153479902889376E+002	2.7670380E-001	-2.7036972E+002
3	0	9.158479902763065E+002	2.7620956E-001	-2.7040155E+002
3	0	9.163479902636755E+002	2.7570018E-001	-2.7037677E+002
3	0	9.168479902510444E+002	2.7518877E-001	-2.7040155E+002
3	0	9.173479902384133E+002	2.7472380E-001	-2.7039093E+002
3	0	9.178479902257823E+002	2.7427292E-001	-2.7038031E+002
3	0	9.183479902131512E+002	2.7381912E-001	-2.7038031E+002
3	0	9.188479902005201E+002	2.7336159E-001	-2.7039801E+002
3	0	9.193479901878891E+002	2.7290776E-001	-2.7037677E+002
3	0	9.198479901752580E+002	2.7245381E-001	-2.7036618E+002
3	0	9.203479901626270E+002	2.7197990E-001	-2.7036267E+002
3	0	9.208479901499959E+002	2.7150452E-001	-2.7036618E+002
3	0	9.213479901373648E+002	2.7106199E-001	-2.7038031E+002
3	0	9.218479901247338E+002	2.7064401E-001	-2.7037326E+002
3	0	9.223479901121027E+002	2.7021366E-001	-2.7038031E+002
3	0	9.228479900994716E+002	2.6979178E-001	-2.7036618E+002
3	0	9.233479900868406E+002	2.6937279E-001	-2.7038742E+002
3	0	9.238479900742095E+002	2.6894853E-001	-2.7039093E+002
3	0	9.243479900615785E+002	2.6849952E-001	-2.7035913E+002
3	0	9.248479900489474E+002	2.6805878E-001	-2.7038385E+002
3	0	9.253479900363163E+002	2.6765603E-001	-2.7035559E+002
3	0	9.258479900236853E+002	2.6726127E-001	-2.7038031E+002
3	0	9.263479900110542E+002	2.6687309E-001	-2.7039093E+002
3	0	9.268479899984231E+002	2.6648208E-001	-2.7035913E+002
3	0	9.273479899857921E+002	2.6608801E-001	-2.7038385E+002
3	0	9.278479899731610E+002	2.6569250E-001	-2.7037326E+002
3	0	9.283479899605300E+002	2.6527262E-001	-2.7038031E+002
3	0	9.288479899478989E+002	2.6485485E-001	-2.7039093E+002
3	0	9.293479899352678E+002	2.6448667E-001	-2.7038742E+002
3	0	9.298479899226368E+002	2.6412222E-001	-2.7038742E+002
3	0	9.303479899100057E+002	2.6376361E-001	-2.7038385E+002
3	0	9.308479898973746E+002	2.6340339E-001	-2.7038385E+002
3	0	9.313479898847436E+002	2.6304439E-001	-2.7038742E+002
3	0	9.318479898721125E+002	2.6267663E-001	-2.7038385E+002
3	0	9.323479898594815E+002	2.6230082E-001	-2.7035913E+002
3	0	9.328479898468504E+002	2.6191580E-001	-2.7040155E+002
3	0	9.333479898342193E+002	2.6157132E-001	-2.7038385E+002
3	0	9.338479898215883E+002	2.6124078E-001	-2.7038031E+002
3	0	9.343479898089572E+002	2.6090914E-001	-2.7039093E+002
3	0	9.348479897963261E+002	2.6058400E-001	-2.7037326E+002
3	0	9.353479897836951E+002	2.6025054E-001	-2.7041214E+002
3	0	9.358479897710640E+002	2.5991690E-001	-2.7040506E+002
3	0	9.363479897584330E+002	2.5956869E-001	-2.7036267E+002
3	0	9.368479897458019E+002	2.5921690E-001	-2.7037677E+002
3	0	9.373479897331708E+002	2.5890493E-001	-2.7038031E+002
3	0	9.378479897205398E+002	2.5860396E-001	-2.7039447E+002
3	0	9.383479897079087E+002	2.5830391E-001	-2.7038031E+002
3	0	9.388479896952776E+002	2.5800052E-001	-2.7038031E+002
3	0	9.393479896826466E+002	2.5769898E-001	-2.7037326E+002
3	0	9.398479896700155E+002	2.5739169E-001	-2.7035913E+002
3	0	9.403479896573845E+002	2.5705943E-001	-2.7036972E+002
3	0	9.408479896447534E+002	2.5673655E-001	-2.7038031E+002
3	0	9.413479896321223E+002	2.5644690E-001	-2.7039447E+002
3	0	9.418479896194913E+002	2.5617266E-001	-2.7038742E+002
3	0	9.423479896068602E+002	2.5589558E-001	-2.7038385E+002
3	0	9.428479895942291E+002	2.5561503E-001	-2.7037677E+002
3	0	9.433479895815981E+002	2.5534314E-001	-2.7036618E+002
3	0	9.438479895689670E+002	2.5506192E-001	-2.7036267E+002
3	0	9.443479895563360E+002	2.5476795E-001	-2.7038031E+002
3	0	9.448479895437049E+002	2.5446126E-001	-2.7037677E+002
3	0	9.453479895310738E+002	2.5420615E-001	-2.7038031E+002
3	0	9.458479895184428E+002	2.5395459E-001	-2.7038031E+002
3	0	9.463479895058117E+002	2.5370240E-001	-2.7038031E+002
3	0	9.468479894931806E+002	2.5345588E-001	-2.7038385E+002
3	0	9.473479894805496E+002	2.5320122E-001	-2.7038385E+002
3	0	9.478479894679185E+002	2.5294498E-001	-2.7037677E+002
3	0	9.483479894552875E+002	2.5266746E-001	-2.7038031E+002
3	0	9.488479894426564E+002	2.5238222E-001	-2.7037326E+002
3	0	9.493479894300253E+002	2.5214320E-001	-2.7039447E+002
3	0	9.493483894300152E+002	2.5206742E-001	-2.7039093E+002