EC-Lab ASCII FILE
Nb header lines : 55                          

Open Circuit Voltage

Run on channel : 1 (SN 81504)
User : 
CE vs. WE compliance from -10 V to 10 V
Electrode connection : standard
Potential control : Ewe
Ewe ctrl range : min = -2.50 V, max = 2.50 V
Safety Limits :
	Do not start on E overload
Acquisition started on : 05/07/2026 17:34:11.611
Loaded Setting File :  C:\PEM-WE_measurements\2026\372_IV_IV IrOx, 5 min Pt, 30 min C, etched cathode\new station\Loopeis new\1,46 V different time gaps open cell\Loopeis 1,46V_60s_4_PEIS from 650Hz to 100Hz.mps
Saved on :
	File : L_14_Loopeis 1,46V_60s_4_PEIS from 650Hz to 100Hz_20_OCV_C01.mpr
	Directory : C:\PEM-WE_measurements\2026\372_IV_IV IrOx, 5 min Pt, 30 min C, etched cathode\new station\Loopeis new\1,46 V different time gaps open cell\
	Host : 192.168.0.2
Device : SP-150e (SN .005491)
Address : 192.168.0.91
EC-LAB for windows v11.71 (software)
Internet server v28.00 (firmware)
Command interpretor v14.01 (firmware)
Electrode material : 
Initial state : 
Electrolyte : 
Comments : 
Current amplifier : SP-150eB-20A
Electrode surface area : 0.001 cm²
Characteristic mass : 0.001 g
Equivalent Weight : 0.000 g/eq.
Density : 0.000 g/cm3
Volume (V) : 0.001 cm³
Record Analogic IN 1
Text export
   Mode : Standard
   Time format : Elapsed
Cycle Definition : Charge/Discharge alternance
External device configuration :
   device type : Temperature Probe
   device name : Other
   Analog IN 1 : 
      unit : T/Â°C
      max : 100.000 at 2.000 V
      min : 0.000 at 1.460 V
tR (h:m:s)          0:01:0.0000         
dER/dt (mV/h)       1.0                 
record              <Ewe>               
dER (mV)            10.00               
dtR (s)             0.5000              
E range min (V)     -2.500              
E range max (V)     2.500               

mode	error	time/s	<Ewe/V>	Analog IN 1/V	
3	0	9.984885917294014E+002	1.0676049E+000	-2.7039093E+002
3	0	9.989885917167703E+002	1.2230368E+000	-2.7038385E+002
3	0	9.994885917041393E+002	1.1862671E+000	-2.7037677E+002
3	0	9.999885916915082E+002	1.1097618E+000	-2.7038031E+002
3	0	1.000488591678877E+003	8.6919910E-001	-2.7038385E+002
3	0	1.000988591666246E+003	4.4582605E-001	-2.7039801E+002
3	0	1.001488591653615E+003	3.2501394E-001	-2.7040155E+002
3	0	1.001988591640984E+003	3.1019419E-001	-2.7038031E+002
3	0	1.002488591628353E+003	3.0255747E-001	-2.7038385E+002
3	0	1.002988591615722E+003	2.9618150E-001	-2.7037677E+002
3	0	1.003488591603091E+003	2.9118976E-001	-2.7037326E+002
3	0	1.003988591590460E+003	2.8731880E-001	-2.7038031E+002
3	0	1.004488591577829E+003	2.8427902E-001	-2.7039093E+002
3	0	1.004988591565198E+003	2.8185651E-001	-2.7035559E+002
3	0	1.005488591552567E+003	2.7986792E-001	-2.7038742E+002
3	0	1.005988591539935E+003	2.7820408E-001	-2.7035913E+002
3	0	1.006488591527304E+003	2.7677810E-001	-2.7037326E+002
3	0	1.006988591514673E+003	2.7552426E-001	-2.7036972E+002
3	0	1.007488591502042E+003	2.7440423E-001	-2.7040155E+002
3	0	1.007988591489411E+003	2.7337658E-001	-2.7038385E+002
3	0	1.008488591476780E+003	2.7245530E-001	-2.7036972E+002
3	0	1.008988591464149E+003	2.7161205E-001	-2.7036267E+002
3	0	1.009488591451518E+003	2.7082294E-001	-2.7039093E+002
3	0	1.009988591438887E+003	2.7008304E-001	-2.7039801E+002
3	0	1.010488591426256E+003	2.6939091E-001	-2.7038031E+002
3	0	1.010988591413625E+003	2.6871079E-001	-2.7036267E+002
3	0	1.011488591400994E+003	2.6804677E-001	-2.7038031E+002
3	0	1.011988591388363E+003	2.6738426E-001	-2.7039447E+002
3	0	1.012488591375732E+003	2.6675996E-001	-2.7035205E+002
3	0	1.012988591363101E+003	2.6616451E-001	-2.7035913E+002
3	0	1.013488591350470E+003	2.6558319E-001	-2.7038031E+002
3	0	1.013988591337838E+003	2.6500645E-001	-2.7039447E+002
3	0	1.014488591325207E+003	2.6445130E-001	-2.7039447E+002
3	0	1.014988591312576E+003	2.6387098E-001	-2.7039801E+002
3	0	1.015488591299945E+003	2.6329723E-001	-2.7034851E+002
3	0	1.015988591287314E+003	2.6273575E-001	-2.7039093E+002
3	0	1.016488591274683E+003	2.6220185E-001	-2.7037677E+002
3	0	1.016988591262052E+003	2.6170143E-001	-2.7038031E+002
3	0	1.017488591249421E+003	2.6119274E-001	-2.7038385E+002
3	0	1.017988591236790E+003	2.6068178E-001	-2.7039093E+002
3	0	1.018488591224159E+003	2.6017210E-001	-2.7036267E+002
3	0	1.018988591211528E+003	2.5966766E-001	-2.7035913E+002
3	0	1.019488591198897E+003	2.5915268E-001	-2.7038031E+002
3	0	1.019988591186266E+003	2.5862148E-001	-2.7038385E+002
3	0	1.020488591173635E+003	2.5811857E-001	-2.7036972E+002
3	0	1.020988591161004E+003	2.5764596E-001	-2.7039093E+002
3	0	1.021488591148373E+003	2.5716460E-001	-2.7036618E+002
3	0	1.021988591135741E+003	2.5668526E-001	-2.7039447E+002
3	0	1.022488591123110E+003	2.5621408E-001	-2.7039093E+002
3	0	1.022988591110479E+003	2.5573578E-001	-2.7038385E+002
3	0	1.023488591097848E+003	2.5525084E-001	-2.7038031E+002
3	0	1.023988591085217E+003	2.5475469E-001	-2.7040155E+002
3	0	1.024488591072586E+003	2.5428906E-001	-2.7037677E+002
3	0	1.024988591059955E+003	2.5384134E-001	-2.7039093E+002
3	0	1.025488591047324E+003	2.5339225E-001	-2.7038031E+002
3	0	1.025988591034693E+003	2.5295490E-001	-2.7038385E+002
3	0	1.026488591022062E+003	2.5250953E-001	-2.7039093E+002
3	0	1.026988591009431E+003	2.5206637E-001	-2.7038385E+002
3	0	1.027488590996800E+003	2.5159955E-001	-2.7038031E+002
3	0	1.027988590984169E+003	2.5113064E-001	-2.7037677E+002
3	0	1.028488590971538E+003	2.5068665E-001	-2.7038742E+002
3	0	1.028988590958907E+003	2.5026998E-001	-2.7039093E+002
3	0	1.029488590946276E+003	2.4986051E-001	-2.7039801E+002
3	0	1.029988590933644E+003	2.4944776E-001	-2.7038742E+002
3	0	1.030488590921013E+003	2.4903183E-001	-2.7039447E+002
3	0	1.030988590908382E+003	2.4861965E-001	-2.7038385E+002
3	0	1.031488590895751E+003	2.4818954E-001	-2.7036972E+002
3	0	1.031988590883120E+003	2.4774504E-001	-2.7037326E+002
3	0	1.032488590870489E+003	2.4733494E-001	-2.7036618E+002
3	0	1.032988590857858E+003	2.4694642E-001	-2.7039093E+002
3	0	1.033488590845227E+003	2.4656007E-001	-2.7039447E+002
3	0	1.033988590832596E+003	2.4616922E-001	-2.7038385E+002
3	0	1.034488590819965E+003	2.4578997E-001	-2.7037677E+002
3	0	1.034988590807334E+003	2.4540396E-001	-2.7038031E+002
3	0	1.035488590794703E+003	2.4499744E-001	-2.7036972E+002
3	0	1.035988590782072E+003	2.4457340E-001	-2.7038031E+002
3	0	1.036488590769441E+003	2.4418956E-001	-2.7035205E+002
3	0	1.036988590756810E+003	2.4383199E-001	-2.7038031E+002
3	0	1.037488590744179E+003	2.4347143E-001	-2.7035913E+002
3	0	1.037988590731547E+003	2.4311380E-001	-2.7039093E+002
3	0	1.038488590718916E+003	2.4275859E-001	-2.7036972E+002
3	0	1.038988590706285E+003	2.4239521E-001	-2.7038031E+002
3	0	1.039488590693654E+003	2.4201894E-001	-2.7037677E+002
3	0	1.039988590681023E+003	2.4163006E-001	-2.7036972E+002
3	0	1.040488590668392E+003	2.4127410E-001	-2.7037677E+002
3	0	1.040988590655761E+003	2.4094681E-001	-2.7039447E+002
3	0	1.041488590643130E+003	2.4062377E-001	-2.7038031E+002
3	0	1.041988590630499E+003	2.4029686E-001	-2.7040155E+002
3	0	1.042488590617868E+003	2.3997208E-001	-2.7038031E+002
3	0	1.042988590605237E+003	2.3964760E-001	-2.7038031E+002
3	0	1.043488590592606E+003	2.3928785E-001	-2.7036618E+002
3	0	1.043988590579975E+003	2.3893319E-001	-2.7039801E+002
3	0	1.044488590567344E+003	2.3860660E-001	-2.7037326E+002
3	0	1.044988590554713E+003	2.3830865E-001	-2.7040506E+002
3	0	1.045488590542082E+003	2.3800223E-001	-2.7036618E+002
3	0	1.045988590529450E+003	2.3770590E-001	-2.7042981E+002
3	0	1.046488590516819E+003	2.3740390E-001	-2.7039801E+002
3	0	1.046988590504188E+003	2.3710558E-001	-2.7036618E+002
3	0	1.047488590491557E+003	2.3678802E-001	-2.7038742E+002
3	0	1.047988590478926E+003	2.3645304E-001	-2.7034851E+002
3	0	1.048488590466295E+003	2.3615228E-001	-2.7035559E+002
3	0	1.048988590453664E+003	2.3587570E-001	-2.7036972E+002
3	0	1.049488590441033E+003	2.3560658E-001	-2.7039447E+002
3	0	1.049988590428402E+003	2.3534049E-001	-2.7038031E+002
3	0	1.050488590415771E+003	2.3506376E-001	-2.7039447E+002
3	0	1.050988590403140E+003	2.3478492E-001	-2.7037677E+002
3	0	1.051488590390509E+003	2.3449124E-001	-2.7038031E+002
3	0	1.051988590377878E+003	2.3419259E-001	-2.7036618E+002
3	0	1.052488590365247E+003	2.3392245E-001	-2.7036972E+002
3	0	1.052988590352616E+003	2.3367487E-001	-2.7037326E+002
3	0	1.053488590339985E+003	2.3342152E-001	-2.7038385E+002
3	0	1.053988590327353E+003	2.3317203E-001	-2.7037677E+002
3	0	1.054488590314722E+003	2.3292443E-001	-2.7038031E+002
3	0	1.054988590302091E+003	2.3267066E-001	-2.7035913E+002
3	0	1.055488590289460E+003	2.3239307E-001	-2.7037677E+002
3	0	1.055988590276829E+003	2.3210673E-001	-2.7038742E+002
3	0	1.056488590264198E+003	2.3184776E-001	-2.7038742E+002
3	0	1.056988590251567E+003	2.3161724E-001	-2.7035205E+002
3	0	1.057488590238936E+003	2.3138817E-001	-2.7038385E+002
3	0	1.057988590226305E+003	2.3115775E-001	-2.7036972E+002
3	0	1.058013190225684E+003	2.3102266E-001	-2.7040860E+002