EC-Lab ASCII FILE
Nb header lines : 55                          

Open Circuit Voltage

Run on channel : 1 (SN 81504)
User : 
CE vs. WE compliance from -10 V to 10 V
Electrode connection : standard
Potential control : Ewe
Ewe ctrl range : min = -2.50 V, max = 2.50 V
Safety Limits :
	Do not start on E overload
Acquisition started on : 05/07/2026 17:34:11.611
Loaded Setting File :  C:\PEM-WE_measurements\2026\372_IV_IV IrOx, 5 min Pt, 30 min C, etched cathode\new station\Loopeis new\1,46 V different time gaps open cell\Loopeis 1,46V_60s_4_PEIS from 650Hz to 100Hz.mps
Saved on :
	File : L_14_Loopeis 1,46V_60s_4_PEIS from 650Hz to 100Hz_04_OCV_C01.mpr
	Directory : C:\PEM-WE_measurements\2026\372_IV_IV IrOx, 5 min Pt, 30 min C, etched cathode\new station\Loopeis new\1,46 V different time gaps open cell\
	Host : 192.168.0.2
Device : SP-150e (SN .005491)
Address : 192.168.0.91
EC-LAB for windows v11.71 (software)
Internet server v28.00 (firmware)
Command interpretor v14.01 (firmware)
Electrode material : 
Initial state : 
Electrolyte : 
Comments : 
Current amplifier : SP-150eB-20A
Electrode surface area : 0.001 cm²
Characteristic mass : 0.001 g
Equivalent Weight : 0.000 g/eq.
Density : 0.000 g/cm3
Volume (V) : 0.001 cm³
Record Analogic IN 1
Text export
   Mode : Standard
   Time format : Elapsed
Cycle Definition : Charge/Discharge alternance
External device configuration :
   device type : Temperature Probe
   device name : Other
   Analog IN 1 : 
      unit : T/Â°C
      max : 100.000 at 2.000 V
      min : 0.000 at 1.460 V
tR (h:m:s)          0:01:0.0000         
dER/dt (mV/h)       1.0                 
record              <Ewe>               
dER (mV)            10.00               
dtR (s)             0.5000              
E range min (V)     -2.500              
E range max (V)     2.500               

mode	error	time/s	<Ewe/V>	Analog IN 1/V	
3	0	1.504435994711821E+002	1.0687259E+000	-2.7038385E+002
3	0	1.509435994585510E+002	1.2243998E+000	-2.7038031E+002
3	0	1.514435994459200E+002	1.1884952E+000	-2.7039447E+002
3	0	1.519435994332889E+002	1.1127329E+000	-2.7039093E+002
3	0	1.524435994206578E+002	8.7894642E-001	-2.7035913E+002
3	0	1.529435994080268E+002	4.5478216E-001	-2.7038742E+002
3	0	1.534435993953957E+002	3.2746121E-001	-2.7037326E+002
3	0	1.539435993827647E+002	3.1140414E-001	-2.7034851E+002
3	0	1.544435993701336E+002	3.0366433E-001	-2.7038031E+002
3	0	1.549435993575025E+002	2.9720026E-001	-2.7038742E+002
3	0	1.554435993448715E+002	2.9213539E-001	-2.7038031E+002
3	0	1.559435993322404E+002	2.8819549E-001	-2.7039093E+002
3	0	1.564435993196093E+002	2.8507531E-001	-2.7037677E+002
3	0	1.569435993069783E+002	2.8257215E-001	-2.7038742E+002
3	0	1.574435992943472E+002	2.8053507E-001	-2.7039447E+002
3	0	1.579435992817162E+002	2.7884850E-001	-2.7039801E+002
3	0	1.584435992690851E+002	2.7738917E-001	-2.7035913E+002
3	0	1.589435992564540E+002	2.7611172E-001	-2.7037326E+002
3	0	1.594435992438230E+002	2.7498642E-001	-2.7038742E+002
3	0	1.599435992311919E+002	2.7396214E-001	-2.7038031E+002
3	0	1.604435992185608E+002	2.7300379E-001	-2.7034497E+002
3	0	1.609435992059298E+002	2.7212089E-001	-2.7038031E+002
3	0	1.614435991932987E+002	2.7132276E-001	-2.7035559E+002
3	0	1.619435991806677E+002	2.7057719E-001	-2.7039447E+002
3	0	1.624435991680366E+002	2.6986766E-001	-2.7038031E+002
3	0	1.629435991554055E+002	2.6918942E-001	-2.7036267E+002
3	0	1.634435991427745E+002	2.6853818E-001	-2.7033789E+002
3	0	1.639435991301434E+002	2.6788574E-001	-2.7039093E+002
3	0	1.644435991175123E+002	2.6723409E-001	-2.7039093E+002
3	0	1.649435991048813E+002	2.6660734E-001	-2.7036267E+002
3	0	1.654435990922502E+002	2.6603085E-001	-2.7038385E+002
3	0	1.659435990796192E+002	2.6546514E-001	-2.7038742E+002
3	0	1.664435990669881E+002	2.6491117E-001	-2.7037677E+002
3	0	1.669435990543570E+002	2.6437238E-001	-2.7036972E+002
3	0	1.674435990417260E+002	2.6383102E-001	-2.7039447E+002
3	0	1.679435990290949E+002	2.6328012E-001	-2.7039093E+002
3	0	1.684435990164639E+002	2.6271173E-001	-2.7039447E+002
3	0	1.689435990038328E+002	2.6215595E-001	-2.7037326E+002
3	0	1.694435989912017E+002	2.6164034E-001	-2.7037677E+002
3	0	1.699435989785707E+002	2.6113033E-001	-2.7037677E+002
3	0	1.704435989659396E+002	2.6062477E-001	-2.7036618E+002
3	0	1.709435989533085E+002	2.6012072E-001	-2.7039801E+002
3	0	1.714435989406775E+002	2.5962275E-001	-2.7038742E+002
3	0	1.719435989280464E+002	2.5911772E-001	-2.7038385E+002
3	0	1.724435989154154E+002	2.5859120E-001	-2.7038031E+002
3	0	1.729435989027843E+002	2.5806889E-001	-2.7037677E+002
3	0	1.734435988901532E+002	2.5759411E-001	-2.7037677E+002
3	0	1.739435988775222E+002	2.5712219E-001	-2.7039447E+002
3	0	1.744435988648911E+002	2.5665343E-001	-2.7037326E+002
3	0	1.749435988522600E+002	2.5618836E-001	-2.7039447E+002
3	0	1.754435988396290E+002	2.5572160E-001	-2.7036618E+002
3	0	1.759435988269979E+002	2.5525129E-001	-2.7038385E+002
3	0	1.764435988143669E+002	2.5476226E-001	-2.7039093E+002
3	0	1.769435988017358E+002	2.5428507E-001	-2.7036972E+002
3	0	1.774435987891047E+002	2.5384220E-001	-2.7035913E+002
3	0	1.779435987764737E+002	2.5340700E-001	-2.7037677E+002
3	0	1.784435987638426E+002	2.5296879E-001	-2.7039447E+002
3	0	1.789435987512115E+002	2.5253218E-001	-2.7039093E+002
3	0	1.794435987385805E+002	2.5210202E-001	-2.7039093E+002
3	0	1.799435987259494E+002	2.5165820E-001	-2.7037326E+002
3	0	1.804435987133184E+002	2.5119689E-001	-2.7038385E+002
3	0	1.809435987006873E+002	2.5074330E-001	-2.7037326E+002
3	0	1.814435986880562E+002	2.5033417E-001	-2.7036267E+002
3	0	1.819435986754252E+002	2.4992278E-001	-2.7036618E+002
3	0	1.824435986627941E+002	2.4951813E-001	-2.7037326E+002
3	0	1.829435986501630E+002	2.4910989E-001	-2.7038385E+002
3	0	1.834435986375320E+002	2.4870782E-001	-2.7037326E+002
3	0	1.839435986249009E+002	2.4829420E-001	-2.7039093E+002
3	0	1.844435986122699E+002	2.4785985E-001	-2.7035559E+002
3	0	1.849435985996388E+002	2.4743757E-001	-2.7039447E+002
3	0	1.854435985870077E+002	2.4704765E-001	-2.7038742E+002
3	0	1.859435985743767E+002	2.4667005E-001	-2.7040155E+002
3	0	1.864435985617456E+002	2.4629213E-001	-2.7035913E+002
3	0	1.869435985491145E+002	2.4591459E-001	-2.7038031E+002
3	0	1.874435985364835E+002	2.4554479E-001	-2.7039093E+002
3	0	1.879435985238524E+002	2.4516097E-001	-2.7038385E+002
3	0	1.884435985112214E+002	2.4475470E-001	-2.7038385E+002
3	0	1.889435984985903E+002	2.4435958E-001	-2.7037326E+002
3	0	1.894435984859592E+002	2.4400008E-001	-2.7036618E+002
3	0	1.899435984733282E+002	2.4365138E-001	-2.7037677E+002
3	0	1.904435984606971E+002	2.4330102E-001	-2.7038385E+002
3	0	1.909435984480660E+002	2.4295314E-001	-2.7038385E+002
3	0	1.914435984354350E+002	2.4259737E-001	-2.7038385E+002
3	0	1.919435984228039E+002	2.4222584E-001	-2.7036972E+002
3	0	1.924435984101729E+002	2.4184717E-001	-2.7037677E+002
3	0	1.929435983975418E+002	2.4148199E-001	-2.7037326E+002
3	0	1.934435983849107E+002	2.4114530E-001	-2.7035559E+002
3	0	1.939435983722797E+002	2.4081579E-001	-2.7038385E+002
3	0	1.944435983596486E+002	2.4048637E-001	-2.7038385E+002
3	0	1.949435983470175E+002	2.4016190E-001	-2.7037326E+002
3	0	1.954435983343865E+002	2.3984559E-001	-2.7038031E+002
3	0	1.959435983217554E+002	2.3951215E-001	-2.7039447E+002
3	0	1.964435983091244E+002	2.3916988E-001	-2.7038385E+002
3	0	1.969435982964933E+002	2.3883809E-001	-2.7038031E+002
3	0	1.974435982838622E+002	2.3854686E-001	-2.7040860E+002
3	0	1.979435982712312E+002	2.3825523E-001	-2.7038031E+002
3	0	1.984435982586001E+002	2.3796241E-001	-2.7039447E+002
3	0	1.989435982459690E+002	2.3766370E-001	-2.7036972E+002
3	0	1.994435982333380E+002	2.3737015E-001	-2.7036618E+002
3	0	1.999435982207069E+002	2.3706515E-001	-2.7037677E+002
3	0	2.004435982080759E+002	2.3674051E-001	-2.7039093E+002
3	0	2.009435981954448E+002	2.3643456E-001	-2.7040506E+002
3	0	2.014435981828137E+002	2.3616314E-001	-2.7036618E+002
3	0	2.019435981701827E+002	2.3589665E-001	-2.7039447E+002
3	0	2.024435981575516E+002	2.3563637E-001	-2.7037677E+002
3	0	2.029435981449205E+002	2.3537885E-001	-2.7035913E+002
3	0	2.034435981322895E+002	2.3511393E-001	-2.7039093E+002
3	0	2.039435981196584E+002	2.3482811E-001	-2.7036618E+002
3	0	2.044435981070274E+002	2.3452972E-001	-2.7036618E+002
3	0	2.049435980943963E+002	2.3425223E-001	-2.7036972E+002
3	0	2.054435980817652E+002	2.3400621E-001	-2.7037677E+002
3	0	2.059435980691342E+002	2.3376027E-001	-2.7036618E+002
3	0	2.064435980565031E+002	2.3351258E-001	-2.7038742E+002
3	0	2.069435980438720E+002	2.3327112E-001	-2.7036972E+002
3	0	2.074435980312410E+002	2.3302908E-001	-2.7035559E+002
3	0	2.079435980186099E+002	2.3277423E-001	-2.7038031E+002
3	0	2.084435980059789E+002	2.3249376E-001	-2.7039801E+002
3	0	2.089435979933478E+002	2.3222706E-001	-2.7038031E+002
3	0	2.094435979807167E+002	2.3200230E-001	-2.7038031E+002
3	0	2.099435979680857E+002	2.3177731E-001	-2.7037326E+002
3	0	2.099669979674945E+002	2.3165300E-001	-2.7039093E+002