EC-Lab ASCII FILE
Nb header lines : 55                          

Open Circuit Voltage

Run on channel : 1 (SN 81504)
User : 
CE vs. WE compliance from -10 V to 10 V
Electrode connection : standard
Potential control : Ewe
Ewe ctrl range : min = -2.50 V, max = 2.50 V
Safety Limits :
	Do not start on E overload
Acquisition started on : 05/07/2026 17:34:11.611
Loaded Setting File :  C:\PEM-WE_measurements\2026\372_IV_IV IrOx, 5 min Pt, 30 min C, etched cathode\new station\Loopeis new\1,46 V different time gaps open cell\Loopeis 1,46V_60s_4_PEIS from 650Hz to 100Hz.mps
Saved on :
	File : L_14_Loopeis 1,46V_60s_4_PEIS from 650Hz to 100Hz_08_OCV_C01.mpr
	Directory : C:\PEM-WE_measurements\2026\372_IV_IV IrOx, 5 min Pt, 30 min C, etched cathode\new station\Loopeis new\1,46 V different time gaps open cell\
	Host : 192.168.0.2
Device : SP-150e (SN .005491)
Address : 192.168.0.91
EC-LAB for windows v11.71 (software)
Internet server v28.00 (firmware)
Command interpretor v14.01 (firmware)
Electrode material : 
Initial state : 
Electrolyte : 
Comments : 
Current amplifier : SP-150eB-20A
Electrode surface area : 0.001 cm²
Characteristic mass : 0.001 g
Equivalent Weight : 0.000 g/eq.
Density : 0.000 g/cm3
Volume (V) : 0.001 cm³
Record Analogic IN 1
Text export
   Mode : Standard
   Time format : Elapsed
Cycle Definition : Charge/Discharge alternance
External device configuration :
   device type : Temperature Probe
   device name : Other
   Analog IN 1 : 
      unit : T/Â°C
      max : 100.000 at 2.000 V
      min : 0.000 at 1.460 V
tR (h:m:s)          0:01:0.0000         
dER/dt (mV/h)       1.0                 
record              <Ewe>               
dER (mV)            10.00               
dtR (s)             0.5000              
E range min (V)     -2.500              
E range max (V)     2.500               

mode	error	time/s	<Ewe/V>	Analog IN 1/V	
3	0	3.604193974390364E+002	1.0692116E+000	-2.7038742E+002
3	0	3.609193974264053E+002	1.2245922E+000	-2.7039447E+002
3	0	3.614193974137743E+002	1.1887374E+000	-2.7036618E+002
3	0	3.619193974011432E+002	1.1125121E+000	-2.7038031E+002
3	0	3.624193973885122E+002	8.7435549E-001	-2.7038031E+002
3	0	3.629193973758811E+002	4.5117033E-001	-2.7039447E+002
3	0	3.634193973632500E+002	3.2677892E-001	-2.7035913E+002
3	0	3.639193973506190E+002	3.1129038E-001	-2.7034497E+002
3	0	3.644193973379879E+002	3.0358270E-001	-2.7037326E+002
3	0	3.649193973253568E+002	2.9713362E-001	-2.7039093E+002
3	0	3.654193973127258E+002	2.9210192E-001	-2.7036972E+002
3	0	3.659193973000947E+002	2.8820363E-001	-2.7040506E+002
3	0	3.664193972874637E+002	2.8513035E-001	-2.7038385E+002
3	0	3.669193972748326E+002	2.8265968E-001	-2.7038031E+002
3	0	3.674193972622015E+002	2.8062746E-001	-2.7036618E+002
3	0	3.679193972495705E+002	2.7890685E-001	-2.7040506E+002
3	0	3.684193972369394E+002	2.7741992E-001	-2.7039447E+002
3	0	3.689193972243083E+002	2.7615353E-001	-2.7038031E+002
3	0	3.694193972116773E+002	2.7504238E-001	-2.7039447E+002
3	0	3.699193971990462E+002	2.7405268E-001	-2.7039093E+002
3	0	3.704193971864152E+002	2.7313229E-001	-2.7037326E+002
3	0	3.709193971737841E+002	2.7228138E-001	-2.7036618E+002
3	0	3.714193971611530E+002	2.7147785E-001	-2.7037326E+002
3	0	3.719193971485220E+002	2.7069905E-001	-2.7040155E+002
3	0	3.724193971358909E+002	2.6994187E-001	-2.7038031E+002
3	0	3.729193971232598E+002	2.6926023E-001	-2.7037677E+002
3	0	3.734193971106288E+002	2.6860568E-001	-2.7039093E+002
3	0	3.739193970979977E+002	2.6797831E-001	-2.7038031E+002
3	0	3.744193970853667E+002	2.6736051E-001	-2.7035913E+002
3	0	3.749193970727356E+002	2.6675823E-001	-2.7039447E+002
3	0	3.754193970601045E+002	2.6616716E-001	-2.7036972E+002
3	0	3.759193970474735E+002	2.6556259E-001	-2.7037326E+002
3	0	3.764193970348424E+002	2.6495555E-001	-2.7037677E+002
3	0	3.769193970222113E+002	2.6440376E-001	-2.7037677E+002
3	0	3.774193970095803E+002	2.6386309E-001	-2.7038031E+002
3	0	3.779193969969492E+002	2.6333553E-001	-2.7038031E+002
3	0	3.784193969843182E+002	2.6280430E-001	-2.7036267E+002
3	0	3.789193969716871E+002	2.6228341E-001	-2.7039093E+002
3	0	3.794193969590560E+002	2.6175395E-001	-2.7038742E+002
3	0	3.799193969464250E+002	2.6121253E-001	-2.7038031E+002
3	0	3.804193969337939E+002	2.6066682E-001	-2.7037677E+002
3	0	3.809193969211628E+002	2.6015761E-001	-2.7035913E+002
3	0	3.814193969085318E+002	2.5967368E-001	-2.7037677E+002
3	0	3.819193968959007E+002	2.5918788E-001	-2.7038385E+002
3	0	3.824193968832697E+002	2.5869995E-001	-2.7037677E+002
3	0	3.829193968706386E+002	2.5821784E-001	-2.7036972E+002
3	0	3.834193968580075E+002	2.5772575E-001	-2.7038385E+002
3	0	3.839193968453765E+002	2.5721866E-001	-2.7037326E+002
3	0	3.844193968327454E+002	2.5670537E-001	-2.7037326E+002
3	0	3.849193968201143E+002	2.5623959E-001	-2.7035913E+002
3	0	3.854193968074833E+002	2.5578028E-001	-2.7037677E+002
3	0	3.859193967948522E+002	2.5532871E-001	-2.7038742E+002
3	0	3.864193967822212E+002	2.5486994E-001	-2.7036972E+002
3	0	3.869193967695901E+002	2.5442097E-001	-2.7037677E+002
3	0	3.874193967569590E+002	2.5396776E-001	-2.7037677E+002
3	0	3.879193967443280E+002	2.5349212E-001	-2.7038385E+002
3	0	3.884193967316969E+002	2.5300831E-001	-2.7036972E+002
3	0	3.889193967190658E+002	2.5256205E-001	-2.7037677E+002
3	0	3.894193967064348E+002	2.5213876E-001	-2.7036267E+002
3	0	3.899193966938037E+002	2.5170854E-001	-2.7037326E+002
3	0	3.904193966811727E+002	2.5128052E-001	-2.7038031E+002
3	0	3.909193966685416E+002	2.5085294E-001	-2.7036618E+002
3	0	3.914193966559105E+002	2.5042409E-001	-2.7038385E+002
3	0	3.919193966432795E+002	2.4996971E-001	-2.7037326E+002
3	0	3.924193966306484E+002	2.4952057E-001	-2.7038031E+002
3	0	3.929193966180173E+002	2.4910714E-001	-2.7038385E+002
3	0	3.934193966053863E+002	2.4870795E-001	-2.7036972E+002
3	0	3.939193965927552E+002	2.4830621E-001	-2.7037326E+002
3	0	3.944193965801242E+002	2.4791183E-001	-2.7039447E+002
3	0	3.949193965674931E+002	2.4750994E-001	-2.7036972E+002
3	0	3.954193965548620E+002	2.4710545E-001	-2.7039093E+002
3	0	3.959193965422310E+002	2.4668866E-001	-2.7035913E+002
3	0	3.964193965295999E+002	2.4626797E-001	-2.7037326E+002
3	0	3.969193965169688E+002	2.4588448E-001	-2.7037326E+002
3	0	3.974193965043378E+002	2.4552289E-001	-2.7035913E+002
3	0	3.979193964917067E+002	2.4516036E-001	-2.7039801E+002
3	0	3.984193964790757E+002	2.4478702E-001	-2.7036618E+002
3	0	3.989193964664446E+002	2.4442062E-001	-2.7038742E+002
3	0	3.994193964538135E+002	2.4404991E-001	-2.7036618E+002
3	0	3.999193964411825E+002	2.4365623E-001	-2.7038742E+002
3	0	4.004193964285514E+002	2.4326821E-001	-2.7039447E+002
3	0	4.009193964159203E+002	2.4291883E-001	-2.7039447E+002
3	0	4.014193964032893E+002	2.4258153E-001	-2.7037326E+002
3	0	4.019193963906582E+002	2.4223958E-001	-2.7036267E+002
3	0	4.024193963780272E+002	2.4190272E-001	-2.7040155E+002
3	0	4.029193963653961E+002	2.4156471E-001	-2.7038385E+002
3	0	4.034193963527650E+002	2.4122427E-001	-2.7038742E+002
3	0	4.039193963401340E+002	2.4086583E-001	-2.7038385E+002
3	0	4.044193963275029E+002	2.4050103E-001	-2.7038742E+002
3	0	4.049193963148718E+002	2.4017806E-001	-2.7036972E+002
3	0	4.054193963022408E+002	2.3987839E-001	-2.7038031E+002
3	0	4.059193962896097E+002	2.3957269E-001	-2.7038742E+002
3	0	4.064193962769787E+002	2.3925968E-001	-2.7037677E+002
3	0	4.069193962643476E+002	2.3895516E-001	-2.7038742E+002
3	0	4.074193962517165E+002	2.3863551E-001	-2.7036618E+002
3	0	4.079193962390855E+002	2.3830016E-001	-2.7036618E+002
3	0	4.084193962264544E+002	2.3796429E-001	-2.7038385E+002
3	0	4.089193962138233E+002	2.3766977E-001	-2.7037677E+002
3	0	4.094193962011923E+002	2.3738295E-001	-2.7037677E+002
3	0	4.099193961885612E+002	2.3709725E-001	-2.7037326E+002
3	0	4.104193961759302E+002	2.3681022E-001	-2.7038031E+002
3	0	4.109193961632991E+002	2.3652743E-001	-2.7040860E+002
3	0	4.114193961506680E+002	2.3623173E-001	-2.7036618E+002
3	0	4.119193961380370E+002	2.3592538E-001	-2.7038031E+002
3	0	4.124193961254059E+002	2.3561239E-001	-2.7036972E+002
3	0	4.129193961127748E+002	2.3534046E-001	-2.7037677E+002
3	0	4.134193961001438E+002	2.3508726E-001	-2.7039447E+002
3	0	4.139193960875127E+002	2.3481913E-001	-2.7037677E+002
3	0	4.144193960748817E+002	2.3456261E-001	-2.7042627E+002
3	0	4.149193960622506E+002	2.3430099E-001	-2.7034143E+002
3	0	4.154193960496195E+002	2.3403811E-001	-2.7038742E+002
3	0	4.159193960369885E+002	2.3375365E-001	-2.7037677E+002
3	0	4.164193960243574E+002	2.3346171E-001	-2.7039447E+002
3	0	4.169193960117263E+002	2.3321676E-001	-2.7038031E+002
3	0	4.174193959990953E+002	2.3298900E-001	-2.7038742E+002
3	0	4.179193959864642E+002	2.3275626E-001	-2.7035913E+002
3	0	4.184193959738332E+002	2.3251933E-001	-2.7039447E+002
3	0	4.189193959612021E+002	2.3228763E-001	-2.7034497E+002
3	0	4.194193959485710E+002	2.3204671E-001	-2.7036267E+002
3	0	4.199193959359400E+002	2.3178810E-001	-2.7038385E+002
3	0	4.199427959353488E+002	2.3162560E-001	-2.7039093E+002