EC-Lab ASCII FILE
Nb header lines : 55                          

Open Circuit Voltage

Run on channel : 1 (SN 81504)
User : 
CE vs. WE compliance from -10 V to 10 V
Electrode connection : standard
Potential control : Ewe
Ewe ctrl range : min = -2.50 V, max = 2.50 V
Safety Limits :
	Do not start on E overload
Acquisition started on : 05/07/2026 17:34:11.611
Loaded Setting File :  C:\PEM-WE_measurements\2026\372_IV_IV IrOx, 5 min Pt, 30 min C, etched cathode\new station\Loopeis new\1,46 V different time gaps open cell\Loopeis 1,46V_60s_4_PEIS from 650Hz to 100Hz.mps
Saved on :
	File : L_14_Loopeis 1,46V_60s_4_PEIS from 650Hz to 100Hz_02_OCV_C01.mpr
	Directory : C:\PEM-WE_measurements\2026\372_IV_IV IrOx, 5 min Pt, 30 min C, etched cathode\new station\Loopeis new\1,46 V different time gaps open cell\
	Host : 192.168.0.2
Device : SP-150e (SN .005491)
Address : 192.168.0.91
EC-LAB for windows v11.71 (software)
Internet server v28.00 (firmware)
Command interpretor v14.01 (firmware)
Electrode material : 
Initial state : 
Electrolyte : 
Comments : 
Current amplifier : SP-150eB-20A
Electrode surface area : 0.001 cm²
Characteristic mass : 0.001 g
Equivalent Weight : 0.000 g/eq.
Density : 0.000 g/cm3
Volume (V) : 0.001 cm³
Record Analogic IN 1
Text export
   Mode : Standard
   Time format : Elapsed
Cycle Definition : Charge/Discharge alternance
External device configuration :
   device type : Temperature Probe
   device name : Other
   Analog IN 1 : 
      unit : T/Â°C
      max : 100.000 at 2.000 V
      min : 0.000 at 1.460 V
tR (h:m:s)          0:01:0.0000         
dER/dt (mV/h)       1.0                 
record              <Ewe>               
dER (mV)            10.00               
dtR (s)             0.5000              
E range min (V)     -2.500              
E range max (V)     2.500               

mode	error	time/s	<Ewe/V>	Analog IN 1/V	
3	0	4.549979885057837E+001	1.2765155E+000	-2.7036267E+002
3	0	4.599979883794731E+001	1.2711014E+000	-2.7037677E+002
3	0	4.649979882531625E+001	1.2361436E+000	-2.7038385E+002
3	0	4.699979881268519E+001	1.1659777E+000	-2.7040155E+002
3	0	4.749979880005412E+001	9.6571207E-001	-2.7038742E+002
3	0	4.799979878742306E+001	5.0846177E-001	-2.7039447E+002
3	0	4.849979877479200E+001	3.5870814E-001	-2.7038385E+002
3	0	4.899979876216094E+001	3.3738223E-001	-2.7038031E+002
3	0	4.949979874952987E+001	3.2838315E-001	-2.7040860E+002
3	0	4.999979873689881E+001	3.2117081E-001	-2.7036267E+002
3	0	5.049979872426775E+001	3.1566161E-001	-2.7035205E+002
3	0	5.099979871163669E+001	3.1145647E-001	-2.7038742E+002
3	0	5.149979869900562E+001	3.0816528E-001	-2.7036972E+002
3	0	5.199979868637456E+001	3.0552107E-001	-2.7038742E+002
3	0	5.249979867374350E+001	3.0333370E-001	-2.7039093E+002
3	0	5.299979866111244E+001	3.0147383E-001	-2.7037677E+002
3	0	5.349979864848137E+001	2.9989755E-001	-2.7035913E+002
3	0	5.399979863585031E+001	2.9854274E-001	-2.7038742E+002
3	0	5.449979862321925E+001	2.9733634E-001	-2.7039093E+002
3	0	5.499979861058819E+001	2.9625013E-001	-2.7039447E+002
3	0	5.549979859795712E+001	2.9524854E-001	-2.7039447E+002
3	0	5.599979858532606E+001	2.9432097E-001	-2.7038742E+002
3	0	5.649979857269500E+001	2.9342818E-001	-2.7038031E+002
3	0	5.699979856006394E+001	2.9257593E-001	-2.7036618E+002
3	0	5.749979854743287E+001	2.9178500E-001	-2.7038031E+002
3	0	5.799979853480181E+001	2.9104879E-001	-2.7037326E+002
3	0	5.849979852217075E+001	2.9034695E-001	-2.7036618E+002
3	0	5.899979850953969E+001	2.8966561E-001	-2.7035559E+002
3	0	5.949979849690862E+001	2.8899959E-001	-2.7036618E+002
3	0	5.999979848427756E+001	2.8835249E-001	-2.7038742E+002
3	0	6.049979847164650E+001	2.8768766E-001	-2.7037326E+002
3	0	6.099979845901544E+001	2.8702340E-001	-2.7036618E+002
3	0	6.149979844638438E+001	2.8639743E-001	-2.7036267E+002
3	0	6.199979843375331E+001	2.8580880E-001	-2.7037326E+002
3	0	6.249979842112225E+001	2.8522587E-001	-2.7037677E+002
3	0	6.299979840849119E+001	2.8464678E-001	-2.7039093E+002
3	0	6.349979839586013E+001	2.8408524E-001	-2.7036972E+002
3	0	6.399979838322906E+001	2.8351697E-001	-2.7039447E+002
3	0	6.449979837059800E+001	2.8293499E-001	-2.7037677E+002
3	0	6.499979835796694E+001	2.8234589E-001	-2.7038031E+002
3	0	6.549979834533588E+001	2.8178972E-001	-2.7036972E+002
3	0	6.599979833270481E+001	2.8125709E-001	-2.7037326E+002
3	0	6.649979832007375E+001	2.8073156E-001	-2.7039093E+002
3	0	6.699979830744269E+001	2.8020421E-001	-2.7035559E+002
3	0	6.749979829481163E+001	2.7968869E-001	-2.7038385E+002
3	0	6.799979828218056E+001	2.7917174E-001	-2.7038742E+002
3	0	6.849979826954950E+001	2.7863398E-001	-2.7037326E+002
3	0	6.899979825691844E+001	2.7808911E-001	-2.7039801E+002
3	0	6.949979824428738E+001	2.7756760E-001	-2.7036972E+002
3	0	6.999979823165631E+001	2.7707952E-001	-2.7036618E+002
3	0	7.049979821902525E+001	2.7659708E-001	-2.7037677E+002
3	0	7.099979820639419E+001	2.7610767E-001	-2.7038385E+002
3	0	7.149979819376313E+001	2.7562681E-001	-2.7036618E+002
3	0	7.199979818113206E+001	2.7513948E-001	-2.7038385E+002
3	0	7.249979816850100E+001	2.7464154E-001	-2.7037326E+002
3	0	7.299979815586994E+001	2.7413672E-001	-2.7039447E+002
3	0	7.349979814323888E+001	2.7365527E-001	-2.7038385E+002
3	0	7.399979813060781E+001	2.7320021E-001	-2.7038031E+002
3	0	7.449979811797675E+001	2.7274767E-001	-2.7036618E+002
3	0	7.499979810534569E+001	2.7230141E-001	-2.7036618E+002
3	0	7.549979809271463E+001	2.7186054E-001	-2.7037677E+002
3	0	7.599979808008356E+001	2.7140430E-001	-2.7039447E+002
3	0	7.649979806745250E+001	2.7093765E-001	-2.7036618E+002
3	0	7.699979805482144E+001	2.7045795E-001	-2.7037326E+002
3	0	7.749979804219038E+001	2.7001414E-001	-2.7038742E+002
3	0	7.799979802955932E+001	2.6960465E-001	-2.7037326E+002
3	0	7.849979801692825E+001	2.6919001E-001	-2.7036618E+002
3	0	7.899979800429719E+001	2.6876813E-001	-2.7039447E+002
3	0	7.949979799166613E+001	2.6835480E-001	-2.7037326E+002
3	0	7.999979797903507E+001	2.6793230E-001	-2.7039801E+002
3	0	8.049979796640400E+001	2.6749596E-001	-2.7038385E+002
3	0	8.099979795377294E+001	2.6705214E-001	-2.7039801E+002
3	0	8.149979794114188E+001	2.6663554E-001	-2.7038385E+002
3	0	8.199979792851082E+001	2.6625162E-001	-2.7040860E+002
3	0	8.249979791587975E+001	2.6587158E-001	-2.7038742E+002
3	0	8.299979790324869E+001	2.6547962E-001	-2.7037326E+002
3	0	8.349979789061763E+001	2.6509371E-001	-2.7038031E+002
3	0	8.399979787798657E+001	2.6471239E-001	-2.7039093E+002
3	0	8.449979786535550E+001	2.6430854E-001	-2.7037326E+002
3	0	8.499979785272444E+001	2.6389545E-001	-2.7038742E+002
3	0	8.549979784009338E+001	2.6351729E-001	-2.7037677E+002
3	0	8.599979782746232E+001	2.6316437E-001	-2.7036972E+002
3	0	8.649979781483125E+001	2.6280075E-001	-2.7035913E+002
3	0	8.699979780220019E+001	2.6244599E-001	-2.7041214E+002
3	0	8.749979778956913E+001	2.6209173E-001	-2.7038742E+002
3	0	8.799979777693807E+001	2.6172665E-001	-2.7038742E+002
3	0	8.849979776430700E+001	2.6134700E-001	-2.7037326E+002
3	0	8.899979775167594E+001	2.6095483E-001	-2.7038385E+002
3	0	8.949979773904488E+001	2.6060182E-001	-2.7038742E+002
3	0	8.999979772641382E+001	2.6026973E-001	-2.7037326E+002
3	0	9.049979771378275E+001	2.5993350E-001	-2.7037326E+002
3	0	9.099979770115169E+001	2.5960839E-001	-2.7037677E+002
3	0	9.149979768852063E+001	2.5927553E-001	-2.7039093E+002
3	0	9.199979767588957E+001	2.5894052E-001	-2.7039447E+002
3	0	9.249979766325851E+001	2.5859392E-001	-2.7036267E+002
3	0	9.299979765062744E+001	2.5823176E-001	-2.7038742E+002
3	0	9.349979763799638E+001	2.5791606E-001	-2.7036972E+002
3	0	9.399979762536532E+001	2.5761387E-001	-2.7039447E+002
3	0	9.449979761273426E+001	2.5731847E-001	-2.7035913E+002
3	0	9.499979760010319E+001	2.5701347E-001	-2.7039801E+002
3	0	9.549979758747213E+001	2.5671765E-001	-2.7035913E+002
3	0	9.599979757484107E+001	2.5641689E-001	-2.7038385E+002
3	0	9.649979756221001E+001	2.5609687E-001	-2.7036267E+002
3	0	9.699979754957894E+001	2.5576490E-001	-2.7036267E+002
3	0	9.749979753694788E+001	2.5547650E-001	-2.7040506E+002
3	0	9.799979752431682E+001	2.5520274E-001	-2.7038742E+002
3	0	9.849979751168576E+001	2.5493690E-001	-2.7037677E+002
3	0	9.899979749905469E+001	2.5466663E-001	-2.7038031E+002
3	0	9.949979748642363E+001	2.5439650E-001	-2.7038031E+002
3	0	9.999979747379257E+001	2.5412497E-001	-2.7038385E+002
3	0	1.004997974611615E+002	2.5382820E-001	-2.7037326E+002
3	0	1.009997974485304E+002	2.5352225E-001	-2.7036972E+002
3	0	1.014997974358994E+002	2.5325048E-001	-2.7036972E+002
3	0	1.019997974232683E+002	2.5301048E-001	-2.7036972E+002
3	0	1.024997974106373E+002	2.5276113E-001	-2.7039093E+002
3	0	1.029997973980062E+002	2.5250632E-001	-2.7039093E+002
3	0	1.034997973853751E+002	2.5225931E-001	-2.7038031E+002
3	0	1.039997973727441E+002	2.5200740E-001	-2.7036972E+002
3	0	1.044997973601130E+002	2.5173521E-001	-2.7037326E+002
3	0	1.049997973474819E+002	2.5144637E-001	-2.7035913E+002
3	0	1.050001973474718E+002	2.5136134E-001	-2.7040155E+002