EC-Lab ASCII FILE
Nb header lines : 55                          

Open Circuit Voltage

Run on channel : 1 (SN 81504)
User : 
CE vs. WE compliance from -10 V to 10 V
Electrode connection : standard
Potential control : Ewe
Ewe ctrl range : min = -2.50 V, max = 2.50 V
Safety Limits :
	Do not start on E overload
Acquisition started on : 05/07/2026 17:34:11.611
Loaded Setting File :  C:\PEM-WE_measurements\2026\372_IV_IV IrOx, 5 min Pt, 30 min C, etched cathode\new station\Loopeis new\1,46 V different time gaps open cell\Loopeis 1,46V_60s_4_PEIS from 650Hz to 100Hz.mps
Saved on :
	File : L_14_Loopeis 1,46V_60s_4_PEIS from 650Hz to 100Hz_16_OCV_C01.mpr
	Directory : C:\PEM-WE_measurements\2026\372_IV_IV IrOx, 5 min Pt, 30 min C, etched cathode\new station\Loopeis new\1,46 V different time gaps open cell\
	Host : 192.168.0.2
Device : SP-150e (SN .005491)
Address : 192.168.0.91
EC-LAB for windows v11.71 (software)
Internet server v28.00 (firmware)
Command interpretor v14.01 (firmware)
Electrode material : 
Initial state : 
Electrolyte : 
Comments : 
Current amplifier : SP-150eB-20A
Electrode surface area : 0.001 cm²
Characteristic mass : 0.001 g
Equivalent Weight : 0.000 g/eq.
Density : 0.000 g/cm3
Volume (V) : 0.001 cm³
Record Analogic IN 1
Text export
   Mode : Standard
   Time format : Elapsed
Cycle Definition : Charge/Discharge alternance
External device configuration :
   device type : Temperature Probe
   device name : Other
   Analog IN 1 : 
      unit : T/Â°C
      max : 100.000 at 2.000 V
      min : 0.000 at 1.460 V
tR (h:m:s)          0:01:0.0000         
dER/dt (mV/h)       1.0                 
record              <Ewe>               
dER (mV)            10.00               
dtR (s)             0.5000              
E range min (V)     -2.500              
E range max (V)     2.500               

mode	error	time/s	<Ewe/V>	Analog IN 1/V	
3	0	7.848327935867565E+002	1.0679013E+000	-2.7038031E+002
3	0	7.853327935741254E+002	1.2231219E+000	-2.7039801E+002
3	0	7.858327935614943E+002	1.1857866E+000	-2.7037677E+002
3	0	7.863327935488633E+002	1.1071684E+000	-2.7036972E+002
3	0	7.868327935362322E+002	8.6007434E-001	-2.7038031E+002
3	0	7.873327935236011E+002	4.4327322E-001	-2.7039093E+002
3	0	7.878327935109701E+002	3.2334834E-001	-2.7038385E+002
3	0	7.883327934983390E+002	3.0864325E-001	-2.7038031E+002
3	0	7.888327934857080E+002	3.0113566E-001	-2.7038742E+002
3	0	7.893327934730769E+002	2.9482836E-001	-2.7038742E+002
3	0	7.898327934604458E+002	2.8986955E-001	-2.7038031E+002
3	0	7.903327934478148E+002	2.8601968E-001	-2.7038385E+002
3	0	7.908327934351837E+002	2.8298688E-001	-2.7036267E+002
3	0	7.913327934225526E+002	2.8054389E-001	-2.7038385E+002
3	0	7.918327934099216E+002	2.7852657E-001	-2.7037677E+002
3	0	7.923327933972905E+002	2.7682680E-001	-2.7039447E+002
3	0	7.928327933846595E+002	2.7540037E-001	-2.7038031E+002
3	0	7.933327933720284E+002	2.7415943E-001	-2.7036618E+002
3	0	7.938327933593973E+002	2.7305537E-001	-2.7035559E+002
3	0	7.943327933467663E+002	2.7206221E-001	-2.7036618E+002
3	0	7.948327933341352E+002	2.7115956E-001	-2.7038031E+002
3	0	7.953327933215041E+002	2.7031156E-001	-2.7037677E+002
3	0	7.958327933088731E+002	2.6949304E-001	-2.7036267E+002
3	0	7.963327932962420E+002	2.6872110E-001	-2.7034143E+002
3	0	7.968327932836110E+002	2.6802984E-001	-2.7035913E+002
3	0	7.973327932709799E+002	2.6735416E-001	-2.7040860E+002
3	0	7.978327932583488E+002	2.6670378E-001	-2.7040155E+002
3	0	7.983327932457178E+002	2.6607376E-001	-2.7039801E+002
3	0	7.988327932330867E+002	2.6547092E-001	-2.7037326E+002
3	0	7.993327932204556E+002	2.6486707E-001	-2.7038031E+002
3	0	7.998327932078246E+002	2.6426470E-001	-2.7036618E+002
3	0	8.003327931951935E+002	2.6366594E-001	-2.7038385E+002
3	0	8.008327931825625E+002	2.6311108E-001	-2.7035913E+002
3	0	8.013327931699314E+002	2.6256260E-001	-2.7041568E+002
3	0	8.018327931573003E+002	2.6202038E-001	-2.7039447E+002
3	0	8.023327931446693E+002	2.6148909E-001	-2.7038385E+002
3	0	8.028327931320382E+002	2.6096332E-001	-2.7040155E+002
3	0	8.033327931194071E+002	2.6043445E-001	-2.7038385E+002
3	0	8.038327931067761E+002	2.5988507E-001	-2.7035913E+002
3	0	8.043327930941450E+002	2.5935313E-001	-2.7038385E+002
3	0	8.048327930815140E+002	2.5885242E-001	-2.7036267E+002
3	0	8.053327930688829E+002	2.5834933E-001	-2.7038031E+002
3	0	8.058327930562518E+002	2.5785339E-001	-2.7037326E+002
3	0	8.063327930436208E+002	2.5736266E-001	-2.7037326E+002
3	0	8.068327930309897E+002	2.5687361E-001	-2.7039093E+002
3	0	8.073327930183586E+002	2.5638434E-001	-2.7036267E+002
3	0	8.078327930057276E+002	2.5587279E-001	-2.7040506E+002
3	0	8.083327929930965E+002	2.5536636E-001	-2.7036618E+002
3	0	8.088327929804655E+002	2.5490218E-001	-2.7036972E+002
3	0	8.093327929678344E+002	2.5444105E-001	-2.7038031E+002
3	0	8.098327929552033E+002	2.5397182E-001	-2.7034851E+002
3	0	8.103327929425723E+002	2.5352180E-001	-2.7037677E+002
3	0	8.108327929299412E+002	2.5306597E-001	-2.7036972E+002
3	0	8.113327929173101E+002	2.5260326E-001	-2.7037326E+002
3	0	8.118327929046791E+002	2.5211930E-001	-2.7039447E+002
3	0	8.123327928920480E+002	2.5163722E-001	-2.7037677E+002
3	0	8.128327928794170E+002	2.5120282E-001	-2.7035913E+002
3	0	8.133327928667859E+002	2.5076577E-001	-2.7036618E+002
3	0	8.138327928541548E+002	2.5032923E-001	-2.7039093E+002
3	0	8.143327928415238E+002	2.4989909E-001	-2.7037326E+002
3	0	8.148327928288927E+002	2.4947211E-001	-2.7036972E+002
3	0	8.153327928162616E+002	2.4903838E-001	-2.7036972E+002
3	0	8.158327928036306E+002	2.4858448E-001	-2.7040860E+002
3	0	8.163327927909995E+002	2.4813730E-001	-2.7039447E+002
3	0	8.168327927783685E+002	2.4773248E-001	-2.7038742E+002
3	0	8.173327927657374E+002	2.4732164E-001	-2.7038031E+002
3	0	8.178327927531063E+002	2.4691044E-001	-2.7039093E+002
3	0	8.183327927404753E+002	2.4651103E-001	-2.7039447E+002
3	0	8.188327927278442E+002	2.4611239E-001	-2.7035559E+002
3	0	8.193327927152131E+002	2.4570780E-001	-2.7038031E+002
3	0	8.198327927025821E+002	2.4529539E-001	-2.7036267E+002
3	0	8.203327926899510E+002	2.4487770E-001	-2.7039801E+002
3	0	8.208327926773200E+002	2.4450350E-001	-2.7038385E+002
3	0	8.213327926646889E+002	2.4412191E-001	-2.7036618E+002
3	0	8.218327926520578E+002	2.4374720E-001	-2.7038031E+002
3	0	8.223327926394268E+002	2.4337567E-001	-2.7035913E+002
3	0	8.228327926267957E+002	2.4300595E-001	-2.7038385E+002
3	0	8.233327926141646E+002	2.4262948E-001	-2.7035913E+002
3	0	8.238327926015336E+002	2.4223222E-001	-2.7038031E+002
3	0	8.243327925889025E+002	2.4184744E-001	-2.7038031E+002
3	0	8.248327925762715E+002	2.4150169E-001	-2.7038742E+002
3	0	8.253327925636404E+002	2.4115168E-001	-2.7036618E+002
3	0	8.258327925510093E+002	2.4080528E-001	-2.7035913E+002
3	0	8.263327925383783E+002	2.4046212E-001	-2.7038385E+002
3	0	8.268327925257472E+002	2.4012418E-001	-2.7037326E+002
3	0	8.273327925131161E+002	2.3977511E-001	-2.7039093E+002
3	0	8.278327925004851E+002	2.3940828E-001	-2.7038031E+002
3	0	8.283327924878540E+002	2.3905213E-001	-2.7039447E+002
3	0	8.288327924752230E+002	2.3873265E-001	-2.7036267E+002
3	0	8.293327924625919E+002	2.3840970E-001	-2.7038031E+002
3	0	8.298327924499608E+002	2.3809339E-001	-2.7036267E+002
3	0	8.303327924373298E+002	2.3778033E-001	-2.7037677E+002
3	0	8.308327924246987E+002	2.3746230E-001	-2.7037677E+002
3	0	8.313327924120676E+002	2.3713817E-001	-2.7040155E+002
3	0	8.318327923994366E+002	2.3680358E-001	-2.7038742E+002
3	0	8.323327923868055E+002	2.3647308E-001	-2.7037326E+002
3	0	8.328327923741745E+002	2.3617938E-001	-2.7038031E+002
3	0	8.333327923615434E+002	2.3588434E-001	-2.7036618E+002
3	0	8.338327923489123E+002	2.3559706E-001	-2.7037326E+002
3	0	8.343327923362813E+002	2.3531222E-001	-2.7040860E+002
3	0	8.348327923236502E+002	2.3502359E-001	-2.7038385E+002
3	0	8.353327923110191E+002	2.3472154E-001	-2.7038742E+002
3	0	8.358327922983881E+002	2.3441136E-001	-2.7038385E+002
3	0	8.363327922857570E+002	2.3410496E-001	-2.7036267E+002
3	0	8.368327922731260E+002	2.3384008E-001	-2.7036618E+002
3	0	8.373327922604949E+002	2.3356605E-001	-2.7038031E+002
3	0	8.378327922478638E+002	2.3330043E-001	-2.7037677E+002
3	0	8.383327922352328E+002	2.3304403E-001	-2.7038385E+002
3	0	8.388327922226017E+002	2.3278444E-001	-2.7037326E+002
3	0	8.393327922099706E+002	2.3251329E-001	-2.7038031E+002
3	0	8.398327921973396E+002	2.3222548E-001	-2.7039801E+002
3	0	8.403327921847085E+002	2.3194359E-001	-2.7038031E+002
3	0	8.408327921720775E+002	2.3170386E-001	-2.7039801E+002
3	0	8.413327921594464E+002	2.3145756E-001	-2.7040155E+002
3	0	8.418327921468153E+002	2.3121274E-001	-2.7035205E+002
3	0	8.423327921341843E+002	2.3097269E-001	-2.7038742E+002
3	0	8.428327921215532E+002	2.3073639E-001	-2.7038031E+002
3	0	8.433327921089221E+002	2.3049466E-001	-2.7039093E+002
3	0	8.438327920962911E+002	2.3023380E-001	-2.7040155E+002
3	0	8.443327920836600E+002	2.2997054E-001	-2.7035913E+002
3	0	8.443573920830386E+002	2.2984084E-001	-2.7037677E+002