EC-Lab ASCII FILE
Nb header lines : 55                          

Open Circuit Voltage

Run on channel : 1 (SN 81504)
User : 
CE vs. WE compliance from -10 V to 10 V
Electrode connection : standard
Potential control : Ewe
Ewe ctrl range : min = -2.50 V, max = 2.50 V
Safety Limits :
	Do not start on E overload
Acquisition started on : 05/07/2026 17:34:11.611
Loaded Setting File :  C:\PEM-WE_measurements\2026\372_IV_IV IrOx, 5 min Pt, 30 min C, etched cathode\new station\Loopeis new\1,46 V different time gaps open cell\Loopeis 1,46V_60s_4_PEIS from 650Hz to 100Hz.mps
Saved on :
	File : L_14_Loopeis 1,46V_60s_4_PEIS from 650Hz to 100Hz_06_OCV_C01.mpr
	Directory : C:\PEM-WE_measurements\2026\372_IV_IV IrOx, 5 min Pt, 30 min C, etched cathode\new station\Loopeis new\1,46 V different time gaps open cell\
	Host : 192.168.0.2
Device : SP-150e (SN .005491)
Address : 192.168.0.91
EC-LAB for windows v11.71 (software)
Internet server v28.00 (firmware)
Command interpretor v14.01 (firmware)
Electrode material : 
Initial state : 
Electrolyte : 
Comments : 
Current amplifier : SP-150eB-20A
Electrode surface area : 0.001 cm²
Characteristic mass : 0.001 g
Equivalent Weight : 0.000 g/eq.
Density : 0.000 g/cm3
Volume (V) : 0.001 cm³
Record Analogic IN 1
Text export
   Mode : Standard
   Time format : Elapsed
Cycle Definition : Charge/Discharge alternance
External device configuration :
   device type : Temperature Probe
   device name : Other
   Analog IN 1 : 
      unit : T/Â°C
      max : 100.000 at 2.000 V
      min : 0.000 at 1.460 V
tR (h:m:s)          0:01:0.0000         
dER/dt (mV/h)       1.0                 
record              <Ewe>               
dER (mV)            10.00               
dtR (s)             0.5000              
E range min (V)     -2.500              
E range max (V)     2.500               

mode	error	time/s	<Ewe/V>	Analog IN 1/V	
3	0	2.554675968180527E+002	1.2763637E+000	-2.7037677E+002
3	0	2.559675968054216E+002	1.2707604E+000	-2.7035559E+002
3	0	2.564675967927906E+002	1.2356921E+000	-2.7035559E+002
3	0	2.569675967801595E+002	1.1664699E+000	-2.7036618E+002
3	0	2.574675967675284E+002	9.6945238E-001	-2.7036267E+002
3	0	2.579675967548974E+002	5.1032346E-001	-2.7037326E+002
3	0	2.584675967422663E+002	3.5948113E-001	-2.7036972E+002
3	0	2.589675967296353E+002	3.3798394E-001	-2.7036618E+002
3	0	2.594675967170042E+002	3.2888609E-001	-2.7036972E+002
3	0	2.599675967043731E+002	3.2160527E-001	-2.7036618E+002
3	0	2.604675966917421E+002	3.1604496E-001	-2.7038385E+002
3	0	2.609675966791110E+002	3.1180236E-001	-2.7036618E+002
3	0	2.614675966664799E+002	3.0851197E-001	-2.7037677E+002
3	0	2.619675966538489E+002	3.0587026E-001	-2.7037326E+002
3	0	2.624675966412178E+002	3.0369660E-001	-2.7035559E+002
3	0	2.629675966285868E+002	3.0187541E-001	-2.7036972E+002
3	0	2.634675966159557E+002	3.0030224E-001	-2.7036972E+002
3	0	2.639675966033246E+002	2.9891741E-001	-2.7037677E+002
3	0	2.644675965906936E+002	2.9767218E-001	-2.7038385E+002
3	0	2.649675965780625E+002	2.9655236E-001	-2.7038385E+002
3	0	2.654675965654315E+002	2.9555577E-001	-2.7038742E+002
3	0	2.659675965528004E+002	2.9462662E-001	-2.7037677E+002
3	0	2.664675965401693E+002	2.9376531E-001	-2.7038031E+002
3	0	2.669675965275383E+002	2.9295951E-001	-2.7039447E+002
3	0	2.674675965149072E+002	2.9218554E-001	-2.7035559E+002
3	0	2.679675965022761E+002	2.9142404E-001	-2.7039447E+002
3	0	2.684675964896451E+002	2.9066882E-001	-2.7036972E+002
3	0	2.689675964770140E+002	2.8995961E-001	-2.7036618E+002
3	0	2.694675964643830E+002	2.8929761E-001	-2.7037326E+002
3	0	2.699675964517519E+002	2.8865033E-001	-2.7038742E+002
3	0	2.704675964391208E+002	2.8801486E-001	-2.7039447E+002
3	0	2.709675964264898E+002	2.8739378E-001	-2.7035559E+002
3	0	2.714675964138587E+002	2.8677779E-001	-2.7039447E+002
3	0	2.719675964012276E+002	2.8615856E-001	-2.7037326E+002
3	0	2.724675963885966E+002	2.8553590E-001	-2.7036972E+002
3	0	2.729675963759655E+002	2.8492445E-001	-2.7038742E+002
3	0	2.734675963633345E+002	2.8436032E-001	-2.7038385E+002
3	0	2.739675963507034E+002	2.8379086E-001	-2.7037677E+002
3	0	2.744675963380723E+002	2.8323716E-001	-2.7037677E+002
3	0	2.749675963254413E+002	2.8268552E-001	-2.7038031E+002
3	0	2.754675963128102E+002	2.8214434E-001	-2.7039447E+002
3	0	2.759675963001791E+002	2.8158650E-001	-2.7038031E+002
3	0	2.764675962875481E+002	2.8102088E-001	-2.7037677E+002
3	0	2.769675962749170E+002	2.8047013E-001	-2.7038385E+002
3	0	2.774675962622860E+002	2.7995715E-001	-2.7036618E+002
3	0	2.779675962496549E+002	2.7943727E-001	-2.7037326E+002
3	0	2.784675962370238E+002	2.7893296E-001	-2.7035205E+002
3	0	2.789675962243928E+002	2.7842560E-001	-2.7040155E+002
3	0	2.794675962117617E+002	2.7792460E-001	-2.7038742E+002
3	0	2.799675961991306E+002	2.7741247E-001	-2.7036267E+002
3	0	2.804675961864996E+002	2.7688956E-001	-2.7036972E+002
3	0	2.809675961738685E+002	2.7637884E-001	-2.7036618E+002
3	0	2.814675961612375E+002	2.7590910E-001	-2.7035559E+002
3	0	2.819675961486064E+002	2.7542907E-001	-2.7038385E+002
3	0	2.824675961359753E+002	2.7496076E-001	-2.7036618E+002
3	0	2.829675961233443E+002	2.7449775E-001	-2.7038031E+002
3	0	2.834675961107132E+002	2.7403262E-001	-2.7038385E+002
3	0	2.839675960980821E+002	2.7355564E-001	-2.7035205E+002
3	0	2.844675960854511E+002	2.7306569E-001	-2.7036972E+002
3	0	2.849675960728200E+002	2.7258503E-001	-2.7037677E+002
3	0	2.854675960601890E+002	2.7215275E-001	-2.7035559E+002
3	0	2.859675960475579E+002	2.7170613E-001	-2.7037326E+002
3	0	2.864675960349268E+002	2.7126488E-001	-2.7038385E+002
3	0	2.869675960222958E+002	2.7083102E-001	-2.7035913E+002
3	0	2.874675960096647E+002	2.7039653E-001	-2.7036267E+002
3	0	2.879675959970336E+002	2.6994818E-001	-2.7036972E+002
3	0	2.884675959844026E+002	2.6949713E-001	-2.7039801E+002
3	0	2.889675959717715E+002	2.6905689E-001	-2.7037677E+002
3	0	2.894675959591405E+002	2.6864618E-001	-2.7038742E+002
3	0	2.899675959465094E+002	2.6823452E-001	-2.7040155E+002
3	0	2.904675959338783E+002	2.6782402E-001	-2.7034851E+002
3	0	2.909675959212473E+002	2.6741618E-001	-2.7038031E+002
3	0	2.914675959086162E+002	2.6701379E-001	-2.7035913E+002
3	0	2.919675958959851E+002	2.6660138E-001	-2.7036267E+002
3	0	2.924675958833541E+002	2.6616824E-001	-2.7038031E+002
3	0	2.929675958707230E+002	2.6575533E-001	-2.7039093E+002
3	0	2.934675958580920E+002	2.6537162E-001	-2.7039093E+002
3	0	2.939675958454609E+002	2.6498631E-001	-2.7038385E+002
3	0	2.944675958328298E+002	2.6461118E-001	-2.7038385E+002
3	0	2.949675958201988E+002	2.6423824E-001	-2.7037677E+002
3	0	2.954675958075677E+002	2.6386738E-001	-2.7038031E+002
3	0	2.959675957949366E+002	2.6348063E-001	-2.7040155E+002
3	0	2.964675957823056E+002	2.6308724E-001	-2.7037677E+002
3	0	2.969675957696745E+002	2.6270285E-001	-2.7038031E+002
3	0	2.974675957570435E+002	2.6235759E-001	-2.7039447E+002
3	0	2.979675957444124E+002	2.6201096E-001	-2.7039801E+002
3	0	2.984675957317813E+002	2.6166320E-001	-2.7037677E+002
3	0	2.989675957191503E+002	2.6131874E-001	-2.7036618E+002
3	0	2.994675957065192E+002	2.6098198E-001	-2.7036972E+002
3	0	2.999675956938881E+002	2.6063240E-001	-2.7040860E+002
3	0	3.004675956812571E+002	2.6025885E-001	-2.7040860E+002
3	0	3.009675956686260E+002	2.5991073E-001	-2.7034497E+002
3	0	3.014675956559950E+002	2.5960138E-001	-2.7036267E+002
3	0	3.019675956433639E+002	2.5927877E-001	-2.7036618E+002
3	0	3.024675956307328E+002	2.5896320E-001	-2.7040155E+002
3	0	3.029675956181018E+002	2.5865212E-001	-2.7040506E+002
3	0	3.034675956054707E+002	2.5833249E-001	-2.7039447E+002
3	0	3.039675955928396E+002	2.5800890E-001	-2.7039447E+002
3	0	3.044675955802086E+002	2.5766712E-001	-2.7036618E+002
3	0	3.049675955675775E+002	2.5734618E-001	-2.7038742E+002
3	0	3.054675955549465E+002	2.5706109E-001	-2.7038385E+002
3	0	3.059675955423154E+002	2.5676900E-001	-2.7036972E+002
3	0	3.064675955296843E+002	2.5647864E-001	-2.7036618E+002
3	0	3.069675955170533E+002	2.5619602E-001	-2.7037326E+002
3	0	3.074675955044222E+002	2.5590199E-001	-2.7037326E+002
3	0	3.079675954917911E+002	2.5560647E-001	-2.7036972E+002
3	0	3.084675954791601E+002	2.5529003E-001	-2.7034851E+002
3	0	3.089675954665290E+002	2.5499514E-001	-2.7038385E+002
3	0	3.094675954538980E+002	2.5473684E-001	-2.7038742E+002
3	0	3.099675954412669E+002	2.5446731E-001	-2.7034143E+002
3	0	3.104675954286358E+002	2.5421038E-001	-2.7037326E+002
3	0	3.109675954160048E+002	2.5394386E-001	-2.7039801E+002
3	0	3.114675954033737E+002	2.5367811E-001	-2.7039447E+002
3	0	3.119675953907426E+002	2.5339922E-001	-2.7038031E+002
3	0	3.124675953781116E+002	2.5310501E-001	-2.7037326E+002
3	0	3.129675953654805E+002	2.5283366E-001	-2.7040155E+002
3	0	3.134675953528495E+002	2.5259244E-001	-2.7038031E+002
3	0	3.139675953402184E+002	2.5234500E-001	-2.7035913E+002
3	0	3.144675953275873E+002	2.5210217E-001	-2.7039447E+002
3	0	3.149675953149563E+002	2.5186396E-001	-2.7038031E+002
3	0	3.149679953149462E+002	2.5172395E-001	-2.7037677E+002