EC-Lab ASCII FILE
Nb header lines : 55                          

Open Circuit Voltage

Run on channel : 1 (SN 81504)
User : 
CE vs. WE compliance from -10 V to 10 V
Electrode connection : standard
Potential control : Ewe
Ewe ctrl range : min = -2.50 V, max = 2.50 V
Safety Limits :
	Do not start on E overload
Acquisition started on : 05/07/2026 17:51:53.741
Loaded Setting File :  C:\PEM-WE_measurements\2026\372_IV_IV IrOx, 5 min Pt, 30 min C, etched cathode\new station\Loopeis new\1,46 V different time gaps open cell\Loopeis 1,46V_60s_5_PEIS from 65Hz to 10Hz.mps
Saved on :
	File : L_15_Loopeis 1,46V_60s_5_PEIS from 65Hz to 10Hz_04_OCV_C01.mpr
	Directory : C:\PEM-WE_measurements\2026\372_IV_IV IrOx, 5 min Pt, 30 min C, etched cathode\new station\Loopeis new\1,46 V different time gaps open cell\
	Host : 192.168.0.2
Device : SP-150e (SN .005491)
Address : 192.168.0.91
EC-LAB for windows v11.71 (software)
Internet server v28.00 (firmware)
Command interpretor v14.01 (firmware)
Electrode material : 
Initial state : 
Electrolyte : 
Comments : 
Current amplifier : SP-150eB-20A
Electrode surface area : 0.001 cm²
Characteristic mass : 0.001 g
Equivalent Weight : 0.000 g/eq.
Density : 0.000 g/cm3
Volume (V) : 0.001 cm³
Record Analogic IN 1
Text export
   Mode : Standard
   Time format : Elapsed
Cycle Definition : Charge/Discharge alternance
External device configuration :
   device type : Temperature Probe
   device name : Other
   Analog IN 1 : 
      unit : T/Â°C
      max : 100.000 at 2.000 V
      min : 0.000 at 1.460 V
tR (h:m:s)          0:01:0.0000         
dER/dt (mV/h)       1.0                 
record              <Ewe>               
dER (mV)            10.00               
dtR (s)             0.5000              
E range min (V)     -2.500              
E range max (V)     2.500               

mode	error	time/s	<Ewe/V>	Analog IN 1/V	
3	0	6.030416209684336E+002	1.2784336E+000	-2.7039093E+002
3	0	6.035416209558025E+002	1.2762249E+000	-2.7039801E+002
3	0	6.040416209431714E+002	1.2456046E+000	-2.7037326E+002
3	0	6.045416209305404E+002	1.1841557E+000	-2.7036267E+002
3	0	6.050416209179093E+002	1.0163095E+000	-2.7037326E+002
3	0	6.055416209052783E+002	5.4744321E-001	-2.7036618E+002
3	0	6.060416208926472E+002	3.7763852E-001	-2.7036618E+002
3	0	6.065416208800161E+002	3.5206196E-001	-2.7036972E+002
3	0	6.070416208673851E+002	3.4234160E-001	-2.7038742E+002
3	0	6.075416208547540E+002	3.3480132E-001	-2.7036267E+002
3	0	6.080416208421229E+002	3.2916686E-001	-2.7039093E+002
3	0	6.085416208294919E+002	3.2492214E-001	-2.7036618E+002
3	0	6.090416208168608E+002	3.2164252E-001	-2.7038385E+002
3	0	6.095416208042298E+002	3.1903031E-001	-2.7038742E+002
3	0	6.100416207915987E+002	3.1688061E-001	-2.7036267E+002
3	0	6.105416207789676E+002	3.1507459E-001	-2.7038742E+002
3	0	6.110416207663366E+002	3.1356591E-001	-2.7037326E+002
3	0	6.115416207537055E+002	3.1223705E-001	-2.7038385E+002
3	0	6.120416207410744E+002	3.1105837E-001	-2.7037677E+002
3	0	6.125416207284434E+002	3.0998862E-001	-2.7037326E+002
3	0	6.130416207158123E+002	3.0901715E-001	-2.7036618E+002
3	0	6.135416207031813E+002	3.0810496E-001	-2.7036972E+002
3	0	6.140416206905502E+002	3.0721563E-001	-2.7036618E+002
3	0	6.145416206779191E+002	3.0637434E-001	-2.7035913E+002
3	0	6.150416206652881E+002	3.0561435E-001	-2.7035559E+002
3	0	6.155416206526570E+002	3.0489373E-001	-2.7037677E+002
3	0	6.160416206400259E+002	3.0420050E-001	-2.7038031E+002
3	0	6.165416206273949E+002	3.0352190E-001	-2.7036972E+002
3	0	6.170416206147638E+002	3.0286229E-001	-2.7038031E+002
3	0	6.175416206021328E+002	3.0220613E-001	-2.7037677E+002
3	0	6.180416205895017E+002	3.0153817E-001	-2.7038031E+002
3	0	6.185416205768706E+002	3.0088159E-001	-2.7038385E+002
3	0	6.190416205642396E+002	3.0027166E-001	-2.7039093E+002
3	0	6.195416205516085E+002	2.9969254E-001	-2.7035913E+002
3	0	6.200416205389774E+002	2.9911202E-001	-2.7036972E+002
3	0	6.205416205263464E+002	2.9853624E-001	-2.7039447E+002
3	0	6.210416205137153E+002	2.9796588E-001	-2.7037326E+002
3	0	6.215416205010843E+002	2.9739746E-001	-2.7036267E+002
3	0	6.220416204884532E+002	2.9681173E-001	-2.7038385E+002
3	0	6.225416204758221E+002	2.9622149E-001	-2.7038031E+002
3	0	6.230416204631911E+002	2.9568571E-001	-2.7038742E+002
3	0	6.235416204505600E+002	2.9515693E-001	-2.7036972E+002
3	0	6.240416204379289E+002	2.9463434E-001	-2.7039447E+002
3	0	6.245416204252979E+002	2.9410955E-001	-2.7036618E+002
3	0	6.250416204126668E+002	2.9358634E-001	-2.7036972E+002
3	0	6.255416204000358E+002	2.9305542E-001	-2.7036267E+002
3	0	6.260416203874047E+002	2.9251155E-001	-2.7038031E+002
3	0	6.265416203747736E+002	2.9197261E-001	-2.7037677E+002
3	0	6.270416203621426E+002	2.9147062E-001	-2.7038385E+002
3	0	6.275416203495115E+002	2.9098099E-001	-2.7040155E+002
3	0	6.280416203368804E+002	2.9049611E-001	-2.7037677E+002
3	0	6.285416203242494E+002	2.9001826E-001	-2.7039447E+002
3	0	6.290416203116183E+002	2.8953019E-001	-2.7036972E+002
3	0	6.295416202989873E+002	2.8903612E-001	-2.7038031E+002
3	0	6.300416202863562E+002	2.8852960E-001	-2.7039801E+002
3	0	6.305416202737251E+002	2.8801984E-001	-2.7036972E+002
3	0	6.310416202610941E+002	2.8755596E-001	-2.7038742E+002
3	0	6.315416202484630E+002	2.8709635E-001	-2.7037326E+002
3	0	6.320416202358319E+002	2.8664193E-001	-2.7037677E+002
3	0	6.325416202232009E+002	2.8618756E-001	-2.7035913E+002
3	0	6.330416202105698E+002	2.8573361E-001	-2.7038031E+002
3	0	6.335416201979388E+002	2.8527847E-001	-2.7037326E+002
3	0	6.340416201853077E+002	2.8480741E-001	-2.7037677E+002
3	0	6.345416201726766E+002	2.8433082E-001	-2.7034851E+002
3	0	6.350416201600456E+002	2.8389767E-001	-2.7040155E+002
3	0	6.355416201474145E+002	2.8347597E-001	-2.7036618E+002
3	0	6.360416201347834E+002	2.8305587E-001	-2.7038742E+002
3	0	6.365416201221524E+002	2.8262889E-001	-2.7036267E+002
3	0	6.370416201095213E+002	2.8220549E-001	-2.7040506E+002
3	0	6.375416200968903E+002	2.8177845E-001	-2.7039801E+002
3	0	6.380416200842592E+002	2.8133458E-001	-2.7039093E+002
3	0	6.385416200716281E+002	2.8088894E-001	-2.7039801E+002
3	0	6.390416200589971E+002	2.8049728E-001	-2.7036618E+002
3	0	6.395416200463660E+002	2.8011498E-001	-2.7038742E+002
3	0	6.400416200337349E+002	2.7971798E-001	-2.7038385E+002
3	0	6.405416200211039E+002	2.7932599E-001	-2.7039447E+002
3	0	6.410416200084728E+002	2.7894676E-001	-2.7038385E+002
3	0	6.415416199958418E+002	2.7855161E-001	-2.7037326E+002
3	0	6.420416199832107E+002	2.7813524E-001	-2.7038385E+002
3	0	6.425416199705796E+002	2.7772769E-001	-2.7038031E+002
3	0	6.430416199579486E+002	2.7736011E-001	-2.7037326E+002
3	0	6.435416199453175E+002	2.7701482E-001	-2.7036267E+002
3	0	6.440416199326864E+002	2.7664798E-001	-2.7038031E+002
3	0	6.445416199200554E+002	2.7628988E-001	-2.7038742E+002
3	0	6.450416199074243E+002	2.7593896E-001	-2.7038742E+002
3	0	6.455416198947933E+002	2.7558225E-001	-2.7038385E+002
3	0	6.460416198821622E+002	2.7521232E-001	-2.7040506E+002
3	0	6.465416198695311E+002	2.7482015E-001	-2.7037326E+002
3	0	6.470416198569001E+002	2.7449006E-001	-2.7036618E+002
3	0	6.475416198442690E+002	2.7416298E-001	-2.7036618E+002
3	0	6.480416198316379E+002	2.7384537E-001	-2.7040506E+002
3	0	6.485416198190069E+002	2.7350536E-001	-2.7037326E+002
3	0	6.490416198063758E+002	2.7318093E-001	-2.7037326E+002
3	0	6.495416197937448E+002	2.7284577E-001	-2.7038742E+002
3	0	6.500416197811137E+002	2.7249464E-001	-2.7037677E+002
3	0	6.505416197684826E+002	2.7214274E-001	-2.7034851E+002
3	0	6.510416197558516E+002	2.7183580E-001	-2.7034851E+002
3	0	6.515416197432205E+002	2.7153802E-001	-2.7038031E+002
3	0	6.520416197305894E+002	2.7123815E-001	-2.7037677E+002
3	0	6.525416197179584E+002	2.7093813E-001	-2.7038031E+002
3	0	6.530416197053273E+002	2.7064732E-001	-2.7036972E+002
3	0	6.535416196926963E+002	2.7034137E-001	-2.7041214E+002
3	0	6.540416196800652E+002	2.7001953E-001	-2.7040506E+002
3	0	6.545416196674341E+002	2.6969004E-001	-2.7037326E+002
3	0	6.550416196548031E+002	2.6940200E-001	-2.7036618E+002
3	0	6.555416196421720E+002	2.6913264E-001	-2.7038385E+002
3	0	6.560416196295409E+002	2.6886171E-001	-2.7038031E+002
3	0	6.565416196169099E+002	2.6858976E-001	-2.7039093E+002
3	0	6.570416196042788E+002	2.6831421E-001	-2.7041568E+002
3	0	6.575416195916478E+002	2.6803508E-001	-2.7037677E+002
3	0	6.580416195790167E+002	2.6773569E-001	-2.7036267E+002
3	0	6.585416195663856E+002	2.6742792E-001	-2.7035205E+002
3	0	6.590416195537546E+002	2.6716739E-001	-2.7039093E+002
3	0	6.595416195411235E+002	2.6691881E-001	-2.7037677E+002
3	0	6.600416195284924E+002	2.6666555E-001	-2.7038031E+002
3	0	6.605416195158614E+002	2.6641572E-001	-2.7035559E+002
3	0	6.610416195032303E+002	2.6616681E-001	-2.7036618E+002
3	0	6.615416194905993E+002	2.6590738E-001	-2.7038031E+002
3	0	6.620416194779682E+002	2.6563084E-001	-2.7036618E+002
3	0	6.625416194653371E+002	2.6536015E-001	-2.7037326E+002
3	0	6.625650194647460E+002	2.6522306E-001	-2.7039093E+002