EC-Lab ASCII FILE
Nb header lines : 55                          

Open Circuit Voltage

Run on channel : 1 (SN 81504)
User : 
CE vs. WE compliance from -10 V to 10 V
Electrode connection : standard
Potential control : Ewe
Ewe ctrl range : min = -2.50 V, max = 2.50 V
Safety Limits :
	Do not start on E overload
Acquisition started on : 05/07/2026 17:51:53.741
Loaded Setting File :  C:\PEM-WE_measurements\2026\372_IV_IV IrOx, 5 min Pt, 30 min C, etched cathode\new station\Loopeis new\1,46 V different time gaps open cell\Loopeis 1,46V_60s_5_PEIS from 65Hz to 10Hz.mps
Saved on :
	File : L_15_Loopeis 1,46V_60s_5_PEIS from 65Hz to 10Hz_14_OCV_C01.mpr
	Directory : C:\PEM-WE_measurements\2026\372_IV_IV IrOx, 5 min Pt, 30 min C, etched cathode\new station\Loopeis new\1,46 V different time gaps open cell\
	Host : 192.168.0.2
Device : SP-150e (SN .005491)
Address : 192.168.0.91
EC-LAB for windows v11.71 (software)
Internet server v28.00 (firmware)
Command interpretor v14.01 (firmware)
Electrode material : 
Initial state : 
Electrolyte : 
Comments : 
Current amplifier : SP-150eB-20A
Electrode surface area : 0.001 cm²
Characteristic mass : 0.001 g
Equivalent Weight : 0.000 g/eq.
Density : 0.000 g/cm3
Volume (V) : 0.001 cm³
Record Analogic IN 1
Text export
   Mode : Standard
   Time format : Elapsed
Cycle Definition : Charge/Discharge alternance
External device configuration :
   device type : Temperature Probe
   device name : Other
   Analog IN 1 : 
      unit : T/Â°C
      max : 100.000 at 2.000 V
      min : 0.000 at 1.460 V
tR (h:m:s)          0:01:0.0000         
dER/dt (mV/h)       1.0                 
record              <Ewe>               
dER (mV)            10.00               
dtR (s)             0.5000              
E range min (V)     -2.500              
E range max (V)     2.500               

mode	error	time/s	<Ewe/V>	Analog IN 1/V	
3	0	1.129134214304067E+003	1.2759974E+000	-2.7036267E+002
3	0	1.129634214291436E+003	1.2693189E+000	-2.7036972E+002
3	0	1.130134214278805E+003	1.2314874E+000	-2.7034851E+002
3	0	1.130634214266174E+003	1.1543700E+000	-2.7036972E+002
3	0	1.131134214253543E+003	8.9488351E-001	-2.7038385E+002
3	0	1.131634214240912E+003	4.6120647E-001	-2.7038742E+002
3	0	1.132134214228281E+003	3.5386953E-001	-2.7040506E+002
3	0	1.132634214215650E+003	3.3843204E-001	-2.7037326E+002
3	0	1.133134214203019E+003	3.2954308E-001	-2.7039801E+002
3	0	1.133634214190388E+003	3.2257655E-001	-2.7037326E+002
3	0	1.134134214177757E+003	3.1732053E-001	-2.7036267E+002
3	0	1.134634214165126E+003	3.1333444E-001	-2.7038385E+002
3	0	1.135134214152495E+003	3.1023255E-001	-2.7039801E+002
3	0	1.135634214139864E+003	3.0773973E-001	-2.7037677E+002
3	0	1.136134214127233E+003	3.0567521E-001	-2.7038031E+002
3	0	1.136634214114601E+003	3.0393860E-001	-2.7038385E+002
3	0	1.137134214101970E+003	3.0243289E-001	-2.7035913E+002
3	0	1.137634214089339E+003	3.0108401E-001	-2.7040155E+002
3	0	1.138134214076708E+003	2.9986486E-001	-2.7036618E+002
3	0	1.138634214064077E+003	2.9880160E-001	-2.7037677E+002
3	0	1.139134214051446E+003	2.9783940E-001	-2.7041214E+002
3	0	1.139634214038815E+003	2.9693738E-001	-2.7034851E+002
3	0	1.140134214026184E+003	2.9608974E-001	-2.7038742E+002
3	0	1.140634214013553E+003	2.9529479E-001	-2.7036267E+002
3	0	1.141134214000922E+003	2.9452273E-001	-2.7036618E+002
3	0	1.141634213988291E+003	2.9376972E-001	-2.7038742E+002
3	0	1.142134213975660E+003	2.9302621E-001	-2.7038742E+002
3	0	1.142634213963029E+003	2.9234722E-001	-2.7036972E+002
3	0	1.143134213950398E+003	2.9169241E-001	-2.7038742E+002
3	0	1.143634213937767E+003	2.9104882E-001	-2.7035559E+002
3	0	1.144134213925136E+003	2.9042408E-001	-2.7036267E+002
3	0	1.144634213912504E+003	2.8981376E-001	-2.7037677E+002
3	0	1.145134213899873E+003	2.8920218E-001	-2.7037326E+002
3	0	1.145634213887242E+003	2.8858030E-001	-2.7036618E+002
3	0	1.146134213874611E+003	2.8796518E-001	-2.7036267E+002
3	0	1.146634213861980E+003	2.8738382E-001	-2.7036267E+002
3	0	1.147134213849349E+003	2.8682086E-001	-2.7040506E+002
3	0	1.147634213836718E+003	2.8626046E-001	-2.7038742E+002
3	0	1.148134213824087E+003	2.8571585E-001	-2.7036618E+002
3	0	1.148634213811456E+003	2.8517106E-001	-2.7037326E+002
3	0	1.149134213798825E+003	2.8462338E-001	-2.7036267E+002
3	0	1.149634213786194E+003	2.8405890E-001	-2.7037326E+002
3	0	1.150134213773563E+003	2.8349432E-001	-2.7037326E+002
3	0	1.150634213760932E+003	2.8296921E-001	-2.7038742E+002
3	0	1.151134213748301E+003	2.8245571E-001	-2.7038385E+002
3	0	1.151634213735670E+003	2.8194851E-001	-2.7039093E+002
3	0	1.152134213723039E+003	2.8143632E-001	-2.7038742E+002
3	0	1.152634213710407E+003	2.8093371E-001	-2.7037326E+002
3	0	1.153134213697776E+003	2.8042886E-001	-2.7036267E+002
3	0	1.153634213685145E+003	2.7990147E-001	-2.7038031E+002
3	0	1.154134213672514E+003	2.7937910E-001	-2.7037677E+002
3	0	1.154634213659883E+003	2.7890465E-001	-2.7036972E+002
3	0	1.155134213647252E+003	2.7842510E-001	-2.7036972E+002
3	0	1.155634213634621E+003	2.7795562E-001	-2.7036972E+002
3	0	1.156134213621990E+003	2.7748576E-001	-2.7036618E+002
3	0	1.156634213609359E+003	2.7702105E-001	-2.7039447E+002
3	0	1.157134213596728E+003	2.7654582E-001	-2.7035205E+002
3	0	1.157634213584097E+003	2.7605170E-001	-2.7035913E+002
3	0	1.158134213571466E+003	2.7557474E-001	-2.7038742E+002
3	0	1.158634213558835E+003	2.7512279E-001	-2.7037326E+002
3	0	1.159134213546204E+003	2.7468488E-001	-2.7038031E+002
3	0	1.159634213533573E+003	2.7425143E-001	-2.7037326E+002
3	0	1.160134213520942E+003	2.7381125E-001	-2.7038031E+002
3	0	1.160634213508310E+003	2.7337793E-001	-2.7041568E+002
3	0	1.161134213495679E+003	2.7292940E-001	-2.7038031E+002
3	0	1.161634213483048E+003	2.7247298E-001	-2.7038031E+002
3	0	1.162134213470417E+003	2.7202386E-001	-2.7038385E+002
3	0	1.162634213457786E+003	2.7160686E-001	-2.7035913E+002
3	0	1.163134213445155E+003	2.7119210E-001	-2.7037326E+002
3	0	1.163634213432524E+003	2.7079129E-001	-2.7037326E+002
3	0	1.164134213419893E+003	2.7038139E-001	-2.7038385E+002
3	0	1.164634213407262E+003	2.6997599E-001	-2.7035559E+002
3	0	1.165134213394631E+003	2.6957020E-001	-2.7036618E+002
3	0	1.165634213382000E+003	2.6914752E-001	-2.7038031E+002
3	0	1.166134213369369E+003	2.6872435E-001	-2.7039801E+002
3	0	1.166634213356738E+003	2.6834550E-001	-2.7038742E+002
3	0	1.167134213344107E+003	2.6797158E-001	-2.7038742E+002
3	0	1.167634213331476E+003	2.6759872E-001	-2.7037677E+002
3	0	1.168134213318845E+003	2.6722506E-001	-2.7035913E+002
3	0	1.168634213306214E+003	2.6685596E-001	-2.7037326E+002
3	0	1.169134213293582E+003	2.6647845E-001	-2.7037326E+002
3	0	1.169634213280951E+003	2.6607910E-001	-2.7040155E+002
3	0	1.170134213268320E+003	2.6568764E-001	-2.7039447E+002
3	0	1.170634213255689E+003	2.6533946E-001	-2.7038742E+002
3	0	1.171134213243058E+003	2.6498711E-001	-2.7038742E+002
3	0	1.171634213230427E+003	2.6465178E-001	-2.7038385E+002
3	0	1.172134213217796E+003	2.6431257E-001	-2.7036618E+002
3	0	1.172634213205165E+003	2.6397255E-001	-2.7039093E+002
3	0	1.173134213192534E+003	2.6362705E-001	-2.7036972E+002
3	0	1.173634213179903E+003	2.6325956E-001	-2.7036618E+002
3	0	1.174134213167272E+003	2.6289672E-001	-2.7038385E+002
3	0	1.174634213154641E+003	2.6257759E-001	-2.7037677E+002
3	0	1.175134213142010E+003	2.6225546E-001	-2.7036267E+002
3	0	1.175634213129379E+003	2.6193601E-001	-2.7038742E+002
3	0	1.176134213116748E+003	2.6161891E-001	-2.7037326E+002
3	0	1.176634213104117E+003	2.6130310E-001	-2.7038031E+002
3	0	1.177134213091485E+003	2.6097885E-001	-2.7039801E+002
3	0	1.177634213078854E+003	2.6064342E-001	-2.7039801E+002
3	0	1.178134213066223E+003	2.6031086E-001	-2.7037326E+002
3	0	1.178634213053592E+003	2.6002127E-001	-2.7039093E+002
3	0	1.179134213040961E+003	2.5973591E-001	-2.7039093E+002
3	0	1.179634213028330E+003	2.5945380E-001	-2.7038742E+002
3	0	1.180134213015699E+003	2.5916812E-001	-2.7037326E+002
3	0	1.180634213003068E+003	2.5888243E-001	-2.7039801E+002
3	0	1.181134212990437E+003	2.5858456E-001	-2.7038385E+002
3	0	1.181634212977806E+003	2.5827321E-001	-2.7036267E+002
3	0	1.182134212965175E+003	2.5796536E-001	-2.7035913E+002
3	0	1.182634212952544E+003	2.5769761E-001	-2.7036618E+002
3	0	1.183134212939913E+003	2.5743070E-001	-2.7039093E+002
3	0	1.183634212927282E+003	2.5716195E-001	-2.7039093E+002
3	0	1.184134212914651E+003	2.5689575E-001	-2.7038031E+002
3	0	1.184634212902020E+003	2.5663441E-001	-2.7039447E+002
3	0	1.185134212889388E+003	2.5637203E-001	-2.7039801E+002
3	0	1.185634212876757E+003	2.5609040E-001	-2.7038385E+002
3	0	1.186134212864126E+003	2.5580788E-001	-2.7038031E+002
3	0	1.186634212851495E+003	2.5557044E-001	-2.7038031E+002
3	0	1.187134212838864E+003	2.5532863E-001	-2.7034143E+002
3	0	1.187634212826233E+003	2.5508973E-001	-2.7038031E+002
3	0	1.188134212813602E+003	2.5486022E-001	-2.7036618E+002
3	0	1.188634212800971E+003	2.5462532E-001	-2.7036618E+002
3	0	1.188634612800961E+003	2.5449109E-001	-2.7038742E+002