EC-Lab ASCII FILE
Nb header lines : 55                          

Open Circuit Voltage

Run on channel : 1 (SN 81504)
User : 
CE vs. WE compliance from -10 V to 10 V
Electrode connection : standard
Potential control : Ewe
Ewe ctrl range : min = -2.50 V, max = 2.50 V
Safety Limits :
	Do not start on E overload
Acquisition started on : 05/07/2026 17:51:53.741
Loaded Setting File :  C:\PEM-WE_measurements\2026\372_IV_IV IrOx, 5 min Pt, 30 min C, etched cathode\new station\Loopeis new\1,46 V different time gaps open cell\Loopeis 1,46V_60s_5_PEIS from 65Hz to 10Hz.mps
Saved on :
	File : L_15_Loopeis 1,46V_60s_5_PEIS from 65Hz to 10Hz_20_OCV_C01.mpr
	Directory : C:\PEM-WE_measurements\2026\372_IV_IV IrOx, 5 min Pt, 30 min C, etched cathode\new station\Loopeis new\1,46 V different time gaps open cell\
	Host : 192.168.0.2
Device : SP-150e (SN .005491)
Address : 192.168.0.91
EC-LAB for windows v11.71 (software)
Internet server v28.00 (firmware)
Command interpretor v14.01 (firmware)
Electrode material : 
Initial state : 
Electrolyte : 
Comments : 
Current amplifier : SP-150eB-20A
Electrode surface area : 0.001 cm²
Characteristic mass : 0.001 g
Equivalent Weight : 0.000 g/eq.
Density : 0.000 g/cm3
Volume (V) : 0.001 cm³
Record Analogic IN 1
Text export
   Mode : Standard
   Time format : Elapsed
Cycle Definition : Charge/Discharge alternance
External device configuration :
   device type : Temperature Probe
   device name : Other
   Analog IN 1 : 
      unit : T/Â°C
      max : 100.000 at 2.000 V
      min : 0.000 at 1.460 V
tR (h:m:s)          0:01:0.0000         
dER/dt (mV/h)       1.0                 
record              <Ewe>               
dER (mV)            10.00               
dtR (s)             0.5000              
E range min (V)     -2.500              
E range max (V)     2.500               

mode	error	time/s	<Ewe/V>	Analog IN 1/V	
3	0	1.447400613051577E+003	1.2760003E+000	-2.7036972E+002
3	0	1.447900613038946E+003	1.2711535E+000	-2.7036972E+002
3	0	1.448400613026315E+003	1.2365292E+000	-2.7038385E+002
3	0	1.448900613013684E+003	1.1667130E+000	-2.7036618E+002
3	0	1.449400613001053E+003	9.6480435E-001	-2.7038031E+002
3	0	1.449900612988422E+003	5.0260949E-001	-2.7036972E+002
3	0	1.450400612975791E+003	3.5697889E-001	-2.7036618E+002
3	0	1.450900612963160E+003	3.3693272E-001	-2.7038385E+002
3	0	1.451400612950529E+003	3.2797065E-001	-2.7040506E+002
3	0	1.451900612937898E+003	3.2086879E-001	-2.7038031E+002
3	0	1.452400612925267E+003	3.1548432E-001	-2.7036618E+002
3	0	1.452900612912636E+003	3.1137472E-001	-2.7035559E+002
3	0	1.453400612900004E+003	3.0814880E-001	-2.7039801E+002
3	0	1.453900612887373E+003	3.0556488E-001	-2.7036972E+002
3	0	1.454400612874742E+003	3.0347759E-001	-2.7039093E+002
3	0	1.454900612862111E+003	3.0172765E-001	-2.7038385E+002
3	0	1.455400612849480E+003	3.0023417E-001	-2.7038742E+002
3	0	1.455900612836849E+003	2.9893082E-001	-2.7040506E+002
3	0	1.456400612824218E+003	2.9775807E-001	-2.7036618E+002
3	0	1.456900612811587E+003	2.9668787E-001	-2.7036618E+002
3	0	1.457400612798956E+003	2.9567918E-001	-2.7039093E+002
3	0	1.457900612786325E+003	2.9474908E-001	-2.7040155E+002
3	0	1.458400612773694E+003	2.9390520E-001	-2.7037326E+002
3	0	1.458900612761063E+003	2.9312298E-001	-2.7036972E+002
3	0	1.459400612748432E+003	2.9236689E-001	-2.7035559E+002
3	0	1.459900612735801E+003	2.9164952E-001	-2.7038031E+002
3	0	1.460400612723170E+003	2.9095683E-001	-2.7036267E+002
3	0	1.460900612710539E+003	2.9027924E-001	-2.7038031E+002
3	0	1.461400612697907E+003	2.8959426E-001	-2.7035205E+002
3	0	1.461900612685276E+003	2.8891417E-001	-2.7038385E+002
3	0	1.462400612672645E+003	2.8828734E-001	-2.7040506E+002
3	0	1.462900612660014E+003	2.8767541E-001	-2.7038385E+002
3	0	1.463400612647383E+003	2.8708008E-001	-2.7036618E+002
3	0	1.463900612634752E+003	2.8649387E-001	-2.7038385E+002
3	0	1.464400612622121E+003	2.8591359E-001	-2.7035559E+002
3	0	1.464900612609490E+003	2.8532743E-001	-2.7038031E+002
3	0	1.465400612596859E+003	2.8472510E-001	-2.7035913E+002
3	0	1.465900612584228E+003	2.8413182E-001	-2.7038742E+002
3	0	1.466400612571597E+003	2.8357685E-001	-2.7038742E+002
3	0	1.466900612558966E+003	2.8303602E-001	-2.7037326E+002
3	0	1.467400612546335E+003	2.8249979E-001	-2.7036618E+002
3	0	1.467900612533704E+003	2.8197390E-001	-2.7037677E+002
3	0	1.468400612521073E+003	2.8144994E-001	-2.7040860E+002
3	0	1.468900612508442E+003	2.8091073E-001	-2.7038031E+002
3	0	1.469400612495810E+003	2.8036949E-001	-2.7038031E+002
3	0	1.469900612483179E+003	2.7982727E-001	-2.7039093E+002
3	0	1.470400612470548E+003	2.7931505E-001	-2.7036267E+002
3	0	1.470900612457917E+003	2.7882367E-001	-2.7037677E+002
3	0	1.471400612445286E+003	2.7832541E-001	-2.7036972E+002
3	0	1.471900612432655E+003	2.7783197E-001	-2.7039447E+002
3	0	1.472400612420024E+003	2.7734470E-001	-2.7036972E+002
3	0	1.472900612407393E+003	2.7685151E-001	-2.7038031E+002
3	0	1.473400612394762E+003	2.7633938E-001	-2.7035913E+002
3	0	1.473900612382131E+003	2.7582669E-001	-2.7037677E+002
3	0	1.474400612369500E+003	2.7536154E-001	-2.7037326E+002
3	0	1.474900612356869E+003	2.7490053E-001	-2.7035559E+002
3	0	1.475400612344238E+003	2.7444574E-001	-2.7036267E+002
3	0	1.475900612331607E+003	2.7399284E-001	-2.7036618E+002
3	0	1.476400612318976E+003	2.7352577E-001	-2.7036972E+002
3	0	1.476900612306345E+003	2.7305746E-001	-2.7036972E+002
3	0	1.477400612293713E+003	2.7257782E-001	-2.7038385E+002
3	0	1.477900612281082E+003	2.7209815E-001	-2.7038031E+002
3	0	1.478400612268451E+003	2.7166432E-001	-2.7038385E+002
3	0	1.478900612255820E+003	2.7123585E-001	-2.7037677E+002
3	0	1.479400612243189E+003	2.7081019E-001	-2.7036618E+002
3	0	1.479900612230558E+003	2.7038908E-001	-2.7039093E+002
3	0	1.480400612217927E+003	2.6996759E-001	-2.7037326E+002
3	0	1.480900612205296E+003	2.6953200E-001	-2.7037677E+002
3	0	1.481400612192665E+003	2.6908055E-001	-2.7037677E+002
3	0	1.481900612180034E+003	2.6863092E-001	-2.7036972E+002
3	0	1.482400612167403E+003	2.6821697E-001	-2.7037677E+002
3	0	1.482900612154772E+003	2.6782063E-001	-2.7036972E+002
3	0	1.483400612142141E+003	2.6741734E-001	-2.7036972E+002
3	0	1.483900612129510E+003	2.6701835E-001	-2.7035913E+002
3	0	1.484400612116879E+003	2.6662475E-001	-2.7038031E+002
3	0	1.484900612104248E+003	2.6622072E-001	-2.7039447E+002
3	0	1.485400612091616E+003	2.6580545E-001	-2.7039447E+002
3	0	1.485900612078985E+003	2.6539126E-001	-2.7037326E+002
3	0	1.486400612066354E+003	2.6500675E-001	-2.7039093E+002
3	0	1.486900612053723E+003	2.6463756E-001	-2.7037677E+002
3	0	1.487400612041092E+003	2.6427439E-001	-2.7036972E+002
3	0	1.487900612028461E+003	2.6390049E-001	-2.7036972E+002
3	0	1.488400612015830E+003	2.6354030E-001	-2.7037326E+002
3	0	1.488900612003199E+003	2.6316181E-001	-2.7037326E+002
3	0	1.489400611990568E+003	2.6277369E-001	-2.7039093E+002
3	0	1.489900611977937E+003	2.6238373E-001	-2.7037326E+002
3	0	1.490400611965306E+003	2.6203921E-001	-2.7036267E+002
3	0	1.490900611952675E+003	2.6170701E-001	-2.7035913E+002
3	0	1.491400611940044E+003	2.6137227E-001	-2.7038385E+002
3	0	1.491900611927413E+003	2.6103884E-001	-2.7036618E+002
3	0	1.492400611914782E+003	2.6071343E-001	-2.7040860E+002
3	0	1.492900611902151E+003	2.6037019E-001	-2.7036972E+002
3	0	1.493400611889520E+003	2.6000217E-001	-2.7038031E+002
3	0	1.493900611876888E+003	2.5963941E-001	-2.7040506E+002
3	0	1.494400611864257E+003	2.5933233E-001	-2.7037677E+002
3	0	1.494900611851626E+003	2.5902700E-001	-2.7035559E+002
3	0	1.495400611838995E+003	2.5871548E-001	-2.7036972E+002
3	0	1.495900611826364E+003	2.5841361E-001	-2.7037677E+002
3	0	1.496400611813733E+003	2.5811377E-001	-2.7035205E+002
3	0	1.496900611801102E+003	2.5779998E-001	-2.7036972E+002
3	0	1.497400611788471E+003	2.5745955E-001	-2.7035559E+002
3	0	1.497900611775840E+003	2.5713101E-001	-2.7040155E+002
3	0	1.498400611763209E+003	2.5685105E-001	-2.7036618E+002
3	0	1.498900611750578E+003	2.5656706E-001	-2.7037326E+002
3	0	1.499400611737947E+003	2.5627837E-001	-2.7038385E+002
3	0	1.499900611725316E+003	2.5600776E-001	-2.7037677E+002
3	0	1.500400611712685E+003	2.5573713E-001	-2.7035205E+002
3	0	1.500900611700054E+003	2.5545111E-001	-2.7038742E+002
3	0	1.501400611687423E+003	2.5513878E-001	-2.7037326E+002
3	0	1.501900611674791E+003	2.5483099E-001	-2.7038385E+002
3	0	1.502400611662160E+003	2.5456753E-001	-2.7038742E+002
3	0	1.502900611649529E+003	2.5431994E-001	-2.7035559E+002
3	0	1.503400611636898E+003	2.5405684E-001	-2.7038385E+002
3	0	1.503900611624267E+003	2.5379965E-001	-2.7039801E+002
3	0	1.504400611611636E+003	2.5353703E-001	-2.7036972E+002
3	0	1.504900611599005E+003	2.5327888E-001	-2.7040155E+002
3	0	1.505400611586374E+003	2.5298807E-001	-2.7036972E+002
3	0	1.505900611573743E+003	2.5271076E-001	-2.7037677E+002
3	0	1.506400611561112E+003	2.5246635E-001	-2.7036972E+002
3	0	1.506900611548481E+003	2.5223351E-001	-2.7035205E+002
3	0	1.506925211547859E+003	2.5212482E-001	-2.7038742E+002