EC-Lab ASCII FILE
Nb header lines : 55                          

Open Circuit Voltage

Run on channel : 1 (SN 81504)
User : 
CE vs. WE compliance from -10 V to 10 V
Electrode connection : standard
Potential control : Ewe
Ewe ctrl range : min = -2.50 V, max = 2.50 V
Safety Limits :
	Do not start on E overload
Acquisition started on : 05/07/2026 17:51:53.741
Loaded Setting File :  C:\PEM-WE_measurements\2026\372_IV_IV IrOx, 5 min Pt, 30 min C, etched cathode\new station\Loopeis new\1,46 V different time gaps open cell\Loopeis 1,46V_60s_5_PEIS from 65Hz to 10Hz.mps
Saved on :
	File : L_15_Loopeis 1,46V_60s_5_PEIS from 65Hz to 10Hz_16_OCV_C01.mpr
	Directory : C:\PEM-WE_measurements\2026\372_IV_IV IrOx, 5 min Pt, 30 min C, etched cathode\new station\Loopeis new\1,46 V different time gaps open cell\
	Host : 192.168.0.2
Device : SP-150e (SN .005491)
Address : 192.168.0.91
EC-LAB for windows v11.71 (software)
Internet server v28.00 (firmware)
Command interpretor v14.01 (firmware)
Electrode material : 
Initial state : 
Electrolyte : 
Comments : 
Current amplifier : SP-150eB-20A
Electrode surface area : 0.001 cm²
Characteristic mass : 0.001 g
Equivalent Weight : 0.000 g/eq.
Density : 0.000 g/cm3
Volume (V) : 0.001 cm³
Record Analogic IN 1
Text export
   Mode : Standard
   Time format : Elapsed
Cycle Definition : Charge/Discharge alternance
External device configuration :
   device type : Temperature Probe
   device name : Other
   Analog IN 1 : 
      unit : T/Â°C
      max : 100.000 at 2.000 V
      min : 0.000 at 1.460 V
tR (h:m:s)          0:01:0.0000         
dER/dt (mV/h)       1.0                 
record              <Ewe>               
dER (mV)            10.00               
dtR (s)             0.5000              
E range min (V)     -2.500              
E range max (V)     2.500               

mode	error	time/s	<Ewe/V>	Analog IN 1/V	
3	0	1.235756815004497E+003	1.2749561E+000	-2.7039093E+002
3	0	1.236256814991866E+003	1.2697746E+000	-2.7037677E+002
3	0	1.236756814979235E+003	1.2335781E+000	-2.7037677E+002
3	0	1.237256814966604E+003	1.1604131E+000	-2.7036618E+002
3	0	1.237756814953973E+003	9.3558276E-001	-2.7039093E+002
3	0	1.238256814941342E+003	4.8332191E-001	-2.7038031E+002
3	0	1.238756814928711E+003	3.5462517E-001	-2.7039447E+002
3	0	1.239256814916080E+003	3.3683896E-001	-2.7036618E+002
3	0	1.239756814903449E+003	3.2793269E-001	-2.7038385E+002
3	0	1.240256814890818E+003	3.2088077E-001	-2.7038385E+002
3	0	1.240756814878187E+003	3.1557184E-001	-2.7037677E+002
3	0	1.241256814865556E+003	3.1151935E-001	-2.7037326E+002
3	0	1.241756814852924E+003	3.0834085E-001	-2.7037677E+002
3	0	1.242256814840293E+003	3.0580449E-001	-2.7036267E+002
3	0	1.242756814827662E+003	3.0374181E-001	-2.7035559E+002
3	0	1.243256814815031E+003	3.0198970E-001	-2.7035559E+002
3	0	1.243756814802400E+003	3.0049178E-001	-2.7036267E+002
3	0	1.244256814789769E+003	2.9918250E-001	-2.7038031E+002
3	0	1.244756814777138E+003	2.9801071E-001	-2.7037326E+002
3	0	1.245256814764507E+003	2.9693171E-001	-2.7038031E+002
3	0	1.245756814751876E+003	2.9592699E-001	-2.7038031E+002
3	0	1.246256814739245E+003	2.9502118E-001	-2.7037677E+002
3	0	1.246756814726614E+003	2.9418963E-001	-2.7036972E+002
3	0	1.247256814713983E+003	2.9339361E-001	-2.7040155E+002
3	0	1.247756814701352E+003	2.9263368E-001	-2.7039801E+002
3	0	1.248256814688721E+003	2.9191428E-001	-2.7037326E+002
3	0	1.248756814676090E+003	2.9121786E-001	-2.7036618E+002
3	0	1.249256814663459E+003	2.9052520E-001	-2.7041568E+002
3	0	1.249756814650827E+003	2.8983888E-001	-2.7038742E+002
3	0	1.250256814638196E+003	2.8918794E-001	-2.7036972E+002
3	0	1.250756814625565E+003	2.8856954E-001	-2.7035913E+002
3	0	1.251256814612934E+003	2.8795400E-001	-2.7036972E+002
3	0	1.251756814600303E+003	2.8735787E-001	-2.7039093E+002
3	0	1.252256814587672E+003	2.8677085E-001	-2.7035559E+002
3	0	1.252756814575041E+003	2.8619072E-001	-2.7038031E+002
3	0	1.253256814562410E+003	2.8559545E-001	-2.7036972E+002
3	0	1.253756814549779E+003	2.8499308E-001	-2.7038742E+002
3	0	1.254256814537148E+003	2.8442615E-001	-2.7036267E+002
3	0	1.254756814524517E+003	2.8387299E-001	-2.7038031E+002
3	0	1.255256814511886E+003	2.8332439E-001	-2.7036267E+002
3	0	1.255756814499255E+003	2.8277868E-001	-2.7038385E+002
3	0	1.256256814486624E+003	2.8225005E-001	-2.7038031E+002
3	0	1.256756814473993E+003	2.8172171E-001	-2.7037677E+002
3	0	1.257256814461362E+003	2.8118035E-001	-2.7039093E+002
3	0	1.257756814448730E+003	2.8062841E-001	-2.7036972E+002
3	0	1.258256814436099E+003	2.8011236E-001	-2.7039093E+002
3	0	1.258756814423468E+003	2.7960691E-001	-2.7036972E+002
3	0	1.259256814410837E+003	2.7910507E-001	-2.7038742E+002
3	0	1.259756814398206E+003	2.7860665E-001	-2.7038742E+002
3	0	1.260256814385575E+003	2.7810973E-001	-2.7036267E+002
3	0	1.260756814372944E+003	2.7761930E-001	-2.7036267E+002
3	0	1.261256814360313E+003	2.7711794E-001	-2.7037326E+002
3	0	1.261756814347682E+003	2.7659175E-001	-2.7038385E+002
3	0	1.262256814335051E+003	2.7610168E-001	-2.7039447E+002
3	0	1.262756814322420E+003	2.7564332E-001	-2.7036618E+002
3	0	1.263256814309789E+003	2.7518275E-001	-2.7039447E+002
3	0	1.263756814297158E+003	2.7470297E-001	-2.7040155E+002
3	0	1.264256814284527E+003	2.7424714E-001	-2.7038031E+002
3	0	1.264756814271896E+003	2.7379295E-001	-2.7037326E+002
3	0	1.265256814259265E+003	2.7332148E-001	-2.7039801E+002
3	0	1.265756814246633E+003	2.7283359E-001	-2.7036267E+002
3	0	1.266256814234002E+003	2.7238369E-001	-2.7035205E+002
3	0	1.266756814221371E+003	2.7195218E-001	-2.7037326E+002
3	0	1.267256814208740E+003	2.7151319E-001	-2.7036618E+002
3	0	1.267756814196109E+003	2.7107936E-001	-2.7039801E+002
3	0	1.268256814183478E+003	2.7065945E-001	-2.7039093E+002
3	0	1.268756814170847E+003	2.7024281E-001	-2.7037677E+002
3	0	1.269256814158216E+003	2.6979718E-001	-2.7036267E+002
3	0	1.269756814145585E+003	2.6934922E-001	-2.7038385E+002
3	0	1.270256814132954E+003	2.6893407E-001	-2.7036267E+002
3	0	1.270756814120323E+003	2.6852882E-001	-2.7038385E+002
3	0	1.271256814107692E+003	2.6812404E-001	-2.7036618E+002
3	0	1.271756814095061E+003	2.6773065E-001	-2.7038031E+002
3	0	1.272256814082430E+003	2.6733771E-001	-2.7036972E+002
3	0	1.272756814069799E+003	2.6694342E-001	-2.7039093E+002
3	0	1.273256814057168E+003	2.6653805E-001	-2.7039447E+002
3	0	1.273756814044536E+003	2.6611826E-001	-2.7038385E+002
3	0	1.274256814031905E+003	2.6573110E-001	-2.7037326E+002
3	0	1.274756814019274E+003	2.6537308E-001	-2.7038031E+002
3	0	1.275256814006643E+003	2.6499274E-001	-2.7037677E+002
3	0	1.275756813994012E+003	2.6462486E-001	-2.7035559E+002
3	0	1.276256813981381E+003	2.6426387E-001	-2.7036618E+002
3	0	1.276756813968750E+003	2.6389211E-001	-2.7037326E+002
3	0	1.277256813956119E+003	2.6351544E-001	-2.7037326E+002
3	0	1.277756813943488E+003	2.6312384E-001	-2.7038031E+002
3	0	1.278256813930857E+003	2.6277122E-001	-2.7037677E+002
3	0	1.278756813918226E+003	2.6242962E-001	-2.7035559E+002
3	0	1.279256813905595E+003	2.6208755E-001	-2.7039093E+002
3	0	1.279756813892964E+003	2.6175475E-001	-2.7036972E+002
3	0	1.280256813880333E+003	2.6140967E-001	-2.7037326E+002
3	0	1.280756813867702E+003	2.6107961E-001	-2.7040506E+002
3	0	1.281256813855071E+003	2.6073581E-001	-2.7037677E+002
3	0	1.281756813842439E+003	2.6038352E-001	-2.7039447E+002
3	0	1.282256813829808E+003	2.6004469E-001	-2.7038031E+002
3	0	1.282756813817177E+003	2.5973290E-001	-2.7035205E+002
3	0	1.283256813804546E+003	2.5941721E-001	-2.7037677E+002
3	0	1.283756813791915E+003	2.5910664E-001	-2.7037326E+002
3	0	1.284256813779284E+003	2.5879791E-001	-2.7038742E+002
3	0	1.284756813766653E+003	2.5849086E-001	-2.7038742E+002
3	0	1.285256813754022E+003	2.5817460E-001	-2.7039447E+002
3	0	1.285756813741391E+003	2.5783968E-001	-2.7038031E+002
3	0	1.286256813728760E+003	2.5753522E-001	-2.7038385E+002
3	0	1.286756813716129E+003	2.5725275E-001	-2.7038031E+002
3	0	1.287256813703498E+003	2.5697371E-001	-2.7035205E+002
3	0	1.287756813690867E+003	2.5669765E-001	-2.7038742E+002
3	0	1.288256813678236E+003	2.5641298E-001	-2.7037326E+002
3	0	1.288756813665605E+003	2.5612926E-001	-2.7035913E+002
3	0	1.289256813652974E+003	2.5584412E-001	-2.7035913E+002
3	0	1.289756813640342E+003	2.5554216E-001	-2.7037677E+002
3	0	1.290256813627711E+003	2.5525856E-001	-2.7040155E+002
3	0	1.290756813615080E+003	2.5500360E-001	-2.7038031E+002
3	0	1.291256813602449E+003	2.5473732E-001	-2.7039801E+002
3	0	1.291756813589818E+003	2.5448650E-001	-2.7037326E+002
3	0	1.292256813577187E+003	2.5422752E-001	-2.7038742E+002
3	0	1.292756813564556E+003	2.5396404E-001	-2.7037326E+002
3	0	1.293256813551925E+003	2.5369415E-001	-2.7036618E+002
3	0	1.293756813539294E+003	2.5341392E-001	-2.7037677E+002
3	0	1.294256813526663E+003	2.5316525E-001	-2.7039093E+002
3	0	1.294756813514032E+003	2.5292963E-001	-2.7040155E+002
3	0	1.295256813501401E+003	2.5269356E-001	-2.7037326E+002
3	0	1.295281413500779E+003	2.5257087E-001	-2.7040506E+002