EC-Lab ASCII FILE
Nb header lines : 55                          

Open Circuit Voltage

Run on channel : 1 (SN 81504)
User : 
CE vs. WE compliance from -10 V to 10 V
Electrode connection : standard
Potential control : Ewe
Ewe ctrl range : min = -2.50 V, max = 2.50 V
Safety Limits :
	Do not start on E overload
Acquisition started on : 05/07/2026 17:51:53.741
Loaded Setting File :  C:\PEM-WE_measurements\2026\372_IV_IV IrOx, 5 min Pt, 30 min C, etched cathode\new station\Loopeis new\1,46 V different time gaps open cell\Loopeis 1,46V_60s_5_PEIS from 65Hz to 10Hz.mps
Saved on :
	File : L_15_Loopeis 1,46V_60s_5_PEIS from 65Hz to 10Hz_12_OCV_C01.mpr
	Directory : C:\PEM-WE_measurements\2026\372_IV_IV IrOx, 5 min Pt, 30 min C, etched cathode\new station\Loopeis new\1,46 V different time gaps open cell\
	Host : 192.168.0.2
Device : SP-150e (SN .005491)
Address : 192.168.0.91
EC-LAB for windows v11.71 (software)
Internet server v28.00 (firmware)
Command interpretor v14.01 (firmware)
Electrode material : 
Initial state : 
Electrolyte : 
Comments : 
Current amplifier : SP-150eB-20A
Electrode surface area : 0.001 cm²
Characteristic mass : 0.001 g
Equivalent Weight : 0.000 g/eq.
Density : 0.000 g/cm3
Volume (V) : 0.001 cm³
Record Analogic IN 1
Text export
   Mode : Standard
   Time format : Elapsed
Cycle Definition : Charge/Discharge alternance
External device configuration :
   device type : Temperature Probe
   device name : Other
   Analog IN 1 : 
      unit : T/Â°C
      max : 100.000 at 2.000 V
      min : 0.000 at 1.460 V
tR (h:m:s)          0:01:0.0000         
dER/dt (mV/h)       1.0                 
record              <Ewe>               
dER (mV)            10.00               
dtR (s)             0.5000              
E range min (V)     -2.500              
E range max (V)     2.500               

mode	error	time/s	<Ewe/V>	Analog IN 1/V	
3	0	1.024109016957227E+003	1.2765491E+000	-2.7037677E+002
3	0	1.024609016944596E+003	1.2715786E+000	-2.7037326E+002
3	0	1.025109016931965E+003	1.2359431E+000	-2.7038031E+002
3	0	1.025609016919334E+003	1.1643213E+000	-2.7035559E+002
3	0	1.026109016906703E+003	9.4445163E-001	-2.7039801E+002
3	0	1.026609016894072E+003	4.8681673E-001	-2.7037677E+002
3	0	1.027109016881441E+003	3.5722265E-001	-2.7036972E+002
3	0	1.027609016868810E+003	3.3922625E-001	-2.7039093E+002
3	0	1.028109016856179E+003	3.3020857E-001	-2.7036618E+002
3	0	1.028609016843548E+003	3.2311991E-001	-2.7037677E+002
3	0	1.029109016830917E+003	3.1776261E-001	-2.7038385E+002
3	0	1.029609016818285E+003	3.1368026E-001	-2.7036972E+002
3	0	1.030109016805654E+003	3.1047460E-001	-2.7040506E+002
3	0	1.030609016793023E+003	3.0792972E-001	-2.7038385E+002
3	0	1.031109016780392E+003	3.0584764E-001	-2.7039093E+002
3	0	1.031609016767761E+003	3.0410817E-001	-2.7038742E+002
3	0	1.032109016755130E+003	3.0260038E-001	-2.7035913E+002
3	0	1.032609016742499E+003	3.0128258E-001	-2.7038031E+002
3	0	1.033109016729868E+003	3.0009687E-001	-2.7036972E+002
3	0	1.033609016717237E+003	2.9899615E-001	-2.7037326E+002
3	0	1.034109016704606E+003	2.9798210E-001	-2.7040506E+002
3	0	1.034609016691975E+003	2.9706937E-001	-2.7036972E+002
3	0	1.035109016679344E+003	2.9623273E-001	-2.7036618E+002
3	0	1.035609016666713E+003	2.9544279E-001	-2.7035913E+002
3	0	1.036109016654082E+003	2.9469469E-001	-2.7036267E+002
3	0	1.036609016641451E+003	2.9396617E-001	-2.7039447E+002
3	0	1.037109016628820E+003	2.9325789E-001	-2.7039447E+002
3	0	1.037609016616188E+003	2.9253989E-001	-2.7039447E+002
3	0	1.038109016603557E+003	2.9184321E-001	-2.7037677E+002
3	0	1.038609016590926E+003	2.9119477E-001	-2.7039093E+002
3	0	1.039109016578295E+003	2.9057160E-001	-2.7036972E+002
3	0	1.039609016565664E+003	2.8996831E-001	-2.7037677E+002
3	0	1.040109016553033E+003	2.8936207E-001	-2.7038742E+002
3	0	1.040609016540402E+003	2.8877693E-001	-2.7037326E+002
3	0	1.041109016527771E+003	2.8817937E-001	-2.7037326E+002
3	0	1.041609016515140E+003	2.8756762E-001	-2.7036972E+002
3	0	1.042109016502509E+003	2.8696609E-001	-2.7038385E+002
3	0	1.042609016489878E+003	2.8640205E-001	-2.7039093E+002
3	0	1.043109016477247E+003	2.8585467E-001	-2.7038385E+002
3	0	1.043609016464616E+003	2.8531298E-001	-2.7038385E+002
3	0	1.044109016451985E+003	2.8477702E-001	-2.7036972E+002
3	0	1.044609016439354E+003	2.8424203E-001	-2.7038385E+002
3	0	1.045109016426723E+003	2.8370035E-001	-2.7035559E+002
3	0	1.045609016414091E+003	2.8314188E-001	-2.7038031E+002
3	0	1.046109016401460E+003	2.8258786E-001	-2.7039093E+002
3	0	1.046609016388829E+003	2.8207126E-001	-2.7038031E+002
3	0	1.047109016376198E+003	2.8156829E-001	-2.7037326E+002
3	0	1.047609016363567E+003	2.8106886E-001	-2.7039093E+002
3	0	1.048109016350936E+003	2.8057468E-001	-2.7037677E+002
3	0	1.048609016338305E+003	2.8008965E-001	-2.7038742E+002
3	0	1.049109016325674E+003	2.7958363E-001	-2.7034497E+002
3	0	1.049609016313043E+003	2.7906081E-001	-2.7036618E+002
3	0	1.050109016300412E+003	2.7854589E-001	-2.7038031E+002
3	0	1.050609016287781E+003	2.7806985E-001	-2.7036972E+002
3	0	1.051109016275150E+003	2.7760446E-001	-2.7038385E+002
3	0	1.051609016262519E+003	2.7713931E-001	-2.7038031E+002
3	0	1.052109016249888E+003	2.7667278E-001	-2.7034497E+002
3	0	1.052609016237257E+003	2.7621761E-001	-2.7039093E+002
3	0	1.053109016224626E+003	2.7575406E-001	-2.7037326E+002
3	0	1.053609016211994E+003	2.7527738E-001	-2.7035913E+002
3	0	1.054109016199363E+003	2.7479047E-001	-2.7037677E+002
3	0	1.054609016186732E+003	2.7435395E-001	-2.7037326E+002
3	0	1.055109016174101E+003	2.7393180E-001	-2.7037326E+002
3	0	1.055609016161470E+003	2.7349457E-001	-2.7038742E+002
3	0	1.056109016148839E+003	2.7306154E-001	-2.7037677E+002
3	0	1.056609016136208E+003	2.7263334E-001	-2.7038742E+002
3	0	1.057109016123577E+003	2.7219328E-001	-2.7037677E+002
3	0	1.057609016110946E+003	2.7174628E-001	-2.7037326E+002
3	0	1.058109016098315E+003	2.7129734E-001	-2.7038031E+002
3	0	1.058609016085684E+003	2.7089310E-001	-2.7038031E+002
3	0	1.059109016073053E+003	2.7049655E-001	-2.7036972E+002
3	0	1.059609016060422E+003	2.7010497E-001	-2.7038742E+002
3	0	1.060109016047791E+003	2.6970363E-001	-2.7037677E+002
3	0	1.060609016035160E+003	2.6930812E-001	-2.7036972E+002
3	0	1.061109016022529E+003	2.6890588E-001	-2.7040506E+002
3	0	1.061609016009897E+003	2.6848200E-001	-2.7038031E+002
3	0	1.062109015997266E+003	2.6805875E-001	-2.7036267E+002
3	0	1.062609015984635E+003	2.6769030E-001	-2.7037326E+002
3	0	1.063109015972004E+003	2.6731956E-001	-2.7036618E+002
3	0	1.063609015959373E+003	2.6694578E-001	-2.7037326E+002
3	0	1.064109015946742E+003	2.6658112E-001	-2.7038031E+002
3	0	1.064609015934111E+003	2.6622298E-001	-2.7039093E+002
3	0	1.065109015921480E+003	2.6585230E-001	-2.7034143E+002
3	0	1.065609015908849E+003	2.6547167E-001	-2.7037677E+002
3	0	1.066109015896218E+003	2.6508239E-001	-2.7039093E+002
3	0	1.066609015883587E+003	2.6473856E-001	-2.7036618E+002
3	0	1.067109015870956E+003	2.6440331E-001	-2.7037677E+002
3	0	1.067609015858325E+003	2.6406774E-001	-2.7036618E+002
3	0	1.068109015845694E+003	2.6372871E-001	-2.7034497E+002
3	0	1.068609015833063E+003	2.6339915E-001	-2.7038385E+002
3	0	1.069109015820432E+003	2.6305246E-001	-2.7036972E+002
3	0	1.069609015807800E+003	2.6268941E-001	-2.7038385E+002
3	0	1.070109015795169E+003	2.6233113E-001	-2.7038742E+002
3	0	1.070609015782538E+003	2.6201630E-001	-2.7036267E+002
3	0	1.071109015769907E+003	2.6171586E-001	-2.7038031E+002
3	0	1.071609015757276E+003	2.6140556E-001	-2.7037326E+002
3	0	1.072109015744645E+003	2.6109752E-001	-2.7039093E+002
3	0	1.072609015732014E+003	2.6079777E-001	-2.7036972E+002
3	0	1.073109015719383E+003	2.6048970E-001	-2.7036972E+002
3	0	1.073609015706752E+003	2.6014528E-001	-2.7036972E+002
3	0	1.074109015694121E+003	2.5981459E-001	-2.7037326E+002
3	0	1.074609015681490E+003	2.5952178E-001	-2.7038385E+002
3	0	1.075109015668859E+003	2.5925058E-001	-2.7034851E+002
3	0	1.075609015656228E+003	2.5896135E-001	-2.7040155E+002
3	0	1.076109015643597E+003	2.5867721E-001	-2.7034497E+002
3	0	1.076609015630966E+003	2.5839877E-001	-2.7035913E+002
3	0	1.077109015618335E+003	2.5811559E-001	-2.7037326E+002
3	0	1.077609015605703E+003	2.5780329E-001	-2.7038031E+002
3	0	1.078109015593072E+003	2.5749457E-001	-2.7037326E+002
3	0	1.078609015580441E+003	2.5723001E-001	-2.7038031E+002
3	0	1.079109015567810E+003	2.5698268E-001	-2.7039801E+002
3	0	1.079609015555179E+003	2.5673160E-001	-2.7036267E+002
3	0	1.080109015542548E+003	2.5646442E-001	-2.7038742E+002
3	0	1.080609015529917E+003	2.5620091E-001	-2.7036267E+002
3	0	1.081109015517286E+003	2.5594676E-001	-2.7039447E+002
3	0	1.081609015504655E+003	2.5566915E-001	-2.7035913E+002
3	0	1.082109015492024E+003	2.5538185E-001	-2.7038742E+002
3	0	1.082609015479393E+003	2.5513843E-001	-2.7036972E+002
3	0	1.083109015466762E+003	2.5490621E-001	-2.7038385E+002
3	0	1.083609015454131E+003	2.5467080E-001	-2.7036972E+002
3	0	1.083633615453509E+003	2.5454241E-001	-2.7038742E+002