EC-Lab ASCII FILE
Nb header lines : 55                          

Open Circuit Voltage

Run on channel : 1 (SN 81504)
User : 
CE vs. WE compliance from -10 V to 10 V
Electrode connection : standard
Potential control : Ewe
Ewe ctrl range : min = -2.50 V, max = 2.50 V
Safety Limits :
	Do not start on E overload
Acquisition started on : 05/07/2026 17:51:53.741
Loaded Setting File :  C:\PEM-WE_measurements\2026\372_IV_IV IrOx, 5 min Pt, 30 min C, etched cathode\new station\Loopeis new\1,46 V different time gaps open cell\Loopeis 1,46V_60s_5_PEIS from 65Hz to 10Hz.mps
Saved on :
	File : L_15_Loopeis 1,46V_60s_5_PEIS from 65Hz to 10Hz_02_OCV_C01.mpr
	Directory : C:\PEM-WE_measurements\2026\372_IV_IV IrOx, 5 min Pt, 30 min C, etched cathode\new station\Loopeis new\1,46 V different time gaps open cell\
	Host : 192.168.0.2
Device : SP-150e (SN .005491)
Address : 192.168.0.91
EC-LAB for windows v11.71 (software)
Internet server v28.00 (firmware)
Command interpretor v14.01 (firmware)
Electrode material : 
Initial state : 
Electrolyte : 
Comments : 
Current amplifier : SP-150eB-20A
Electrode surface area : 0.001 cm²
Characteristic mass : 0.001 g
Equivalent Weight : 0.000 g/eq.
Density : 0.000 g/cm3
Volume (V) : 0.001 cm³
Record Analogic IN 1
Text export
   Mode : Standard
   Time format : Elapsed
Cycle Definition : Charge/Discharge alternance
External device configuration :
   device type : Temperature Probe
   device name : Other
   Analog IN 1 : 
      unit : T/Â°C
      max : 100.000 at 2.000 V
      min : 0.000 at 1.460 V
tR (h:m:s)          0:01:0.0000         
dER/dt (mV/h)       1.0                 
record              <Ewe>               
dER (mV)            10.00               
dtR (s)             0.5000              
E range min (V)     -2.500              
E range max (V)     2.500               

mode	error	time/s	<Ewe/V>	Analog IN 1/V	
3	0	4.549979885057837E+001	1.2758390E+000	-2.7036267E+002
3	0	4.599979883794731E+001	1.2688888E+000	-2.7038742E+002
3	0	4.649979882531625E+001	1.2310675E+000	-2.7039093E+002
3	0	4.699979881268519E+001	1.1566932E+000	-2.7036267E+002
3	0	4.749979880005412E+001	9.3317837E-001	-2.7036267E+002
3	0	4.799979878742306E+001	4.8561716E-001	-2.7039093E+002
3	0	4.849979877479200E+001	3.5278696E-001	-2.7037677E+002
3	0	4.899979876216094E+001	3.3441913E-001	-2.7038385E+002
3	0	4.949979874952987E+001	3.2566684E-001	-2.7037326E+002
3	0	4.999979873689881E+001	3.1863210E-001	-2.7038742E+002
3	0	5.049979872426775E+001	3.1324363E-001	-2.7039093E+002
3	0	5.099979871163669E+001	3.0910641E-001	-2.7037326E+002
3	0	5.149979869900562E+001	3.0588937E-001	-2.7039093E+002
3	0	5.199979868637456E+001	3.0331266E-001	-2.7037677E+002
3	0	5.249979867374350E+001	3.0119666E-001	-2.7036267E+002
3	0	5.299979866111244E+001	2.9941374E-001	-2.7037326E+002
3	0	5.349979864848137E+001	2.9788336E-001	-2.7035205E+002
3	0	5.399979863585031E+001	2.9651853E-001	-2.7036267E+002
3	0	5.449979862321925E+001	2.9528373E-001	-2.7039093E+002
3	0	5.499979861058819E+001	2.9416883E-001	-2.7035913E+002
3	0	5.549979859795712E+001	2.9318503E-001	-2.7038031E+002
3	0	5.599979858532606E+001	2.9228237E-001	-2.7036618E+002
3	0	5.649979857269500E+001	2.9142657E-001	-2.7038031E+002
3	0	5.699979856006394E+001	2.9061991E-001	-2.7040860E+002
3	0	5.749979854743287E+001	2.8985873E-001	-2.7036618E+002
3	0	5.799979853480181E+001	2.8911084E-001	-2.7037326E+002
3	0	5.849979852217075E+001	2.8837788E-001	-2.7035559E+002
3	0	5.899979850953969E+001	2.8765774E-001	-2.7036267E+002
3	0	5.949979849690862E+001	2.8700379E-001	-2.7037326E+002
3	0	5.999979848427756E+001	2.8636217E-001	-2.7038385E+002
3	0	6.049979847164650E+001	2.8573859E-001	-2.7035559E+002
3	0	6.099979845901544E+001	2.8512850E-001	-2.7038031E+002
3	0	6.149979844638438E+001	2.8452298E-001	-2.7038385E+002
3	0	6.199979843375331E+001	2.8391594E-001	-2.7040506E+002
3	0	6.249979842112225E+001	2.8329512E-001	-2.7037677E+002
3	0	6.299979840849119E+001	2.8268722E-001	-2.7038031E+002
3	0	6.349979839586013E+001	2.8212583E-001	-2.7036972E+002
3	0	6.399979838322906E+001	2.8157458E-001	-2.7036972E+002
3	0	6.449979837059800E+001	2.8102845E-001	-2.7036267E+002
3	0	6.499979835796694E+001	2.8049016E-001	-2.7038385E+002
3	0	6.549979834533588E+001	2.7995086E-001	-2.7038385E+002
3	0	6.599979833270481E+001	2.7940452E-001	-2.7037677E+002
3	0	6.649979832007375E+001	2.7885148E-001	-2.7036267E+002
3	0	6.699979830744269E+001	2.7830139E-001	-2.7036972E+002
3	0	6.749979829481163E+001	2.7778092E-001	-2.7036267E+002
3	0	6.799979828218056E+001	2.7727515E-001	-2.7038031E+002
3	0	6.849979826954950E+001	2.7676871E-001	-2.7037677E+002
3	0	6.899979825691844E+001	2.7626467E-001	-2.7038742E+002
3	0	6.949979824428738E+001	2.7576381E-001	-2.7038031E+002
3	0	6.999979823165631E+001	2.7525431E-001	-2.7034851E+002
3	0	7.049979821902525E+001	2.7473301E-001	-2.7038031E+002
3	0	7.099979820639419E+001	2.7422184E-001	-2.7037326E+002
3	0	7.149979819376313E+001	2.7374849E-001	-2.7036618E+002
3	0	7.199979818113206E+001	2.7327847E-001	-2.7038385E+002
3	0	7.249979816850100E+001	2.7280360E-001	-2.7036972E+002
3	0	7.299979815586994E+001	2.7234375E-001	-2.7036972E+002
3	0	7.349979814323888E+001	2.7188945E-001	-2.7038031E+002
3	0	7.399979813060781E+001	2.7140823E-001	-2.7037677E+002
3	0	7.449979811797675E+001	2.7092311E-001	-2.7038385E+002
3	0	7.499979810534569E+001	2.7043742E-001	-2.7037677E+002
3	0	7.549979809271463E+001	2.6999670E-001	-2.7039801E+002
3	0	7.599979808008356E+001	2.6956105E-001	-2.7036267E+002
3	0	7.649979806745250E+001	2.6912606E-001	-2.7033789E+002
3	0	7.699979805482144E+001	2.6868701E-001	-2.7037677E+002
3	0	7.749979804219038E+001	2.6825735E-001	-2.7037677E+002
3	0	7.799979802955932E+001	2.6781136E-001	-2.7036972E+002
3	0	7.849979801692825E+001	2.6734954E-001	-2.7038385E+002
3	0	7.899979800429719E+001	2.6690117E-001	-2.7039801E+002
3	0	7.949979799166613E+001	2.6649410E-001	-2.7035559E+002
3	0	7.999979797903507E+001	2.6608682E-001	-2.7036267E+002
3	0	8.049979796640400E+001	2.6568112E-001	-2.7040155E+002
3	0	8.099979795377294E+001	2.6527387E-001	-2.7037326E+002
3	0	8.149979794114188E+001	2.6487744E-001	-2.7035913E+002
3	0	8.199979792851082E+001	2.6447228E-001	-2.7040860E+002
3	0	8.249979791587975E+001	2.6404837E-001	-2.7036972E+002
3	0	8.299979790324869E+001	2.6363048E-001	-2.7038742E+002
3	0	8.349979789061763E+001	2.6325145E-001	-2.7035913E+002
3	0	8.399979787798657E+001	2.6287907E-001	-2.7036972E+002
3	0	8.449979786535550E+001	2.6250291E-001	-2.7035913E+002
3	0	8.499979785272444E+001	2.6213145E-001	-2.7039093E+002
3	0	8.549979784009338E+001	2.6176041E-001	-2.7039093E+002
3	0	8.599979782746232E+001	2.6138023E-001	-2.7036267E+002
3	0	8.649979781483125E+001	2.6098326E-001	-2.7038385E+002
3	0	8.699979780220019E+001	2.6059860E-001	-2.7039801E+002
3	0	8.749979778956913E+001	2.6025271E-001	-2.7036972E+002
3	0	8.799979777693807E+001	2.5990793E-001	-2.7040155E+002
3	0	8.849979776430700E+001	2.5957096E-001	-2.7038385E+002
3	0	8.899979775167594E+001	2.5923312E-001	-2.7039093E+002
3	0	8.949979773904488E+001	2.5888541E-001	-2.7038742E+002
3	0	8.999979772641382E+001	2.5853649E-001	-2.7039093E+002
3	0	9.049979771378275E+001	2.5816354E-001	-2.7036267E+002
3	0	9.099979770115169E+001	2.5780672E-001	-2.7038742E+002
3	0	9.149979768852063E+001	2.5749269E-001	-2.7037677E+002
3	0	9.199979767588957E+001	2.5717720E-001	-2.7037326E+002
3	0	9.249979766325851E+001	2.5686654E-001	-2.7037326E+002
3	0	9.299979765062744E+001	2.5654945E-001	-2.7037326E+002
3	0	9.349979763799638E+001	2.5624034E-001	-2.7036972E+002
3	0	9.399979762536532E+001	2.5591135E-001	-2.7038031E+002
3	0	9.449979761273426E+001	2.5556961E-001	-2.7038385E+002
3	0	9.499979760010319E+001	2.5523365E-001	-2.7036972E+002
3	0	9.549979758747213E+001	2.5495118E-001	-2.7039801E+002
3	0	9.599979757484107E+001	2.5466347E-001	-2.7036618E+002
3	0	9.649979756221001E+001	2.5437304E-001	-2.7036972E+002
3	0	9.699979754957894E+001	2.5408787E-001	-2.7037326E+002
3	0	9.749979753694788E+001	2.5380167E-001	-2.7037326E+002
3	0	9.799979752431682E+001	2.5350490E-001	-2.7038385E+002
3	0	9.849979751168576E+001	2.5318840E-001	-2.7036972E+002
3	0	9.899979749905469E+001	2.5288507E-001	-2.7036972E+002
3	0	9.949979748642363E+001	2.5261426E-001	-2.7037677E+002
3	0	9.999979747379257E+001	2.5235888E-001	-2.7038031E+002
3	0	1.004997974611615E+002	2.5209558E-001	-2.7038031E+002
3	0	1.009997974485304E+002	2.5183252E-001	-2.7039801E+002
3	0	1.014997974358994E+002	2.5157535E-001	-2.7036618E+002
3	0	1.019997974232683E+002	2.5130033E-001	-2.7038031E+002
3	0	1.024997974106373E+002	2.5100735E-001	-2.7036618E+002
3	0	1.029997973980062E+002	2.5072876E-001	-2.7037677E+002
3	0	1.034997973853751E+002	2.5049022E-001	-2.7035559E+002
3	0	1.039997973727441E+002	2.5025544E-001	-2.7037677E+002
3	0	1.044997973601130E+002	2.5001237E-001	-2.7036618E+002
3	0	1.049997973474819E+002	2.4977994E-001	-2.7036618E+002
3	0	1.050001973474718E+002	2.4958652E-001	-2.7039447E+002