EC-Lab ASCII FILE
Nb header lines : 55                          

Open Circuit Voltage

Run on channel : 1 (SN 81504)
User : 
CE vs. WE compliance from -10 V to 10 V
Electrode connection : standard
Potential control : Ewe
Ewe ctrl range : min = -2.50 V, max = 2.50 V
Safety Limits :
	Do not start on E overload
Acquisition started on : 05/07/2026 17:51:53.741
Loaded Setting File :  C:\PEM-WE_measurements\2026\372_IV_IV IrOx, 5 min Pt, 30 min C, etched cathode\new station\Loopeis new\1,46 V different time gaps open cell\Loopeis 1,46V_60s_5_PEIS from 65Hz to 10Hz.mps
Saved on :
	File : L_15_Loopeis 1,46V_60s_5_PEIS from 65Hz to 10Hz_06_OCV_C01.mpr
	Directory : C:\PEM-WE_measurements\2026\372_IV_IV IrOx, 5 min Pt, 30 min C, etched cathode\new station\Loopeis new\1,46 V different time gaps open cell\
	Host : 192.168.0.2
Device : SP-150e (SN .005491)
Address : 192.168.0.91
EC-LAB for windows v11.71 (software)
Internet server v28.00 (firmware)
Command interpretor v14.01 (firmware)
Electrode material : 
Initial state : 
Electrolyte : 
Comments : 
Current amplifier : SP-150eB-20A
Electrode surface area : 0.001 cm²
Characteristic mass : 0.001 g
Equivalent Weight : 0.000 g/eq.
Density : 0.000 g/cm3
Volume (V) : 0.001 cm³
Record Analogic IN 1
Text export
   Mode : Standard
   Time format : Elapsed
Cycle Definition : Charge/Discharge alternance
External device configuration :
   device type : Temperature Probe
   device name : Other
   Analog IN 1 : 
      unit : T/Â°C
      max : 100.000 at 2.000 V
      min : 0.000 at 1.460 V
tR (h:m:s)          0:01:0.0000         
dER/dt (mV/h)       1.0                 
record              <Ewe>               
dER (mV)            10.00               
dtR (s)             0.5000              
E range min (V)     -2.500              
E range max (V)     2.500               

mode	error	time/s	<Ewe/V>	Analog IN 1/V	
3	0	7.080656183153042E+002	1.2760878E+000	-2.7036972E+002
3	0	7.085656183026731E+002	1.2698669E+000	-2.7039447E+002
3	0	7.090656182900420E+002	1.2328252E+000	-2.7039093E+002
3	0	7.095656182774110E+002	1.1575345E+000	-2.7038742E+002
3	0	7.100656182647799E+002	9.1931409E-001	-2.7036267E+002
3	0	7.105656182521489E+002	4.7618890E-001	-2.7038385E+002
3	0	7.110656182395178E+002	3.5512447E-001	-2.7037677E+002
3	0	7.115656182268867E+002	3.3806354E-001	-2.7037326E+002
3	0	7.120656182142557E+002	3.2921755E-001	-2.7038385E+002
3	0	7.125656182016246E+002	3.2223141E-001	-2.7039447E+002
3	0	7.130656181889935E+002	3.1694332E-001	-2.7037677E+002
3	0	7.135656181763625E+002	3.1291303E-001	-2.7040155E+002
3	0	7.140656181637314E+002	3.0975372E-001	-2.7038031E+002
3	0	7.145656181511004E+002	3.0721021E-001	-2.7036972E+002
3	0	7.150656181384693E+002	3.0513984E-001	-2.7037326E+002
3	0	7.155656181258382E+002	3.0340311E-001	-2.7037677E+002
3	0	7.160656181132072E+002	3.0191278E-001	-2.7039447E+002
3	0	7.165656181005761E+002	3.0060136E-001	-2.7039093E+002
3	0	7.170656180879450E+002	2.9943362E-001	-2.7038385E+002
3	0	7.175656180753140E+002	2.9837340E-001	-2.7038385E+002
3	0	7.180656180626829E+002	2.9737565E-001	-2.7037677E+002
3	0	7.185656180500519E+002	2.9644185E-001	-2.7037326E+002
3	0	7.190656180374208E+002	2.9560298E-001	-2.7041214E+002
3	0	7.195656180247897E+002	2.9481673E-001	-2.7036972E+002
3	0	7.200656180121587E+002	2.9406855E-001	-2.7035559E+002
3	0	7.205656179995276E+002	2.9335111E-001	-2.7038031E+002
3	0	7.210656179868965E+002	2.9265365E-001	-2.7040506E+002
3	0	7.215656179742655E+002	2.9197377E-001	-2.7037326E+002
3	0	7.220656179616344E+002	2.9128632E-001	-2.7036618E+002
3	0	7.225656179490034E+002	2.9061219E-001	-2.7037677E+002
3	0	7.230656179363723E+002	2.8999332E-001	-2.7038385E+002
3	0	7.235656179237412E+002	2.8939080E-001	-2.7036972E+002
3	0	7.240656179111102E+002	2.8880373E-001	-2.7038031E+002
3	0	7.245656178984791E+002	2.8822595E-001	-2.7039447E+002
3	0	7.250656178858480E+002	2.8764844E-001	-2.7038385E+002
3	0	7.255656178732170E+002	2.8707325E-001	-2.7037677E+002
3	0	7.260656178605859E+002	2.8647920E-001	-2.7037677E+002
3	0	7.265656178479549E+002	2.8589651E-001	-2.7036267E+002
3	0	7.270656178353238E+002	2.8535849E-001	-2.7037326E+002
3	0	7.275656178226927E+002	2.8482258E-001	-2.7036618E+002
3	0	7.280656178100617E+002	2.8429589E-001	-2.7034851E+002
3	0	7.285656177974306E+002	2.8376451E-001	-2.7036972E+002
3	0	7.290656177847995E+002	2.8324211E-001	-2.7036618E+002
3	0	7.295656177721685E+002	2.8271198E-001	-2.7039801E+002
3	0	7.300656177595374E+002	2.8217968E-001	-2.7040860E+002
3	0	7.305656177469064E+002	2.8163186E-001	-2.7036972E+002
3	0	7.310656177342753E+002	2.8113434E-001	-2.7037326E+002
3	0	7.315656177216442E+002	2.8064352E-001	-2.7038031E+002
3	0	7.320656177090132E+002	2.8014952E-001	-2.7037677E+002
3	0	7.325656176963821E+002	2.7966061E-001	-2.7036267E+002
3	0	7.330656176837510E+002	2.7918690E-001	-2.7037326E+002
3	0	7.335656176711200E+002	2.7869573E-001	-2.7037326E+002
3	0	7.340656176584889E+002	2.7819392E-001	-2.7038385E+002
3	0	7.345656176458579E+002	2.7768767E-001	-2.7039093E+002
3	0	7.350656176332268E+002	2.7722871E-001	-2.7036972E+002
3	0	7.355656176205957E+002	2.7677581E-001	-2.7038742E+002
3	0	7.360656176079647E+002	2.7631634E-001	-2.7038031E+002
3	0	7.365656175953336E+002	2.7586752E-001	-2.7037326E+002
3	0	7.370656175827025E+002	2.7542159E-001	-2.7036972E+002
3	0	7.375656175700715E+002	2.7496478E-001	-2.7038031E+002
3	0	7.380656175574404E+002	2.7449685E-001	-2.7037677E+002
3	0	7.385656175448094E+002	2.7402920E-001	-2.7037326E+002
3	0	7.390656175321783E+002	2.7359840E-001	-2.7035559E+002
3	0	7.395656175195472E+002	2.7317527E-001	-2.7038031E+002
3	0	7.400656175069162E+002	2.7274570E-001	-2.7039093E+002
3	0	7.405656174942851E+002	2.7233487E-001	-2.7035559E+002
3	0	7.410656174816540E+002	2.7192500E-001	-2.7038385E+002
3	0	7.415656174690230E+002	2.7149427E-001	-2.7036618E+002
3	0	7.420656174563919E+002	2.7105507E-001	-2.7036972E+002
3	0	7.425656174437609E+002	2.7062318E-001	-2.7035913E+002
3	0	7.430656174311298E+002	2.7023166E-001	-2.7036267E+002
3	0	7.435656174184987E+002	2.6984084E-001	-2.7036618E+002
3	0	7.440656174058677E+002	2.6946056E-001	-2.7037326E+002
3	0	7.445656173932366E+002	2.6907739E-001	-2.7039093E+002
3	0	7.450656173806055E+002	2.6869181E-001	-2.7036618E+002
3	0	7.455656173679745E+002	2.6830468E-001	-2.7039447E+002
3	0	7.460656173553434E+002	2.6790136E-001	-2.7036267E+002
3	0	7.465656173427124E+002	2.6749504E-001	-2.7037677E+002
3	0	7.470656173300813E+002	2.6713195E-001	-2.7036972E+002
3	0	7.475656173174502E+002	2.6678109E-001	-2.7035913E+002
3	0	7.480656173048192E+002	2.6642159E-001	-2.7038742E+002
3	0	7.485656172921881E+002	2.6606944E-001	-2.7039447E+002
3	0	7.490656172795570E+002	2.6571509E-001	-2.7036618E+002
3	0	7.495656172669260E+002	2.6535499E-001	-2.7036618E+002
3	0	7.500656172542949E+002	2.6497248E-001	-2.7037326E+002
3	0	7.505656172416639E+002	2.6460168E-001	-2.7036972E+002
3	0	7.510656172290328E+002	2.6427051E-001	-2.7039447E+002
3	0	7.515656172164017E+002	2.6395229E-001	-2.7039801E+002
3	0	7.520656172037707E+002	2.6362860E-001	-2.7037677E+002
3	0	7.525656171911396E+002	2.6330614E-001	-2.7036267E+002
3	0	7.530656171785085E+002	2.6298165E-001	-2.7036618E+002
3	0	7.535656171658775E+002	2.6265073E-001	-2.7036267E+002
3	0	7.540656171532464E+002	2.6229885E-001	-2.7036618E+002
3	0	7.545656171406154E+002	2.6195601E-001	-2.7037326E+002
3	0	7.550656171279843E+002	2.6165301E-001	-2.7039447E+002
3	0	7.555656171153532E+002	2.6135665E-001	-2.7037326E+002
3	0	7.560656171027222E+002	2.6105919E-001	-2.7037677E+002
3	0	7.565656170900911E+002	2.6076159E-001	-2.7038385E+002
3	0	7.570656170774600E+002	2.6046315E-001	-2.7037677E+002
3	0	7.575656170648290E+002	2.6015979E-001	-2.7036972E+002
3	0	7.580656170521979E+002	2.5983801E-001	-2.7038031E+002
3	0	7.585656170395669E+002	2.5952113E-001	-2.7039801E+002
3	0	7.590656170269358E+002	2.5924158E-001	-2.7035205E+002
3	0	7.595656170143047E+002	2.5897211E-001	-2.7036618E+002
3	0	7.600656170016737E+002	2.5870195E-001	-2.7040155E+002
3	0	7.605656169890426E+002	2.5843179E-001	-2.7039093E+002
3	0	7.610656169764115E+002	2.5816381E-001	-2.7037326E+002
3	0	7.615656169637805E+002	2.5788909E-001	-2.7038031E+002
3	0	7.620656169511494E+002	2.5758603E-001	-2.7036972E+002
3	0	7.625656169385184E+002	2.5728965E-001	-2.7036972E+002
3	0	7.630656169258873E+002	2.5703189E-001	-2.7038031E+002
3	0	7.635656169132562E+002	2.5679284E-001	-2.7036267E+002
3	0	7.640656169006252E+002	2.5654826E-001	-2.7036267E+002
3	0	7.645656168879941E+002	2.5630641E-001	-2.7038742E+002
3	0	7.650656168753630E+002	2.5605908E-001	-2.7038385E+002
3	0	7.655656168627320E+002	2.5580719E-001	-2.7037677E+002
3	0	7.660656168501009E+002	2.5553501E-001	-2.7036972E+002
3	0	7.665656168374699E+002	2.5526115E-001	-2.7038031E+002
3	0	7.670656168248388E+002	2.5502703E-001	-2.7035913E+002
3	0	7.675656168122077E+002	2.5480774E-001	-2.7036618E+002
3	0	7.675660168121976E+002	2.5461513E-001	-2.7038385E+002