EC-Lab ASCII FILE
Nb header lines : 55                          

Open Circuit Voltage

Run on channel : 1 (SN 81504)
User : 
CE vs. WE compliance from -10 V to 10 V
Electrode connection : standard
Potential control : Ewe
Ewe ctrl range : min = -2.50 V, max = 2.50 V
Safety Limits :
	Do not start on E overload
Acquisition started on : 05/07/2026 17:51:53.741
Loaded Setting File :  C:\PEM-WE_measurements\2026\372_IV_IV IrOx, 5 min Pt, 30 min C, etched cathode\new station\Loopeis new\1,46 V different time gaps open cell\Loopeis 1,46V_60s_5_PEIS from 65Hz to 10Hz.mps
Saved on :
	File : L_15_Loopeis 1,46V_60s_5_PEIS from 65Hz to 10Hz_10_OCV_C01.mpr
	Directory : C:\PEM-WE_measurements\2026\372_IV_IV IrOx, 5 min Pt, 30 min C, etched cathode\new station\Loopeis new\1,46 V different time gaps open cell\
	Host : 192.168.0.2
Device : SP-150e (SN .005491)
Address : 192.168.0.91
EC-LAB for windows v11.71 (software)
Internet server v28.00 (firmware)
Command interpretor v14.01 (firmware)
Electrode material : 
Initial state : 
Electrolyte : 
Comments : 
Current amplifier : SP-150eB-20A
Electrode surface area : 0.001 cm²
Characteristic mass : 0.001 g
Equivalent Weight : 0.000 g/eq.
Density : 0.000 g/cm3
Volume (V) : 0.001 cm³
Record Analogic IN 1
Text export
   Mode : Standard
   Time format : Elapsed
Cycle Definition : Charge/Discharge alternance
External device configuration :
   device type : Temperature Probe
   device name : Other
   Analog IN 1 : 
      unit : T/Â°C
      max : 100.000 at 2.000 V
      min : 0.000 at 1.460 V
tR (h:m:s)          0:01:0.0000         
dER/dt (mV/h)       1.0                 
record              <Ewe>               
dER (mV)            10.00               
dtR (s)             0.5000              
E range min (V)     -2.500              
E range max (V)     2.500               

mode	error	time/s	<Ewe/V>	Analog IN 1/V	
3	0	9.174894162569399E+002	1.2757127E+000	-2.7040155E+002
3	0	9.179894162443088E+002	1.2690719E+000	-2.7040506E+002
3	0	9.184894162316778E+002	1.2306595E+000	-2.7039093E+002
3	0	9.189894162190467E+002	1.1517761E+000	-2.7036618E+002
3	0	9.194894162064156E+002	8.8504624E-001	-2.7035559E+002
3	0	9.199894161937846E+002	4.5787042E-001	-2.7037677E+002
3	0	9.204894161811535E+002	3.5336351E-001	-2.7034851E+002
3	0	9.209894161685224E+002	3.3822072E-001	-2.7036267E+002
3	0	9.214894161558914E+002	3.2937840E-001	-2.7037677E+002
3	0	9.219894161432603E+002	3.2243562E-001	-2.7038031E+002
3	0	9.224894161306293E+002	3.1721649E-001	-2.7038742E+002
3	0	9.229894161179982E+002	3.1324431E-001	-2.7034851E+002
3	0	9.234894161053671E+002	3.1014821E-001	-2.7038031E+002
3	0	9.239894160927361E+002	3.0766311E-001	-2.7036972E+002
3	0	9.244894160801050E+002	3.0560502E-001	-2.7035913E+002
3	0	9.249894160674739E+002	3.0386215E-001	-2.7039801E+002
3	0	9.254894160548429E+002	3.0234060E-001	-2.7035913E+002
3	0	9.259894160422118E+002	3.0098808E-001	-2.7036267E+002
3	0	9.264894160295808E+002	2.9979721E-001	-2.7036267E+002
3	0	9.269894160169497E+002	2.9875058E-001	-2.7037677E+002
3	0	9.274894160043186E+002	2.9778323E-001	-2.7035913E+002
3	0	9.279894159916876E+002	2.9688743E-001	-2.7039801E+002
3	0	9.284894159790565E+002	2.9604247E-001	-2.7039447E+002
3	0	9.289894159664254E+002	2.9524109E-001	-2.7040860E+002
3	0	9.294894159537944E+002	2.9446048E-001	-2.7040860E+002
3	0	9.299894159411633E+002	2.9369301E-001	-2.7038742E+002
3	0	9.304894159285323E+002	2.9297906E-001	-2.7039447E+002
3	0	9.309894159159012E+002	2.9230654E-001	-2.7038031E+002
3	0	9.314894159032701E+002	2.9165271E-001	-2.7039801E+002
3	0	9.319894158906391E+002	2.9101011E-001	-2.7038031E+002
3	0	9.324894158780080E+002	2.9038689E-001	-2.7037326E+002
3	0	9.329894158653769E+002	2.8976959E-001	-2.7038385E+002
3	0	9.334894158527459E+002	2.8914201E-001	-2.7039447E+002
3	0	9.339894158401148E+002	2.8851575E-001	-2.7038742E+002
3	0	9.344894158274838E+002	2.8792179E-001	-2.7036618E+002
3	0	9.349894158148527E+002	2.8735507E-001	-2.7040860E+002
3	0	9.354894158022216E+002	2.8679845E-001	-2.7038385E+002
3	0	9.359894157895906E+002	2.8624272E-001	-2.7039093E+002
3	0	9.364894157769595E+002	2.8569502E-001	-2.7038385E+002
3	0	9.369894157643284E+002	2.8514630E-001	-2.7037677E+002
3	0	9.374894157516974E+002	2.8458461E-001	-2.7039801E+002
3	0	9.379894157390663E+002	2.8401244E-001	-2.7036618E+002
3	0	9.384894157264353E+002	2.8347072E-001	-2.7037326E+002
3	0	9.389894157138042E+002	2.8295594E-001	-2.7037326E+002
3	0	9.394894157011731E+002	2.8243837E-001	-2.7036267E+002
3	0	9.399894156885421E+002	2.8192857E-001	-2.7036267E+002
3	0	9.404894156759110E+002	2.8141713E-001	-2.7038031E+002
3	0	9.409894156632799E+002	2.8090701E-001	-2.7036618E+002
3	0	9.414894156506489E+002	2.8038159E-001	-2.7038742E+002
3	0	9.419894156380178E+002	2.7985105E-001	-2.7040155E+002
3	0	9.424894156253868E+002	2.7935013E-001	-2.7036618E+002
3	0	9.429894156127557E+002	2.7887431E-001	-2.7038742E+002
3	0	9.434894156001246E+002	2.7840358E-001	-2.7039447E+002
3	0	9.439894155874936E+002	2.7792868E-001	-2.7037677E+002
3	0	9.444894155748625E+002	2.7745721E-001	-2.7039093E+002
3	0	9.449894155622314E+002	2.7698702E-001	-2.7039447E+002
3	0	9.454894155496004E+002	2.7650294E-001	-2.7037326E+002
3	0	9.459894155369693E+002	2.7600822E-001	-2.7038031E+002
3	0	9.464894155243383E+002	2.7554545E-001	-2.7038385E+002
3	0	9.469894155117072E+002	2.7509421E-001	-2.7036618E+002
3	0	9.474894154990761E+002	2.7466601E-001	-2.7036972E+002
3	0	9.479894154864451E+002	2.7423331E-001	-2.7037326E+002
3	0	9.484894154738140E+002	2.7379635E-001	-2.7036618E+002
3	0	9.489894154611829E+002	2.7335855E-001	-2.7038385E+002
3	0	9.494894154485519E+002	2.7290726E-001	-2.7035205E+002
3	0	9.499894154359208E+002	2.7244815E-001	-2.7036972E+002
3	0	9.504894154232898E+002	2.7201971E-001	-2.7036972E+002
3	0	9.509894154106587E+002	2.7161354E-001	-2.7038742E+002
3	0	9.514894153980276E+002	2.7120355E-001	-2.7036972E+002
3	0	9.519894153853966E+002	2.7079964E-001	-2.7037326E+002
3	0	9.524894153727655E+002	2.7039513E-001	-2.7038031E+002
3	0	9.529894153601344E+002	2.6998800E-001	-2.7035913E+002
3	0	9.534894153475034E+002	2.6957345E-001	-2.7037326E+002
3	0	9.539894153348723E+002	2.6914445E-001	-2.7037677E+002
3	0	9.544894153222413E+002	2.6873967E-001	-2.7037326E+002
3	0	9.549894153096102E+002	2.6836801E-001	-2.7037677E+002
3	0	9.554894152969791E+002	2.6799265E-001	-2.7037677E+002
3	0	9.559894152843481E+002	2.6761484E-001	-2.7037677E+002
3	0	9.564894152717170E+002	2.6724523E-001	-2.7036972E+002
3	0	9.569894152590859E+002	2.6686987E-001	-2.7040155E+002
3	0	9.574894152464549E+002	2.6647946E-001	-2.7038385E+002
3	0	9.579894152338238E+002	2.6607031E-001	-2.7035913E+002
3	0	9.584894152211928E+002	2.6570329E-001	-2.7038742E+002
3	0	9.589894152085617E+002	2.6536095E-001	-2.7038385E+002
3	0	9.594894151959306E+002	2.6501325E-001	-2.7035913E+002
3	0	9.599894151832996E+002	2.6466697E-001	-2.7037326E+002
3	0	9.604894151706685E+002	2.6432714E-001	-2.7037326E+002
3	0	9.609894151580374E+002	2.6398140E-001	-2.7038742E+002
3	0	9.614894151454064E+002	2.6361904E-001	-2.7037677E+002
3	0	9.619894151327753E+002	2.6324859E-001	-2.7039093E+002
3	0	9.624894151201443E+002	2.6290402E-001	-2.7038385E+002
3	0	9.629894151075132E+002	2.6259238E-001	-2.7037677E+002
3	0	9.634894150948821E+002	2.6227534E-001	-2.7036618E+002
3	0	9.639894150822511E+002	2.6196069E-001	-2.7038385E+002
3	0	9.644894150696200E+002	2.6164719E-001	-2.7039447E+002
3	0	9.649894150569889E+002	2.6132962E-001	-2.7035913E+002
3	0	9.654894150443579E+002	2.6099810E-001	-2.7039447E+002
3	0	9.659894150317268E+002	2.6065063E-001	-2.7037677E+002
3	0	9.664894150190958E+002	2.6033965E-001	-2.7036618E+002
3	0	9.669894150064647E+002	2.6005477E-001	-2.7038742E+002
3	0	9.674894149938336E+002	2.5976765E-001	-2.7039801E+002
3	0	9.679894149812026E+002	2.5949159E-001	-2.7038385E+002
3	0	9.684894149685715E+002	2.5920856E-001	-2.7038385E+002
3	0	9.689894149559404E+002	2.5892428E-001	-2.7038385E+002
3	0	9.694894149433094E+002	2.5862205E-001	-2.7039093E+002
3	0	9.699894149306783E+002	2.5830024E-001	-2.7038385E+002
3	0	9.704894149180473E+002	2.5801715E-001	-2.7037677E+002
3	0	9.709894149054162E+002	2.5775844E-001	-2.7038742E+002
3	0	9.714894148927851E+002	2.5749910E-001	-2.7039447E+002
3	0	9.719894148801541E+002	2.5724128E-001	-2.7037677E+002
3	0	9.724894148675230E+002	2.5697407E-001	-2.7035913E+002
3	0	9.729894148548919E+002	2.5671652E-001	-2.7038031E+002
3	0	9.734894148422609E+002	2.5643551E-001	-2.7036267E+002
3	0	9.739894148296298E+002	2.5614282E-001	-2.7038031E+002
3	0	9.744894148169988E+002	2.5587595E-001	-2.7039093E+002
3	0	9.749894148043677E+002	2.5563765E-001	-2.7036267E+002
3	0	9.754894147917366E+002	2.5540978E-001	-2.7037677E+002
3	0	9.759894147791056E+002	2.5517482E-001	-2.7035205E+002
3	0	9.764894147664745E+002	2.5494221E-001	-2.7038742E+002
3	0	9.769894147538434E+002	2.5470021E-001	-2.7037326E+002
3	0	9.769898147538333E+002	2.5461513E-001	-2.7037326E+002