EC-Lab ASCII FILE
Nb header lines : 48                          

Open Circuit Voltage

Run on channel : 1 (SN 81504)
User : 
CE vs. WE compliance from -10 V to 10 V
Electrode connection : standard
Potential control : Ewe
Ewe ctrl range : min = -2.50 V, max = 2.50 V
Safety Limits :
	Do not start on E overload
Acquisition started on : 05/07/2026 18:41:54.331
Loaded Setting File :  C:\PEM-WE_measurements\2026\372_IV_IV IrOx, 5 min Pt, 30 min C, etched cathode\new station\Loopeis new\1,46 V different time gaps open cell\Loopeis 1,46V_90s_2_PEIS from 65kHz to 10kHz.mps
Saved on :
	File : L_17_Loopeis 1,46V_90s_2_PEIS from 65kHz to 10kHz_12_OCV_C01.mpr
	Directory : C:\PEM-WE_measurements\2026\372_IV_IV IrOx, 5 min Pt, 30 min C, etched cathode\new station\Loopeis new\1,46 V different time gaps open cell\
	Host : 192.168.0.2
Device : SP-150e (SN .005491)
Address : 192.168.0.91
EC-LAB for windows v11.71 (software)
Internet server v28.00 (firmware)
Command interpretor v14.01 (firmware)
Electrode material : 
Initial state : 
Electrolyte : 
Comments : 
Current amplifier : SP-150eB-20A
Electrode surface area : 0.001 cm²
Characteristic mass : 0.001 g
Equivalent Weight : 0.000 g/eq.
Density : 0.000 g/cm3
Volume (V) : 0.001 cm³
Record Analogic IN 1
Text export
   Mode : Standard
   Time format : Elapsed
Cycle Definition : Charge/Discharge alternance
tR (h:m:s)          0:01:30.0000        
dER/dt (mV/h)       1.0                 
record              <Ewe>               
dER (mV)            10.00               
dtR (s)             0.5000              
E range min (V)     -2.500              
E range max (V)     2.500               

mode	error	time/s	<Ewe/V>	Analog IN 1/V	
3	0	7.204655916216871E+002	1.0533673E+000	3.8648941E-006
3	0	7.209655916090560E+002	1.2153651E+000	6.1121522E-005
3	0	7.214655915964249E+002	1.1673615E+000	-1.6790499E-004
3	0	7.219655915837939E+002	1.0675371E+000	-7.2477276E-005
3	0	7.224655915711628E+002	7.2923726E-001	3.8648941E-006
3	0	7.229655915585317E+002	3.7746367E-001	-3.4306191E-005
3	0	7.234655915459007E+002	3.0669606E-001	-9.1562819E-005
3	0	7.239655915332696E+002	2.9719955E-001	-7.2477276E-005
3	0	7.244655915206386E+002	2.9026061E-001	3.8648941E-006
3	0	7.249655915080075E+002	2.8448281E-001	-1.1064836E-004
3	0	7.254655914953764E+002	2.7994993E-001	-1.5220648E-005
3	0	7.259655914827454E+002	2.7643710E-001	2.2950437E-005
3	0	7.264655914701143E+002	2.7367142E-001	-1.1064836E-004
3	0	7.269655914574832E+002	2.7144733E-001	-5.3391734E-005
3	0	7.274655914448522E+002	2.6962328E-001	-5.3391734E-005
3	0	7.279655914322211E+002	2.6808554E-001	4.2035979E-005
3	0	7.284655914195901E+002	2.6675305E-001	-7.2477276E-005
3	0	7.289655914069590E+002	2.6556563E-001	2.2950437E-005
3	0	7.294655913943279E+002	2.6450431E-001	3.8648941E-006
3	0	7.299655913816969E+002	2.6357478E-001	-1.1064836E-004
3	0	7.304655913690658E+002	2.6271346E-001	-2.0607607E-004
3	0	7.309655913564347E+002	2.6191974E-001	-2.2516162E-004
3	0	7.314655913438037E+002	2.6117235E-001	-9.1562819E-005
3	0	7.319655913311726E+002	2.6046824E-001	-1.1064836E-004
3	0	7.324655913185416E+002	2.5978789E-001	-5.3391734E-005
3	0	7.329655913059105E+002	2.5912055E-001	-1.5220648E-005
3	0	7.334655912932794E+002	2.5846434E-001	-9.1562819E-005
3	0	7.339655912806484E+002	2.5785729E-001	-1.1064836E-004
3	0	7.344655912680173E+002	2.5726804E-001	-3.4306191E-005
3	0	7.349655912553862E+002	2.5668818E-001	-1.1064836E-004
3	0	7.354655912427552E+002	2.5612351E-001	-7.2477276E-005
3	0	7.359655912301241E+002	2.5556508E-001	-1.5220648E-005
3	0	7.364655912174931E+002	2.5500482E-001	-1.2973390E-004
3	0	7.369655912048620E+002	2.5444403E-001	-1.8699054E-004
3	0	7.374655911922309E+002	2.5387967E-001	-7.2477276E-005
3	0	7.379655911795999E+002	2.5335026E-001	-5.3391734E-005
3	0	7.384655911669688E+002	2.5282943E-001	-3.4306191E-005
3	0	7.389655911543377E+002	2.5231585E-001	-7.2477276E-005
3	0	7.394655911417067E+002	2.5180647E-001	-5.3391734E-005
3	0	7.399655911290756E+002	2.5130481E-001	-1.6790499E-004
3	0	7.404655911164446E+002	2.5079629E-001	-3.4306191E-005
3	0	7.409655911038135E+002	2.5027651E-001	3.8648941E-006
3	0	7.414655910911824E+002	2.4975203E-001	-3.4306191E-005
3	0	7.419655910785514E+002	2.4927388E-001	2.2950437E-005
3	0	7.424655910659203E+002	2.4878597E-001	6.1121522E-005
3	0	7.429655910532892E+002	2.4830717E-001	-5.3391734E-005
3	0	7.434655910406582E+002	2.4783832E-001	4.2035979E-005
3	0	7.439655910280271E+002	2.4736483E-001	4.2035979E-005
3	0	7.444655910153961E+002	2.4688497E-001	-3.4306191E-005
3	0	7.449655910027650E+002	2.4639598E-001	-7.2477276E-005
3	0	7.454655909901339E+002	2.4590203E-001	-1.1064836E-004
3	0	7.459655909775029E+002	2.4545316E-001	3.8648941E-006
3	0	7.464655909648718E+002	2.4499811E-001	6.1121522E-005
3	0	7.469655909522407E+002	2.4454583E-001	-7.2477276E-005
3	0	7.474655909396097E+002	2.4410075E-001	-5.3391734E-005
3	0	7.479655909269786E+002	2.4365646E-001	3.8648941E-006
3	0	7.484655909143476E+002	2.4321686E-001	-7.2477276E-005
3	0	7.489655909017165E+002	2.4275427E-001	-1.6790499E-004
3	0	7.494655908890854E+002	2.4228668E-001	-2.0607607E-004
3	0	7.499655908764544E+002	2.4186398E-001	-7.2477276E-005
3	0	7.504655908638233E+002	2.4143705E-001	-1.5220648E-005
3	0	7.509655908511922E+002	2.4101447E-001	-5.3391734E-005
3	0	7.514655908385612E+002	2.4059945E-001	3.8648941E-006
3	0	7.519655908259301E+002	2.4019203E-001	-2.0607607E-004
3	0	7.524655908132991E+002	2.3977289E-001	-3.4306191E-005
3	0	7.529655908006680E+002	2.3934056E-001	8.0207064E-005
3	0	7.534655907880369E+002	2.3890363E-001	-1.5220648E-005
3	0	7.539655907754059E+002	2.3850699E-001	-5.3391734E-005
3	0	7.544655907627748E+002	2.3811713E-001	9.9292607E-005
3	0	7.549655907501437E+002	2.3772541E-001	-1.5220648E-005
3	0	7.554655907375127E+002	2.3732990E-001	-3.4306191E-005
3	0	7.559655907248816E+002	2.3693810E-001	-9.1562819E-005
3	0	7.564655907122506E+002	2.3654509E-001	-1.5220648E-005
3	0	7.569655906996195E+002	2.3613407E-001	-5.3391734E-005
3	0	7.574655906869884E+002	2.3572645E-001	-7.2477276E-005
3	0	7.579655906743574E+002	2.3536859E-001	-3.4306191E-005
3	0	7.584655906617263E+002	2.3499937E-001	2.2950437E-005
3	0	7.589655906490952E+002	2.3463206E-001	-3.4306191E-005
3	0	7.594655906364642E+002	2.3427355E-001	-1.2973390E-004
3	0	7.599655906238331E+002	2.3389539E-001	-3.4306191E-005
3	0	7.604655906112021E+002	2.3350795E-001	4.2035979E-005
3	0	7.609655905985710E+002	2.3315260E-001	-5.3391734E-005
3	0	7.614655905859399E+002	2.3278807E-001	2.2950437E-005
3	0	7.619655905733089E+002	2.3245773E-001	-9.1562819E-005
3	0	7.624655905606778E+002	2.3213319E-001	4.2035979E-005
3	0	7.629655905480467E+002	2.3181219E-001	-9.1562819E-005
3	0	7.634655905354157E+002	2.3147923E-001	-3.4306191E-005
3	0	7.639655905227846E+002	2.3115072E-001	3.8648941E-006
3	0	7.644655905101536E+002	2.3081590E-001	-9.1562819E-005
3	0	7.649655904975225E+002	2.3046547E-001	-9.1562819E-005
3	0	7.654655904848914E+002	2.3011720E-001	9.9292607E-005
3	0	7.659655904722604E+002	2.2981142E-001	-2.4424717E-004
3	0	7.664655904596293E+002	2.2950444E-001	-9.1562819E-005
3	0	7.669655904469982E+002	2.2919574E-001	6.1121522E-005
3	0	7.674655904343672E+002	2.2888851E-001	-1.8699054E-004
3	0	7.679655904217361E+002	2.2858506E-001	-7.2477276E-005
3	0	7.684655904091051E+002	2.2827269E-001	2.2950437E-005
3	0	7.689655903964740E+002	2.2794756E-001	-2.0607607E-004
3	0	7.694655903838429E+002	2.2761802E-001	4.2035979E-005
3	0	7.699655903712119E+002	2.2733207E-001	-7.2477276E-005
3	0	7.704655903585808E+002	2.2705860E-001	-9.1562819E-005
3	0	7.709655903459497E+002	2.2678222E-001	-2.2516162E-004
3	0	7.714655903333187E+002	2.2650014E-001	-1.1064836E-004
3	0	7.719655903206876E+002	2.2622110E-001	-5.3391734E-005
3	0	7.724655903080566E+002	2.2593422E-001	-1.1064836E-004
3	0	7.729655902954255E+002	2.2563170E-001	-9.1562819E-005
3	0	7.734655902827944E+002	2.2533612E-001	-1.8699054E-004
3	0	7.739655902701634E+002	2.2507335E-001	2.2950437E-005
3	0	7.744655902575323E+002	2.2482769E-001	6.1121522E-005
3	0	7.749655902449013E+002	2.2457558E-001	-1.1064836E-004
3	0	7.754655902322702E+002	2.2432333E-001	-3.4306191E-005
3	0	7.759655902196391E+002	2.2406922E-001	-9.1562819E-005
3	0	7.764655902070081E+002	2.2379988E-001	-3.4306191E-005
3	0	7.769655901943770E+002	2.2351930E-001	8.0207064E-005
3	0	7.774655901817459E+002	2.2323263E-001	-5.3391734E-005
3	0	7.779655901691149E+002	2.2299545E-001	2.2950437E-005
3	0	7.784655901564838E+002	2.2275902E-001	-5.3391734E-005
3	0	7.789655901438528E+002	2.2252379E-001	-1.2973390E-004
3	0	7.794655901312217E+002	2.2229055E-001	-3.4306191E-005
3	0	7.799655901185906E+002	2.2205858E-001	-5.3391734E-005
3	0	7.804655901059596E+002	2.2181708E-001	-5.3391734E-005
3	0	7.809655900933285E+002	2.2155780E-001	-7.2477276E-005
3	0	7.814655900806974E+002	2.2129361E-001	2.2950437E-005
3	0	7.819655900680664E+002	2.2107755E-001	-1.5220648E-005
3	0	7.824655900554353E+002	2.2087567E-001	-7.2477276E-005
3	0	7.829655900428043E+002	2.2066805E-001	-1.4881945E-004
3	0	7.834655900301732E+002	2.2045889E-001	3.8648941E-006
3	0	7.839655900175421E+002	2.2025226E-001	-3.4306191E-005
3	0	7.844655900049111E+002	2.2003084E-001	6.1121522E-005
3	0	7.849655899922800E+002	2.1978900E-001	-3.4306191E-005
3	0	7.854655899796489E+002	2.1954818E-001	-1.1064836E-004
3	0	7.859655899670179E+002	2.1934889E-001	8.0207064E-005
3	0	7.864655899543868E+002	2.1916127E-001	2.2950437E-005
3	0	7.869655899417558E+002	2.1897075E-001	-9.1562819E-005
3	0	7.874655899291247E+002	2.1877977E-001	-1.2973390E-004
3	0	7.879655899164936E+002	2.1858756E-001	-9.1562819E-005
3	0	7.884655899038626E+002	2.1838626E-001	-1.4881945E-004
3	0	7.889655898912315E+002	2.1816242E-001	-9.1562819E-005
3	0	7.894655898786004E+002	2.1793549E-001	-3.4306191E-005
3	0	7.899655898659694E+002	2.1775490E-001	-1.1064836E-004
3	0	7.904655898533383E+002	2.1758287E-001	-7.2477276E-005
3	0	7.909655898407073E+002	2.1740548E-001	-1.4881945E-004
3	0	7.914655898280762E+002	2.1723428E-001	-5.3391734E-005
3	0	7.919655898154451E+002	2.1706153E-001	-9.1562819E-005
3	0	7.924655898028141E+002	2.1687900E-001	-7.2477276E-005
3	0	7.929655897901830E+002	2.1666835E-001	3.8648941E-006
3	0	7.934655897775519E+002	2.1645883E-001	-1.5220648E-005
3	0	7.939655897649209E+002	2.1629006E-001	-3.4306191E-005
3	0	7.944655897522898E+002	2.1613936E-001	-5.3391734E-005
3	0	7.949655897396588E+002	2.1598707E-001	-7.2477276E-005
3	0	7.954655897270277E+002	2.1583161E-001	1.1837815E-004
3	0	7.959655897143966E+002	2.1567516E-001	-1.6790499E-004
3	0	7.964655897017656E+002	2.1549889E-001	-1.5220648E-005
3	0	7.969655896891345E+002	2.1530011E-001	-5.3391734E-005
3	0	7.974655896765034E+002	2.1509989E-001	2.2950437E-005
3	0	7.979655896638724E+002	2.1494129E-001	-3.4306191E-005
3	0	7.984655896512413E+002	2.1479860E-001	-1.1064836E-004
3	0	7.989655896386103E+002	2.1464969E-001	-1.5220648E-005
3	0	7.994655896259792E+002	2.1449897E-001	3.8648941E-006
3	0	7.999655896133481E+002	2.1434711E-001	-3.4306191E-005
3	0	8.004655896007171E+002	2.1418695E-001	-3.4306191E-005
3	0	8.009655895880860E+002	2.1401127E-001	-5.3391734E-005
3	0	8.014655895754549E+002	2.1383001E-001	-1.8699054E-004
3	0	8.019655895628239E+002	2.1368574E-001	-7.2477276E-005
3	0	8.024655895501928E+002	2.1355645E-001	3.8648941E-006
3	0	8.029655895375618E+002	2.1343018E-001	6.1121522E-005
3	0	8.034655895249307E+002	2.1329811E-001	-3.4306191E-005
3	0	8.039655895122996E+002	2.1316656E-001	6.1121522E-005
3	0	8.044655894996686E+002	2.1301417E-001	-5.3391734E-005
3	0	8.049655894870375E+002	2.1284907E-001	3.8648941E-006
3	0	8.054655894744064E+002	2.1267687E-001	-1.5220648E-005
3	0	8.059655894617754E+002	2.1255192E-001	4.2035979E-005
3	0	8.064655894491443E+002	2.1243694E-001	-1.6790499E-004
3	0	8.069655894365133E+002	2.1232250E-001	-3.4306191E-005
3	0	8.074655894238822E+002	2.1220477E-001	8.0207064E-005
3	0	8.079655894112511E+002	2.1208441E-001	-3.4306191E-005
3	0	8.084655893986201E+002	2.1194537E-001	2.2950437E-005
3	0	8.089655893859890E+002	2.1178317E-001	3.8648941E-006
3	0	8.094655893733579E+002	2.1161947E-001	-9.1562819E-005
3	0	8.099655893607269E+002	2.1149988E-001	-3.4306191E-005
3	0	8.099995893598680E+002	2.1144858E-001	-1.6790499E-004