EC-Lab ASCII FILE
Nb header lines : 48                          

Open Circuit Voltage

Run on channel : 1 (SN 81504)
User : 
CE vs. WE compliance from -10 V to 10 V
Electrode connection : standard
Potential control : Ewe
Ewe ctrl range : min = -2.50 V, max = 2.50 V
Safety Limits :
	Do not start on E overload
Acquisition started on : 05/07/2026 18:41:54.331
Loaded Setting File :  C:\PEM-WE_measurements\2026\372_IV_IV IrOx, 5 min Pt, 30 min C, etched cathode\new station\Loopeis new\1,46 V different time gaps open cell\Loopeis 1,46V_90s_2_PEIS from 65kHz to 10kHz.mps
Saved on :
	File : L_17_Loopeis 1,46V_90s_2_PEIS from 65kHz to 10kHz_20_OCV_C01.mpr
	Directory : C:\PEM-WE_measurements\2026\372_IV_IV IrOx, 5 min Pt, 30 min C, etched cathode\new station\Loopeis new\1,46 V different time gaps open cell\
	Host : 192.168.0.2
Device : SP-150e (SN .005491)
Address : 192.168.0.91
EC-LAB for windows v11.71 (software)
Internet server v28.00 (firmware)
Command interpretor v14.01 (firmware)
Electrode material : 
Initial state : 
Electrolyte : 
Comments : 
Current amplifier : SP-150eB-20A
Electrode surface area : 0.001 cm²
Characteristic mass : 0.001 g
Equivalent Weight : 0.000 g/eq.
Density : 0.000 g/cm3
Volume (V) : 0.001 cm³
Record Analogic IN 1
Text export
   Mode : Standard
   Time format : Elapsed
Cycle Definition : Charge/Discharge alternance
tR (h:m:s)          0:01:30.0000        
dER/dt (mV/h)       1.0                 
record              <Ewe>               
dER (mV)            10.00               
dtR (s)             0.5000              
E range min (V)     -2.500              
E range max (V)     2.500               

mode	error	time/s	<Ewe/V>	Analog IN 1/V	
3	0	1.264312161273396E+003	1.0444751E+000	-3.4306191E-005
3	0	1.264812161260765E+003	1.2114153E+000	-9.1562819E-005
3	0	1.265312161248134E+003	1.1567451E+000	-3.4306191E-005
3	0	1.265812161235503E+003	1.0398399E+000	-1.6790499E-004
3	0	1.266312161222872E+003	6.5507466E-001	-5.3391734E-005
3	0	1.266812161210240E+003	3.5364416E-001	-3.4306191E-005
3	0	1.267312161197609E+003	3.0230764E-001	-7.2477276E-005
3	0	1.267812161184978E+003	2.9401404E-001	3.8648941E-006
3	0	1.268312161172347E+003	2.8731620E-001	3.8648941E-006
3	0	1.268812161159716E+003	2.8173757E-001	-7.2477276E-005
3	0	1.269312161147085E+003	2.7738354E-001	-1.6790499E-004
3	0	1.269812161134454E+003	2.7400213E-001	-1.5220648E-005
3	0	1.270312161121823E+003	2.7132970E-001	2.2950437E-005
3	0	1.270812161109192E+003	2.6917011E-001	-1.5220648E-005
3	0	1.271312161096561E+003	2.6739308E-001	-7.2477276E-005
3	0	1.271812161083930E+003	2.6589245E-001	4.2035979E-005
3	0	1.272312161071299E+003	2.6458830E-001	6.1121522E-005
3	0	1.272812161058668E+003	2.6343498E-001	6.1121522E-005
3	0	1.273312161046037E+003	2.6242265E-001	-1.5220648E-005
3	0	1.273812161033406E+003	2.6152331E-001	-3.4306191E-005
3	0	1.274312161020775E+003	2.6069909E-001	-5.3391734E-005
3	0	1.274812161008143E+003	2.5992590E-001	-3.4306191E-005
3	0	1.275312160995512E+003	2.5921324E-001	3.8648941E-006
3	0	1.275812160982881E+003	2.5851330E-001	-1.1064836E-004
3	0	1.276312160970250E+003	2.5783959E-001	-7.2477276E-005
3	0	1.276812160957619E+003	2.5716564E-001	-9.1562819E-005
3	0	1.277312160944988E+003	2.5654078E-001	-1.1064836E-004
3	0	1.277812160932357E+003	2.5595513E-001	2.2950437E-005
3	0	1.278312160919726E+003	2.5538132E-001	-3.4306191E-005
3	0	1.278812160907095E+003	2.5481525E-001	-1.5220648E-005
3	0	1.279312160894464E+003	2.5425932E-001	-3.4306191E-005
3	0	1.279812160881833E+003	2.5370738E-001	-5.3391734E-005
3	0	1.280312160869202E+003	2.5314692E-001	8.0207064E-005
3	0	1.280812160856571E+003	2.5257984E-001	6.1121522E-005
3	0	1.281312160843940E+003	2.5205165E-001	-9.1562819E-005
3	0	1.281812160831309E+003	2.5153717E-001	-3.4306191E-005
3	0	1.282312160818678E+003	2.5102234E-001	-5.3391734E-005
3	0	1.282812160806046E+003	2.5051960E-001	-1.1064836E-004
3	0	1.283312160793415E+003	2.5001639E-001	-5.3391734E-005
3	0	1.283812160780784E+003	2.4952030E-001	-3.4306191E-005
3	0	1.284312160768153E+003	2.4900992E-001	-9.1562819E-005
3	0	1.284812160755522E+003	2.4848428E-001	-1.2973390E-004
3	0	1.285312160742891E+003	2.4799930E-001	-5.3391734E-005
3	0	1.285812160730260E+003	2.4752060E-001	9.9292607E-005
3	0	1.286312160717629E+003	2.4704318E-001	4.2035979E-005
3	0	1.286812160704998E+003	2.4657279E-001	4.2035979E-005
3	0	1.287312160692367E+003	2.4610965E-001	-7.2477276E-005
3	0	1.287812160679736E+003	2.4564335E-001	-9.1562819E-005
3	0	1.288312160667105E+003	2.4515809E-001	6.1121522E-005
3	0	1.288812160654474E+003	2.4466109E-001	-7.2477276E-005
3	0	1.289312160641843E+003	2.4420485E-001	4.2035979E-005
3	0	1.289812160629212E+003	2.4375540E-001	-1.1064836E-004
3	0	1.290312160616581E+003	2.4330860E-001	4.2035979E-005
3	0	1.290812160603949E+003	2.4286591E-001	-3.4306191E-005
3	0	1.291312160591318E+003	2.4242337E-001	-1.1064836E-004
3	0	1.291812160578687E+003	2.4198832E-001	-1.1064836E-004
3	0	1.292312160566056E+003	2.4153423E-001	-1.1064836E-004
3	0	1.292812160553425E+003	2.4106862E-001	2.2950437E-005
3	0	1.293312160540794E+003	2.4064647E-001	-1.2973390E-004
3	0	1.293812160528163E+003	2.4023110E-001	3.8648941E-006
3	0	1.294312160515532E+003	2.3981617E-001	-3.4306191E-005
3	0	1.294812160502901E+003	2.3940021E-001	-9.1562819E-005
3	0	1.295312160490270E+003	2.3899342E-001	-7.2477276E-005
3	0	1.295812160477639E+003	2.3857120E-001	2.2950437E-005
3	0	1.296312160465008E+003	2.3814727E-001	3.8648941E-006
3	0	1.296812160452377E+003	2.3771068E-001	-5.3391734E-005
3	0	1.297312160439746E+003	2.3730074E-001	-1.1064836E-004
3	0	1.297812160427115E+003	2.3691785E-001	-5.3391734E-005
3	0	1.298312160414484E+003	2.3652476E-001	8.0207064E-005
3	0	1.298812160401852E+003	2.3613754E-001	-9.1562819E-005
3	0	1.299312160389221E+003	2.3575577E-001	-5.3391734E-005
3	0	1.299812160376590E+003	2.3537725E-001	4.2035979E-005
3	0	1.300312160363959E+003	2.3497389E-001	2.2950437E-005
3	0	1.300812160351328E+003	2.3456500E-001	-9.1562819E-005
3	0	1.301312160338697E+003	2.3419164E-001	-1.2973390E-004
3	0	1.301812160326066E+003	2.3382567E-001	-1.1064836E-004
3	0	1.302312160313435E+003	2.3345754E-001	-1.4881945E-004
3	0	1.302812160300804E+003	2.3310009E-001	-1.1064836E-004
3	0	1.303312160288173E+003	2.3274027E-001	-3.4306191E-005
3	0	1.303812160275542E+003	2.3238312E-001	-2.6333271E-004
3	0	1.304312160262911E+003	2.3200680E-001	-3.4306191E-005
3	0	1.304812160250280E+003	2.3162973E-001	-7.2477276E-005
3	0	1.305312160237649E+003	2.3128483E-001	-3.4306191E-005
3	0	1.305812160225018E+003	2.3095272E-001	-9.1562819E-005
3	0	1.306312160212387E+003	2.3061800E-001	3.8648941E-006
3	0	1.306812160199755E+003	2.3029019E-001	-1.1064836E-004
3	0	1.307312160187124E+003	2.2996905E-001	8.0207064E-005
3	0	1.307812160174493E+003	2.2963236E-001	-3.4306191E-005
3	0	1.308312160161862E+003	2.2928546E-001	-3.4306191E-005
3	0	1.308812160149231E+003	2.2893585E-001	-1.5220648E-005
3	0	1.309312160136600E+003	2.2862001E-001	-3.4306191E-005
3	0	1.309812160123969E+003	2.2831526E-001	2.2950437E-005
3	0	1.310312160111338E+003	2.2801253E-001	-7.2477276E-005
3	0	1.310812160098707E+003	2.2771044E-001	-5.3391734E-005
3	0	1.311312160086076E+003	2.2741094E-001	-1.6790499E-004
3	0	1.311812160073445E+003	2.2710572E-001	2.2950437E-005
3	0	1.312312160060814E+003	2.2678868E-001	-1.5220648E-005
3	0	1.312812160048183E+003	2.2645995E-001	3.8648941E-006
3	0	1.313312160035552E+003	2.2616744E-001	-1.2973390E-004
3	0	1.313812160022921E+003	2.2589101E-001	-5.3391734E-005
3	0	1.314312160010290E+003	2.2561510E-001	-1.2973390E-004
3	0	1.314812159997658E+003	2.2534701E-001	-7.2477276E-005
3	0	1.315312159985027E+003	2.2507037E-001	-3.4306191E-005
3	0	1.315812159972396E+003	2.2479659E-001	-5.3391734E-005
3	0	1.316312159959765E+003	2.2449705E-001	4.2035979E-005
3	0	1.316812159947134E+003	2.2419430E-001	8.0207064E-005
3	0	1.317312159934503E+003	2.2392684E-001	-1.1064836E-004
3	0	1.317812159921872E+003	2.2367328E-001	3.8648941E-006
3	0	1.318312159909241E+003	2.2341432E-001	-1.1064836E-004
3	0	1.318812159896610E+003	2.2316056E-001	3.8648941E-006
3	0	1.319312159883979E+003	2.2290663E-001	-5.3391734E-005
3	0	1.319812159871348E+003	2.2264655E-001	-3.4306191E-005
3	0	1.320312159858717E+003	2.2237147E-001	-9.1562819E-005
3	0	1.320812159846086E+003	2.2209488E-001	-1.2973390E-004
3	0	1.321312159833455E+003	2.2184587E-001	-1.5220648E-005
3	0	1.321812159820824E+003	2.2160950E-001	-5.3391734E-005
3	0	1.322312159808193E+003	2.2137244E-001	-9.1562819E-005
3	0	1.322812159795561E+003	2.2114095E-001	-9.1562819E-005
3	0	1.323312159782930E+003	2.2091313E-001	-5.3391734E-005
3	0	1.323812159770299E+003	2.2067925E-001	-7.2477276E-005
3	0	1.324312159757668E+003	2.2042829E-001	2.2950437E-005
3	0	1.324812159745037E+003	2.2016507E-001	-9.1562819E-005
3	0	1.325312159732406E+003	2.1994507E-001	-5.3391734E-005
3	0	1.325812159719775E+003	2.1973588E-001	-9.1562819E-005
3	0	1.326312159707144E+003	2.1952154E-001	-1.1064836E-004
3	0	1.326812159694513E+003	2.1931697E-001	-1.5220648E-005
3	0	1.327312159681882E+003	2.1910480E-001	-1.4881945E-004
3	0	1.327812159669251E+003	2.1889327E-001	6.1121522E-005
3	0	1.328312159656620E+003	2.1866691E-001	2.2950437E-005
3	0	1.328812159643989E+003	2.1842852E-001	-3.4306191E-005
3	0	1.329312159631358E+003	2.1822938E-001	-1.1064836E-004
3	0	1.329812159618727E+003	2.1803328E-001	4.2035979E-005
3	0	1.330312159606096E+003	2.1783732E-001	-1.2973390E-004
3	0	1.330812159593464E+003	2.1764198E-001	-1.4881945E-004
3	0	1.331312159580833E+003	2.1744870E-001	3.8648941E-006
3	0	1.331812159568202E+003	2.1725370E-001	4.2035979E-005
3	0	1.332312159555571E+003	2.1704237E-001	-7.2477276E-005
3	0	1.332812159542940E+003	2.1681368E-001	-1.5220648E-005
3	0	1.333312159530309E+003	2.1662426E-001	-7.2477276E-005
3	0	1.333812159517678E+003	2.1644664E-001	-1.6790499E-004
3	0	1.334312159505047E+003	2.1626908E-001	8.0207064E-005
3	0	1.334812159492416E+003	2.1608841E-001	-5.3391734E-005
3	0	1.335312159479785E+003	2.1592240E-001	-1.8699054E-004
3	0	1.335812159467154E+003	2.1574584E-001	-3.4306191E-005
3	0	1.336312159454523E+003	2.1554266E-001	4.2035979E-005
3	0	1.336812159441892E+003	2.1533290E-001	2.2950437E-005
3	0	1.337312159429261E+003	2.1516366E-001	2.2950437E-005
3	0	1.337812159416630E+003	2.1500768E-001	8.0207064E-005
3	0	1.338312159403999E+003	2.1483856E-001	-5.3391734E-005
3	0	1.338812159391367E+003	2.1467777E-001	-9.1562819E-005
3	0	1.339312159378736E+003	2.1451937E-001	-1.1064836E-004
3	0	1.339812159366105E+003	2.1435592E-001	-5.3391734E-005
3	0	1.340312159353474E+003	2.1416283E-001	-5.3391734E-005
3	0	1.340812159340843E+003	2.1396530E-001	-7.2477276E-005
3	0	1.341312159328212E+003	2.1380524E-001	9.9292607E-005
3	0	1.341812159315581E+003	2.1365218E-001	-1.5220648E-005
3	0	1.342312159302950E+003	2.1349756E-001	-1.4881945E-004
3	0	1.342812159290319E+003	2.1334933E-001	-1.5220648E-005
3	0	1.343312159277688E+003	2.1320549E-001	-1.5220648E-005
3	0	1.343812159265057E+003	2.1304828E-001	-1.1064836E-004
3	0	1.344312159252426E+003	2.1286847E-001	-3.4306191E-005
3	0	1.344812159239795E+003	2.1268304E-001	-1.1064836E-004
3	0	1.345312159227164E+003	2.1254118E-001	-1.1064836E-004
3	0	1.345812159214533E+003	2.1240741E-001	6.1121522E-005
3	0	1.346312159201902E+003	2.1227016E-001	6.1121522E-005
3	0	1.346812159189270E+003	2.1214171E-001	-5.3391734E-005
3	0	1.347312159176639E+003	2.1201077E-001	-7.2477276E-005
3	0	1.347812159164008E+003	2.1186803E-001	-1.1064836E-004
3	0	1.348312159151377E+003	2.1170370E-001	-5.3391734E-005
3	0	1.348812159138746E+003	2.1153331E-001	-1.1064836E-004
3	0	1.349312159126115E+003	2.1139532E-001	2.2950437E-005
3	0	1.349812159113484E+003	2.1127585E-001	-7.2477276E-005
3	0	1.350312159100853E+003	2.1114698E-001	3.8648941E-006
3	0	1.350812159088222E+003	2.1102503E-001	-7.2477276E-005
3	0	1.351312159075591E+003	2.1090762E-001	-2.8241824E-004
3	0	1.351812159062960E+003	2.1078056E-001	-3.4306191E-005
3	0	1.352312159050329E+003	2.1063077E-001	-1.4881945E-004
3	0	1.352812159037698E+003	2.1047261E-001	-1.5220648E-005
3	0	1.353312159025067E+003	2.1034954E-001	-5.3391734E-005
3	0	1.353812159012436E+003	2.1024016E-001	-1.4881945E-004
3	0	1.353846159011577E+003	2.1017176E-001	-3.4306191E-005