EC-Lab ASCII FILE
Nb header lines : 48                          

Open Circuit Voltage

Run on channel : 1 (SN 81504)
User : 
CE vs. WE compliance from -10 V to 10 V
Electrode connection : standard
Potential control : Ewe
Ewe ctrl range : min = -2.50 V, max = 2.50 V
Safety Limits :
	Do not start on E overload
Acquisition started on : 05/07/2026 18:41:54.331
Loaded Setting File :  C:\PEM-WE_measurements\2026\372_IV_IV IrOx, 5 min Pt, 30 min C, etched cathode\new station\Loopeis new\1,46 V different time gaps open cell\Loopeis 1,46V_90s_2_PEIS from 65kHz to 10kHz.mps
Saved on :
	File : L_17_Loopeis 1,46V_90s_2_PEIS from 65kHz to 10kHz_06_OCV_C01.mpr
	Directory : C:\PEM-WE_measurements\2026\372_IV_IV IrOx, 5 min Pt, 30 min C, etched cathode\new station\Loopeis new\1,46 V different time gaps open cell\
	Host : 192.168.0.2
Device : SP-150e (SN .005491)
Address : 192.168.0.91
EC-LAB for windows v11.71 (software)
Internet server v28.00 (firmware)
Command interpretor v14.01 (firmware)
Electrode material : 
Initial state : 
Electrolyte : 
Comments : 
Current amplifier : SP-150eB-20A
Electrode surface area : 0.001 cm²
Characteristic mass : 0.001 g
Equivalent Weight : 0.000 g/eq.
Density : 0.000 g/cm3
Volume (V) : 0.001 cm³
Record Analogic IN 1
Text export
   Mode : Standard
   Time format : Elapsed
Cycle Definition : Charge/Discharge alternance
tR (h:m:s)          0:01:30.0000        
dER/dt (mV/h)       1.0                 
record              <Ewe>               
dER (mV)            10.00               
dtR (s)             0.5000              
E range min (V)     -2.500              
E range max (V)     2.500               

mode	error	time/s	<Ewe/V>	Analog IN 1/V	
3	0	3.160685953308712E+002	1.2736173E+000	-9.1562819E-005
3	0	3.165685953182401E+002	1.2634588E+000	-5.3391734E-005
3	0	3.170685953056091E+002	1.2181683E+000	8.0207064E-005
3	0	3.175685952929780E+002	1.1286262E+000	-1.5220648E-005
3	0	3.180685952803469E+002	8.3253020E-001	-5.3391734E-005
3	0	3.185685952677159E+002	4.3196526E-001	3.8648941E-006
3	0	3.190685952550848E+002	3.3839518E-001	-1.1064836E-004
3	0	3.195685952424537E+002	3.2538238E-001	-1.1064836E-004
3	0	3.200685952298227E+002	3.1713134E-001	2.2950437E-005
3	0	3.205685952171916E+002	3.1056505E-001	-1.1064836E-004
3	0	3.210685952045606E+002	3.0554256E-001	-1.6790499E-004
3	0	3.215685951919295E+002	3.0167148E-001	-1.4881945E-004
3	0	3.220685951792984E+002	2.9864603E-001	-2.0607607E-004
3	0	3.225685951666674E+002	2.9624432E-001	-1.2973390E-004
3	0	3.230685951540363E+002	2.9425836E-001	-7.2477276E-005
3	0	3.235685951414052E+002	2.9259080E-001	4.2035979E-005
3	0	3.240685951287742E+002	2.9114300E-001	4.2035979E-005
3	0	3.245685951161431E+002	2.8987563E-001	-5.3391734E-005
3	0	3.250685951035121E+002	2.8873268E-001	-7.2477276E-005
3	0	3.255685950908810E+002	2.8767952E-001	8.0207064E-005
3	0	3.260685950782499E+002	2.8670442E-001	-3.4306191E-005
3	0	3.265685950656189E+002	2.8582874E-001	-1.5220648E-005
3	0	3.270685950529878E+002	2.8500858E-001	9.9292607E-005
3	0	3.275685950403567E+002	2.8422967E-001	-9.1562819E-005
3	0	3.280685950277257E+002	2.8348348E-001	-9.1562819E-005
3	0	3.285685950150946E+002	2.8277054E-001	-5.3391734E-005
3	0	3.290685950024636E+002	2.8207198E-001	-7.2477276E-005
3	0	3.295685949898325E+002	2.8137445E-001	-5.3391734E-005
3	0	3.300685949772014E+002	2.8070343E-001	-5.3391734E-005
3	0	3.305685949645704E+002	2.8007448E-001	2.2950437E-005
3	0	3.310685949519393E+002	2.7945751E-001	-1.1064836E-004
3	0	3.315685949393082E+002	2.7884963E-001	-1.5220648E-005
3	0	3.320685949266772E+002	2.7825722E-001	2.2950437E-005
3	0	3.325685949140461E+002	2.7766606E-001	-3.4306191E-005
3	0	3.330685949014151E+002	2.7707416E-001	4.2035979E-005
3	0	3.335685948887840E+002	2.7646771E-001	-7.2477276E-005
3	0	3.340685948761529E+002	2.7587944E-001	-3.4306191E-005
3	0	3.345685948635219E+002	2.7533135E-001	-1.1064836E-004
3	0	3.350685948508908E+002	2.7477872E-001	-1.5220648E-005
3	0	3.355685948382597E+002	2.7424371E-001	-9.1562819E-005
3	0	3.360685948256287E+002	2.7370080E-001	-9.1562819E-005
3	0	3.365685948129976E+002	2.7316198E-001	4.2035979E-005
3	0	3.370685948003666E+002	2.7261341E-001	-5.3391734E-005
3	0	3.375685947877355E+002	2.7207014E-001	-1.4881945E-004
3	0	3.380685947751044E+002	2.7152503E-001	-3.4306191E-005
3	0	3.385685947624734E+002	2.7102199E-001	-9.1562819E-005
3	0	3.390685947498423E+002	2.7051640E-001	-1.5220648E-005
3	0	3.395685947372112E+002	2.7001107E-001	-2.0607607E-004
3	0	3.400685947245802E+002	2.6952133E-001	-5.3391734E-005
3	0	3.405685947119491E+002	2.6902908E-001	-1.8699054E-004
3	0	3.410685946993181E+002	2.6851964E-001	-5.3391734E-005
3	0	3.415685946866870E+002	2.6800635E-001	-9.1562819E-005
3	0	3.420685946740559E+002	2.6749691E-001	-1.1064836E-004
3	0	3.425685946614249E+002	2.6703200E-001	-1.4881945E-004
3	0	3.430685946487938E+002	2.6655409E-001	-1.2973390E-004
3	0	3.435685946361627E+002	2.6608637E-001	-1.1064836E-004
3	0	3.440685946235317E+002	2.6562127E-001	-3.4306191E-005
3	0	3.445685946109006E+002	2.6515800E-001	-3.4306191E-005
3	0	3.450685945982696E+002	2.6469117E-001	-3.4306191E-005
3	0	3.455685945856385E+002	2.6420796E-001	-1.5220648E-005
3	0	3.460685945730074E+002	2.6373687E-001	-1.2973390E-004
3	0	3.465685945603764E+002	2.6330620E-001	-3.4306191E-005
3	0	3.470685945477453E+002	2.6286122E-001	-5.3391734E-005
3	0	3.475685945351142E+002	2.6242411E-001	-5.3391734E-005
3	0	3.480685945224832E+002	2.6199284E-001	2.2950437E-005
3	0	3.485685945098521E+002	2.6156187E-001	4.2035979E-005
3	0	3.490685944972211E+002	2.6112053E-001	-1.4881945E-004
3	0	3.495685944845900E+002	2.6067191E-001	-5.3391734E-005
3	0	3.500685944719589E+002	2.6022545E-001	-5.3391734E-005
3	0	3.505685944593279E+002	2.5982708E-001	2.2950437E-005
3	0	3.510685944466968E+002	2.5942352E-001	8.0207064E-005
3	0	3.515685944340657E+002	2.5902146E-001	-1.5220648E-005
3	0	3.520685944214347E+002	2.5862136E-001	-1.8699054E-004
3	0	3.525685944088036E+002	2.5821903E-001	-1.5220648E-005
3	0	3.530685943961726E+002	2.5781053E-001	8.0207064E-005
3	0	3.535685943835415E+002	2.5738660E-001	-9.1562819E-005
3	0	3.540685943709104E+002	2.5697324E-001	-1.4881945E-004
3	0	3.545685943582794E+002	2.5659779E-001	-1.6790499E-004
3	0	3.550685943456483E+002	2.5621879E-001	-1.5220648E-005
3	0	3.555685943330172E+002	2.5583950E-001	3.8648941E-006
3	0	3.560685943203862E+002	2.5546303E-001	-3.4306191E-005
3	0	3.565685943077551E+002	2.5509486E-001	8.0207064E-005
3	0	3.570685942951241E+002	2.5471881E-001	1.5654923E-004
3	0	3.575685942824930E+002	2.5433022E-001	-9.1562819E-005
3	0	3.580685942698619E+002	2.5395116E-001	-1.6790499E-004
3	0	3.585685942572309E+002	2.5361636E-001	-7.2477276E-005
3	0	3.590685942445998E+002	2.5326267E-001	-1.8699054E-004
3	0	3.595685942319687E+002	2.5292161E-001	-1.5220648E-005
3	0	3.600685942193377E+002	2.5257781E-001	3.8648941E-006
3	0	3.605685942067066E+002	2.5223956E-001	3.8648941E-006
3	0	3.610685941940756E+002	2.5189233E-001	4.2035979E-005
3	0	3.615685941814445E+002	2.5153124E-001	2.2950437E-005
3	0	3.620685941688134E+002	2.5117847E-001	8.0207064E-005
3	0	3.625685941561824E+002	2.5087065E-001	-1.4881945E-004
3	0	3.630685941435513E+002	2.5055677E-001	-5.3391734E-005
3	0	3.635685941309202E+002	2.5024164E-001	-9.1562819E-005
3	0	3.640685941182892E+002	2.4993318E-001	-1.5220648E-005
3	0	3.645685941056581E+002	2.4962536E-001	3.8648941E-006
3	0	3.650685940930271E+002	2.4930717E-001	-7.2477276E-005
3	0	3.655685940803960E+002	2.4897064E-001	-1.1064836E-004
3	0	3.660685940677649E+002	2.4864881E-001	3.8648941E-006
3	0	3.665685940551339E+002	2.4836725E-001	-1.5220648E-005
3	0	3.670685940425028E+002	2.4807562E-001	-1.5220648E-005
3	0	3.675685940298717E+002	2.4778570E-001	6.1121522E-005
3	0	3.680685940172407E+002	2.4750179E-001	1.5654923E-004
3	0	3.685685940046096E+002	2.4721779E-001	-1.1064836E-004
3	0	3.690685939919786E+002	2.4692456E-001	-7.2477276E-005
3	0	3.695685939793475E+002	2.4661835E-001	-3.4306191E-005
3	0	3.700685939667164E+002	2.4632379E-001	-1.1064836E-004
3	0	3.705685939540854E+002	2.4606612E-001	-9.1562819E-005
3	0	3.710685939414543E+002	2.4579701E-001	-5.3391734E-005
3	0	3.715685939288232E+002	2.4553631E-001	-1.2973390E-004
3	0	3.720685939161922E+002	2.4527518E-001	-5.3391734E-005
3	0	3.725685939035611E+002	2.4501349E-001	2.2950437E-005
3	0	3.730685938909301E+002	2.4473646E-001	6.1121522E-005
3	0	3.735685938782990E+002	2.4444965E-001	2.2950437E-005
3	0	3.740685938656679E+002	2.4417043E-001	-3.4306191E-005
3	0	3.745685938530369E+002	2.4393688E-001	-5.3391734E-005
3	0	3.750685938404058E+002	2.4368882E-001	-1.5220648E-005
3	0	3.755685938277747E+002	2.4344441E-001	-7.2477276E-005
3	0	3.760685938151437E+002	2.4320753E-001	-2.0607607E-004
3	0	3.765685938025126E+002	2.4296893E-001	3.8648941E-006
3	0	3.770685937898816E+002	2.4271293E-001	-5.3391734E-005
3	0	3.775685937772505E+002	2.4244305E-001	-9.1562819E-005
3	0	3.780685937646194E+002	2.4218610E-001	-2.0607607E-004
3	0	3.785685937519884E+002	2.4197225E-001	-7.2477276E-005
3	0	3.790685937393573E+002	2.4175212E-001	-1.1064836E-004
3	0	3.795685937267262E+002	2.4153155E-001	4.2035979E-005
3	0	3.800685937140952E+002	2.4131349E-001	-1.5220648E-005
3	0	3.805685937014641E+002	2.4109928E-001	4.2035979E-005
3	0	3.810685936888331E+002	2.4087279E-001	-3.4306191E-005
3	0	3.815685936762020E+002	2.4062909E-001	-1.5220648E-005
3	0	3.820685936635709E+002	2.4039361E-001	2.2950437E-005
3	0	3.825685936509399E+002	2.4020487E-001	-1.1064836E-004
3	0	3.830685936383088E+002	2.4000539E-001	-1.1064836E-004
3	0	3.835685936256778E+002	2.3980999E-001	-7.2477276E-005
3	0	3.840685936130467E+002	2.3961151E-001	3.8648941E-006
3	0	3.845685936004156E+002	2.3941226E-001	-5.3391734E-005
3	0	3.850685935877846E+002	2.3920031E-001	3.8648941E-006
3	0	3.855685935751535E+002	2.3897392E-001	-5.3391734E-005
3	0	3.860685935625224E+002	2.3876058E-001	-1.1064836E-004
3	0	3.865685935498914E+002	2.3857552E-001	-1.1064836E-004
3	0	3.870685935372603E+002	2.3838790E-001	2.2950437E-005
3	0	3.875685935246293E+002	2.3820187E-001	-3.4306191E-005
3	0	3.880685935119982E+002	2.3801664E-001	-1.5220648E-005
3	0	3.885685934993671E+002	2.3783299E-001	2.2950437E-005
3	0	3.890685934867361E+002	2.3763666E-001	-1.6790499E-004
3	0	3.895685934741050E+002	2.3741436E-001	3.8648941E-006
3	0	3.900685934614739E+002	2.3721041E-001	-3.4306191E-005
3	0	3.905685934488429E+002	2.3704530E-001	-1.4881945E-004
3	0	3.910685934362118E+002	2.3687081E-001	-7.2477276E-005
3	0	3.915685934235808E+002	2.3670040E-001	2.2950437E-005
3	0	3.920685934109497E+002	2.3653159E-001	6.1121522E-005
3	0	3.925685933983186E+002	2.3636754E-001	3.8648941E-006
3	0	3.930685933856876E+002	2.3617826E-001	3.8648941E-006
3	0	3.935685933730565E+002	2.3598193E-001	-1.1064836E-004
3	0	3.940685933604254E+002	2.3578988E-001	-2.2516162E-004
3	0	3.945685933477944E+002	2.3564009E-001	2.2950437E-005
3	0	3.950685933351633E+002	2.3548019E-001	-9.1562819E-005
3	0	3.955685933225323E+002	2.3532677E-001	3.8648941E-006
3	0	3.960685933099012E+002	2.3516680E-001	3.8648941E-006
3	0	3.965685932972701E+002	2.3500597E-001	-1.5220648E-005
3	0	3.970685932846391E+002	2.3483118E-001	-5.3391734E-005
3	0	3.975685932720080E+002	2.3464611E-001	2.2950437E-005
3	0	3.980685932593769E+002	2.3446305E-001	-1.6790499E-004
3	0	3.985685932467459E+002	2.3432867E-001	-3.4306191E-005
3	0	3.990685932341148E+002	2.3418687E-001	-1.4881945E-004
3	0	3.995685932214838E+002	2.3404419E-001	-5.3391734E-005
3	0	4.000685932088527E+002	2.3389952E-001	-9.1562819E-005
3	0	4.005685931962216E+002	2.3375875E-001	4.2035979E-005
3	0	4.010685931835906E+002	2.3359640E-001	2.2950437E-005
3	0	4.015685931709595E+002	2.3342113E-001	-5.3391734E-005
3	0	4.020685931583284E+002	2.3325765E-001	-7.2477276E-005
3	0	4.025685931456974E+002	2.3313785E-001	-1.1064836E-004
3	0	4.030685931330663E+002	2.3301110E-001	-9.1562819E-005
3	0	4.035685931204353E+002	2.3288068E-001	-3.4306191E-005
3	0	4.040685931078042E+002	2.3274626E-001	-1.5220648E-005
3	0	4.045685930951731E+002	2.3261876E-001	2.2950437E-005
3	0	4.050685930825421E+002	2.3247406E-001	-7.2477276E-005
3	0	4.055685930699110E+002	2.3231432E-001	-7.2477276E-005
3	0	4.055689930699009E+002	2.3219159E-001	-1.1064836E-004