EC-Lab ASCII FILE
Nb header lines : 48                          

Open Circuit Voltage

Run on channel : 1 (SN 81504)
User : 
CE vs. WE compliance from -10 V to 10 V
Electrode connection : standard
Potential control : Ewe
Ewe ctrl range : min = -2.50 V, max = 2.50 V
Safety Limits :
	Do not start on E overload
Acquisition started on : 05/07/2026 18:41:54.331
Loaded Setting File :  C:\PEM-WE_measurements\2026\372_IV_IV IrOx, 5 min Pt, 30 min C, etched cathode\new station\Loopeis new\1,46 V different time gaps open cell\Loopeis 1,46V_90s_2_PEIS from 65kHz to 10kHz.mps
Saved on :
	File : L_17_Loopeis 1,46V_90s_2_PEIS from 65kHz to 10kHz_02_OCV_C01.mpr
	Directory : C:\PEM-WE_measurements\2026\372_IV_IV IrOx, 5 min Pt, 30 min C, etched cathode\new station\Loopeis new\1,46 V different time gaps open cell\
	Host : 192.168.0.2
Device : SP-150e (SN .005491)
Address : 192.168.0.91
EC-LAB for windows v11.71 (software)
Internet server v28.00 (firmware)
Command interpretor v14.01 (firmware)
Electrode material : 
Initial state : 
Electrolyte : 
Comments : 
Current amplifier : SP-150eB-20A
Electrode surface area : 0.001 cm²
Characteristic mass : 0.001 g
Equivalent Weight : 0.000 g/eq.
Density : 0.000 g/cm3
Volume (V) : 0.001 cm³
Record Analogic IN 1
Text export
   Mode : Standard
   Time format : Elapsed
Cycle Definition : Charge/Discharge alternance
tR (h:m:s)          0:01:30.0000        
dER/dt (mV/h)       1.0                 
record              <Ewe>               
dER (mV)            10.00               
dtR (s)             0.5000              
E range min (V)     -2.500              
E range max (V)     2.500               

mode	error	time/s	<Ewe/V>	Analog IN 1/V	
3	0	4.549979885057837E+001	1.2738254E+000	-1.6790499E-004
3	0	4.599979883794731E+001	1.2635971E+000	4.2035979E-005
3	0	4.649979882531625E+001	1.2189441E+000	3.8648941E-006
3	0	4.699979881268519E+001	1.1295066E+000	2.2950437E-005
3	0	4.749979880005412E+001	8.3923918E-001	-1.8699054E-004
3	0	4.799979878742306E+001	4.3706706E-001	-3.4306191E-005
3	0	4.849979877479200E+001	3.3747968E-001	-9.1562819E-005
3	0	4.899979876216094E+001	3.2395929E-001	-3.4306191E-005
3	0	4.949979874952987E+001	3.1580889E-001	-1.8699054E-004
3	0	4.999979873689881E+001	3.0923599E-001	-9.1562819E-005
3	0	5.049979872426775E+001	3.0420753E-001	-5.3391734E-005
3	0	5.099979871163669E+001	3.0035192E-001	-2.2516162E-004
3	0	5.149979869900562E+001	2.9733932E-001	-5.3391734E-005
3	0	5.199979868637456E+001	2.9492295E-001	-9.1562819E-005
3	0	5.249979867374350E+001	2.9294232E-001	-1.1064836E-004
3	0	5.299979866111244E+001	2.9126352E-001	2.2950437E-005
3	0	5.349979864848137E+001	2.8979337E-001	-7.2477276E-005
3	0	5.399979863585031E+001	2.8850093E-001	3.8648941E-006
3	0	5.449979862321925E+001	2.8736594E-001	2.2950437E-005
3	0	5.499979861058819E+001	2.8634873E-001	-1.2973390E-004
3	0	5.549979859795712E+001	2.8540808E-001	4.2035979E-005
3	0	5.599979858532606E+001	2.8453296E-001	-1.1064836E-004
3	0	5.649979857269500E+001	2.8371966E-001	3.8648941E-006
3	0	5.699979856006394E+001	2.8294376E-001	-5.3391734E-005
3	0	5.749979854743287E+001	2.8218684E-001	-9.1562819E-005
3	0	5.799979853480181E+001	2.8144625E-001	-5.3391734E-005
3	0	5.849979852217075E+001	2.8075343E-001	-1.5220648E-005
3	0	5.899979850953969E+001	2.8009811E-001	-1.5220648E-005
3	0	5.949979849690862E+001	2.7945596E-001	3.8648941E-006
3	0	5.999979848427756E+001	2.7883527E-001	-1.5220648E-005
3	0	6.049979847164650E+001	2.7822614E-001	-3.4306191E-005
3	0	6.099979845901544E+001	2.7761805E-001	-1.4881945E-004
3	0	6.149979844638438E+001	2.7700409E-001	-9.1562819E-005
3	0	6.199979843375331E+001	2.7638212E-001	8.0207064E-005
3	0	6.249979842112225E+001	2.7580479E-001	-1.8699054E-004
3	0	6.299979840849119E+001	2.7524567E-001	-7.2477276E-005
3	0	6.349979839586013E+001	2.7469164E-001	-1.2973390E-004
3	0	6.399979838322906E+001	2.7414903E-001	4.2035979E-005
3	0	6.449979837059800E+001	2.7360475E-001	-3.4306191E-005
3	0	6.499979835796694E+001	2.7306783E-001	4.2035979E-005
3	0	6.549979834533588E+001	2.7251449E-001	-3.4306191E-005
3	0	6.599979833270481E+001	2.7195862E-001	-1.1064836E-004
3	0	6.649979832007375E+001	2.7142698E-001	-1.1064836E-004
3	0	6.699979830744269E+001	2.7091274E-001	-9.1562819E-005
3	0	6.749979829481163E+001	2.7039716E-001	-1.5220648E-005
3	0	6.799979828218056E+001	2.6988468E-001	3.8648941E-006
3	0	6.849979826954950E+001	2.6939437E-001	-9.1562819E-005
3	0	6.899979825691844E+001	2.6889083E-001	-1.5220648E-005
3	0	6.949979824428738E+001	2.6838109E-001	-3.4306191E-005
3	0	6.999979823165631E+001	2.6785639E-001	-7.2477276E-005
3	0	7.049979821902525E+001	2.6736733E-001	-1.5220648E-005
3	0	7.099979820639419E+001	2.6688966E-001	-3.4306191E-005
3	0	7.149979819376313E+001	2.6641148E-001	1.3746369E-004
3	0	7.199979818113206E+001	2.6593730E-001	-3.4306191E-005
3	0	7.249979816850100E+001	2.6547331E-001	-1.1064836E-004
3	0	7.299979815586994E+001	2.6499492E-001	8.0207064E-005
3	0	7.349979814323888E+001	2.6451981E-001	-1.5220648E-005
3	0	7.399979813060781E+001	2.6402697E-001	-1.5220648E-005
3	0	7.449979811797675E+001	2.6356933E-001	-9.1562819E-005
3	0	7.499979810534569E+001	2.6312968E-001	-9.1562819E-005
3	0	7.549979809271463E+001	2.6268014E-001	3.8648941E-006
3	0	7.599979808008356E+001	2.6223618E-001	-3.4306191E-005
3	0	7.649979806745250E+001	2.6180357E-001	4.2035979E-005
3	0	7.699979805482144E+001	2.6136395E-001	3.8648941E-006
3	0	7.749979804219038E+001	2.6090872E-001	-9.1562819E-005
3	0	7.799979802955932E+001	2.6044837E-001	-7.2477276E-005
3	0	7.849979801692825E+001	2.6002607E-001	4.2035979E-005
3	0	7.899979800429719E+001	2.5962111E-001	-9.1562819E-005
3	0	7.949979799166613E+001	2.5920731E-001	-1.5220648E-005
3	0	7.999979797903507E+001	2.5879720E-001	-9.1562819E-005
3	0	8.049979796640400E+001	2.5839493E-001	-1.4881945E-004
3	0	8.099979795377294E+001	2.5799090E-001	-1.5220648E-005
3	0	8.149979794114188E+001	2.5757420E-001	2.2950437E-005
3	0	8.199979792851082E+001	2.5714183E-001	4.2035979E-005
3	0	8.249979791587975E+001	2.5674635E-001	-5.3391734E-005
3	0	8.299979790324869E+001	2.5636846E-001	-1.5220648E-005
3	0	8.349979789061763E+001	2.5598776E-001	1.1837815E-004
3	0	8.399979787798657E+001	2.5561196E-001	-3.4306191E-005
3	0	8.449979786535550E+001	2.5523835E-001	3.8648941E-006
3	0	8.499979785272444E+001	2.5486326E-001	6.1121522E-005
3	0	8.549979784009338E+001	2.5447771E-001	-1.1064836E-004
3	0	8.599979782746232E+001	2.5407982E-001	-3.4306191E-005
3	0	8.649979781483125E+001	2.5371441E-001	4.2035979E-005
3	0	8.699979780220019E+001	2.5337082E-001	-1.1064836E-004
3	0	8.749979778956913E+001	2.5302103E-001	8.0207064E-005
3	0	8.799979777693807E+001	2.5267434E-001	-1.1064836E-004
3	0	8.849979776430700E+001	2.5233155E-001	2.2950437E-005
3	0	8.899979775167594E+001	2.5198039E-001	-7.2477276E-005
3	0	8.949979773904488E+001	2.5162116E-001	-2.2516162E-004
3	0	8.999979772641382E+001	2.5125089E-001	-1.2973390E-004
3	0	9.049979771378275E+001	2.5091723E-001	-7.2477276E-005
3	0	9.099979770115169E+001	2.5059542E-001	-1.2973390E-004
3	0	9.149979768852063E+001	2.5027126E-001	9.9292607E-005
3	0	9.199979767588957E+001	2.4995236E-001	-1.5220648E-005
3	0	9.249979766325851E+001	2.4963813E-001	-1.5220648E-005
3	0	9.299979765062744E+001	2.4932083E-001	-7.2477276E-005
3	0	9.349979763799638E+001	2.4898735E-001	-7.2477276E-005
3	0	9.399979762536532E+001	2.4863923E-001	3.8648941E-006
3	0	9.449979761273426E+001	2.4832404E-001	-7.2477276E-005
3	0	9.499979760010319E+001	2.4803554E-001	-1.6790499E-004
3	0	9.549979758747213E+001	2.4773805E-001	-9.1562819E-005
3	0	9.599979757484107E+001	2.4744369E-001	-1.5220648E-005
3	0	9.649979756221001E+001	2.4715041E-001	2.2950437E-005
3	0	9.699979754957894E+001	2.4684972E-001	2.2950437E-005
3	0	9.749979753694788E+001	2.4654610E-001	2.2950437E-005
3	0	9.799979752431682E+001	2.4623245E-001	-3.4306191E-005
3	0	9.849979751168576E+001	2.4594711E-001	4.2035979E-005
3	0	9.899979749905469E+001	2.4568810E-001	8.0207064E-005
3	0	9.949979748642363E+001	2.4542081E-001	4.2035979E-005
3	0	9.999979747379257E+001	2.4515954E-001	-2.0607607E-004
3	0	1.004997974611615E+002	2.4489549E-001	-5.3391734E-005
3	0	1.009997974485304E+002	2.4462995E-001	-1.6790499E-004
3	0	1.014997974358994E+002	2.4434799E-001	-1.1064836E-004
3	0	1.019997974232683E+002	2.4405085E-001	-1.6790499E-004
3	0	1.024997974106373E+002	2.4379317E-001	-3.4306191E-005
3	0	1.029997973980062E+002	2.4355114E-001	-5.3391734E-005
3	0	1.034997973853751E+002	2.4330795E-001	2.2950437E-005
3	0	1.039997973727441E+002	2.4306144E-001	-7.2477276E-005
3	0	1.044997973601130E+002	2.4282211E-001	-5.3391734E-005
3	0	1.049997973474819E+002	2.4257925E-001	-3.4306191E-005
3	0	1.054997973348509E+002	2.4231161E-001	3.8648941E-006
3	0	1.059997973222198E+002	2.4203812E-001	-9.1562819E-005
3	0	1.064997973095888E+002	2.4180421E-001	-5.3391734E-005
3	0	1.069997972969577E+002	2.4158016E-001	-5.3391734E-005
3	0	1.074997972843266E+002	2.4135782E-001	-1.8699054E-004
3	0	1.079997972716956E+002	2.4113199E-001	-3.4306191E-005
3	0	1.084997972590645E+002	2.4090953E-001	-1.2973390E-004
3	0	1.089997972464334E+002	2.4068692E-001	-9.1562819E-005
3	0	1.094997972338024E+002	2.4043953E-001	6.1121522E-005
3	0	1.099997972211713E+002	2.4019004E-001	-9.1562819E-005
3	0	1.104997972085403E+002	2.3997484E-001	-7.2477276E-005
3	0	1.109997971959092E+002	2.3977758E-001	-5.3391734E-005
3	0	1.114997971832781E+002	2.3957123E-001	-1.5220648E-005
3	0	1.119997971706471E+002	2.3936903E-001	-1.5220648E-005
3	0	1.124997971580160E+002	2.3915863E-001	-3.4306191E-005
3	0	1.129997971453849E+002	2.3895767E-001	-5.3391734E-005
3	0	1.134997971327539E+002	2.3872936E-001	-1.5220648E-005
3	0	1.139997971201228E+002	2.3848690E-001	-1.2973390E-004
3	0	1.144997971074918E+002	2.3828563E-001	4.2035979E-005
3	0	1.149997970948607E+002	2.3809549E-001	2.2950437E-005
3	0	1.154997970822296E+002	2.3789981E-001	9.9292607E-005
3	0	1.159997970695986E+002	2.3771456E-001	4.2035979E-005
3	0	1.164997970569675E+002	2.3753366E-001	-3.4306191E-005
3	0	1.169997970443364E+002	2.3734204E-001	3.8648941E-006
3	0	1.174997970317054E+002	2.3713402E-001	-7.2477276E-005
3	0	1.179997970190743E+002	2.3691466E-001	-9.1562819E-005
3	0	1.184997970064433E+002	2.3673351E-001	-9.1562819E-005
3	0	1.189997969938122E+002	2.3656999E-001	2.2950437E-005
3	0	1.194997969811811E+002	2.3639499E-001	-1.2973390E-004
3	0	1.199997969685501E+002	2.3622279E-001	4.2035979E-005
3	0	1.204997969559190E+002	2.3605067E-001	-7.2477276E-005
3	0	1.209997969432879E+002	2.3587979E-001	-5.3391734E-005
3	0	1.214997969306569E+002	2.3568876E-001	-1.1064836E-004
3	0	1.219997969180258E+002	2.3549393E-001	8.0207064E-005
3	0	1.224997969053948E+002	2.3532753E-001	1.1837815E-004
3	0	1.229997968927637E+002	2.3518133E-001	4.2035979E-005
3	0	1.234997968801326E+002	2.3502097E-001	-1.1064836E-004
3	0	1.239997968675016E+002	2.3486629E-001	-1.4881945E-004
3	0	1.244997968548705E+002	2.3471496E-001	3.8648941E-006
3	0	1.249997968422394E+002	2.3456214E-001	-7.2477276E-005
3	0	1.254997968296084E+002	2.3438421E-001	-1.5220648E-005
3	0	1.259997968169773E+002	2.3418973E-001	9.9292607E-005
3	0	1.264997968043463E+002	2.3403634E-001	2.2950437E-005
3	0	1.269997967917152E+002	2.3389849E-001	-1.5220648E-005
3	0	1.274997967790841E+002	2.3374440E-001	-5.3391734E-005
3	0	1.279997967664531E+002	2.3360045E-001	-3.4306191E-005
3	0	1.284997967538220E+002	2.3346332E-001	3.8648941E-006
3	0	1.289997967411909E+002	2.3332106E-001	-7.2477276E-005
3	0	1.294997967285599E+002	2.3315355E-001	-3.4306191E-005
3	0	1.299997967159288E+002	2.3297676E-001	2.2950437E-005
3	0	1.304997967032978E+002	2.3282953E-001	-3.4306191E-005
3	0	1.309997966906667E+002	2.3269899E-001	-1.5220648E-005
3	0	1.314997966780356E+002	2.3256166E-001	-3.4306191E-005
3	0	1.319997966654046E+002	2.3242778E-001	1.3746369E-004
3	0	1.324997966527735E+002	2.3229375E-001	-9.1562819E-005
3	0	1.329997966401424E+002	2.3214845E-001	-1.2973390E-004
3	0	1.334997966275114E+002	2.3198649E-001	-7.2477276E-005
3	0	1.339997966148803E+002	2.3181254E-001	-1.1064836E-004
3	0	1.344997966022493E+002	2.3167606E-001	-1.1064836E-004
3	0	1.349997965896182E+002	2.3155482E-001	-9.1562819E-005
3	0	1.350001965896081E+002	2.3143779E-001	-1.2973390E-004