EC-Lab ASCII FILE
Nb header lines : 48                          

Open Circuit Voltage

Run on channel : 1 (SN 81504)
User : 
CE vs. WE compliance from -10 V to 10 V
Electrode connection : standard
Potential control : Ewe
Ewe ctrl range : min = -2.50 V, max = 2.50 V
Safety Limits :
	Do not start on E overload
Acquisition started on : 05/07/2026 18:41:54.331
Loaded Setting File :  C:\PEM-WE_measurements\2026\372_IV_IV IrOx, 5 min Pt, 30 min C, etched cathode\new station\Loopeis new\1,46 V different time gaps open cell\Loopeis 1,46V_90s_2_PEIS from 65kHz to 10kHz.mps
Saved on :
	File : L_17_Loopeis 1,46V_90s_2_PEIS from 65kHz to 10kHz_08_OCV_C01.mpr
	Directory : C:\PEM-WE_measurements\2026\372_IV_IV IrOx, 5 min Pt, 30 min C, etched cathode\new station\Loopeis new\1,46 V different time gaps open cell\
	Host : 192.168.0.2
Device : SP-150e (SN .005491)
Address : 192.168.0.91
EC-LAB for windows v11.71 (software)
Internet server v28.00 (firmware)
Command interpretor v14.01 (firmware)
Electrode material : 
Initial state : 
Electrolyte : 
Comments : 
Current amplifier : SP-150eB-20A
Electrode surface area : 0.001 cm²
Characteristic mass : 0.001 g
Equivalent Weight : 0.000 g/eq.
Density : 0.000 g/cm3
Volume (V) : 0.001 cm³
Record Analogic IN 1
Text export
   Mode : Standard
   Time format : Elapsed
Cycle Definition : Charge/Discharge alternance
tR (h:m:s)          0:01:30.0000        
dER/dt (mV/h)       1.0                 
record              <Ewe>               
dER (mV)            10.00               
dtR (s)             0.5000              
E range min (V)     -2.500              
E range max (V)     2.500               

mode	error	time/s	<Ewe/V>	Analog IN 1/V	
3	0	4.515961952221551E+002	1.0544487E+000	-5.3391734E-005
3	0	4.520961952095240E+002	1.2165045E+000	-1.1064836E-004
3	0	4.525961951968930E+002	1.1685675E+000	-7.2477276E-005
3	0	4.530961951842619E+002	1.0690007E+000	-7.2477276E-005
3	0	4.535961951716308E+002	7.3468655E-001	-9.1562819E-005
3	0	4.540961951589998E+002	3.8100883E-001	-1.1064836E-004
3	0	4.545961951463687E+002	3.0809477E-001	-1.1064836E-004
3	0	4.550961951337376E+002	2.9836062E-001	2.2950437E-005
3	0	4.555961951211066E+002	2.9137629E-001	-1.1064836E-004
3	0	4.560961951084755E+002	2.8557909E-001	-5.3391734E-005
3	0	4.565961950958445E+002	2.8101289E-001	-1.4881945E-004
3	0	4.570961950832134E+002	2.7745375E-001	2.2950437E-005
3	0	4.575961950705823E+002	2.7463159E-001	-1.5220648E-005
3	0	4.580961950579513E+002	2.7237922E-001	-9.1562819E-005
3	0	4.585961950453202E+002	2.7052850E-001	-1.1064836E-004
3	0	4.590961950326891E+002	2.6897615E-001	-1.1064836E-004
3	0	4.595961950200581E+002	2.6764289E-001	8.0207064E-005
3	0	4.600961950074270E+002	2.6647514E-001	3.8648941E-006
3	0	4.605961949947960E+002	2.6542795E-001	9.9292607E-005
3	0	4.610961949821649E+002	2.6447189E-001	-7.2477276E-005
3	0	4.615961949695338E+002	2.6358148E-001	6.1121522E-005
3	0	4.620961949569028E+002	2.6277021E-001	-1.1064836E-004
3	0	4.625961949442717E+002	2.6202354E-001	-1.4881945E-004
3	0	4.630961949316406E+002	2.6130754E-001	-1.8699054E-004
3	0	4.635961949190096E+002	2.6063555E-001	3.8648941E-006
3	0	4.640961949063785E+002	2.5999078E-001	-1.1064836E-004
3	0	4.645961948937475E+002	2.5936982E-001	-7.2477276E-005
3	0	4.650961948811164E+002	2.5874645E-001	-2.0607607E-004
3	0	4.655961948684853E+002	2.5812164E-001	-1.4881945E-004
3	0	4.660961948558543E+002	2.5753859E-001	8.0207064E-005
3	0	4.665961948432232E+002	2.5697020E-001	-1.4881945E-004
3	0	4.670961948305921E+002	2.5641328E-001	-9.1562819E-005
3	0	4.675961948179611E+002	2.5586739E-001	-2.4424717E-004
3	0	4.680961948053300E+002	2.5532532E-001	1.1837815E-004
3	0	4.685961947926990E+002	2.5476950E-001	-1.5220648E-005
3	0	4.690961947800679E+002	2.5422364E-001	-5.3391734E-005
3	0	4.695961947674368E+002	2.5368690E-001	-1.1064836E-004
3	0	4.700961947548058E+002	2.5317460E-001	-7.2477276E-005
3	0	4.705961947421747E+002	2.5269374E-001	-9.1562819E-005
3	0	4.710961947295436E+002	2.5220299E-001	-9.1562819E-005
3	0	4.715961947169126E+002	2.5171420E-001	4.2035979E-005
3	0	4.720961947042815E+002	2.5122213E-001	-1.1064836E-004
3	0	4.725961946916505E+002	2.5072351E-001	-7.2477276E-005
3	0	4.730961946790194E+002	2.5020552E-001	-1.1064836E-004
3	0	4.735961946663883E+002	2.4968204E-001	4.2035979E-005
3	0	4.740961946537573E+002	2.4920116E-001	-1.5220648E-005
3	0	4.745961946411262E+002	2.4872907E-001	-9.1562819E-005
3	0	4.750961946284951E+002	2.4825984E-001	4.2035979E-005
3	0	4.755961946158641E+002	2.4779201E-001	-1.5220648E-005
3	0	4.760961946032330E+002	2.4732056E-001	3.8648941E-006
3	0	4.765961945906020E+002	2.4684887E-001	1.1837815E-004
3	0	4.770961945779709E+002	2.4636835E-001	-5.3391734E-005
3	0	4.775961945653398E+002	2.4587306E-001	-1.5220648E-005
3	0	4.780961945527088E+002	2.4541779E-001	4.2035979E-005
3	0	4.785961945400777E+002	2.4498478E-001	-1.6790499E-004
3	0	4.790961945274466E+002	2.4453959E-001	-3.4306191E-005
3	0	4.795961945148156E+002	2.4410003E-001	-7.2477276E-005
3	0	4.800961945021845E+002	2.4366067E-001	-1.8699054E-004
3	0	4.805961944895535E+002	2.4322172E-001	-9.1562819E-005
3	0	4.810961944769224E+002	2.4277230E-001	-1.5220648E-005
3	0	4.815961944642913E+002	2.4230535E-001	-7.2477276E-005
3	0	4.820961944516603E+002	2.4188243E-001	-7.2477276E-005
3	0	4.825961944390292E+002	2.4148077E-001	3.8648941E-006
3	0	4.830961944263981E+002	2.4106777E-001	-9.1562819E-005
3	0	4.835961944137671E+002	2.4066299E-001	-7.2477276E-005
3	0	4.840961944011360E+002	2.4025612E-001	-1.1064836E-004
3	0	4.845961943885050E+002	2.3984806E-001	-1.5220648E-005
3	0	4.850961943758739E+002	2.3942170E-001	-1.8699054E-004
3	0	4.855961943632428E+002	2.3898780E-001	8.0207064E-005
3	0	4.860961943506118E+002	2.3858856E-001	-7.2477276E-005
3	0	4.865961943379807E+002	2.3821285E-001	-1.5220648E-005
3	0	4.870961943253496E+002	2.3783314E-001	-2.2516162E-004
3	0	4.875961943127186E+002	2.3744766E-001	-1.4881945E-004
3	0	4.880961943000875E+002	2.3707032E-001	-1.2973390E-004
3	0	4.885961942874565E+002	2.3669015E-001	-9.1562819E-005
3	0	4.890961942748254E+002	2.3629530E-001	-1.1064836E-004
3	0	4.895961942621943E+002	2.3588575E-001	2.2950437E-005
3	0	4.900961942495633E+002	2.3552532E-001	-1.4881945E-004
3	0	4.905961942369322E+002	2.3517945E-001	2.2950437E-005
3	0	4.910961942243011E+002	2.3482831E-001	-1.5220648E-005
3	0	4.915961942116701E+002	2.3447962E-001	-1.2973390E-004
3	0	4.920961941990390E+002	2.3413223E-001	-1.5220648E-005
3	0	4.925961941864080E+002	2.3378471E-001	-1.5220648E-005
3	0	4.930961941737769E+002	2.3341095E-001	-5.3391734E-005
3	0	4.935961941611458E+002	2.3303641E-001	-1.5220648E-005
3	0	4.940961941485148E+002	2.3269235E-001	-1.1064836E-004
3	0	4.945961941358837E+002	2.3236874E-001	-9.1562819E-005
3	0	4.950961941232526E+002	2.3205116E-001	-7.2477276E-005
3	0	4.955961941106216E+002	2.3172931E-001	8.0207064E-005
3	0	4.960961940979905E+002	2.3140287E-001	3.8648941E-006
3	0	4.965961940853595E+002	2.3107652E-001	2.2950437E-005
3	0	4.970961940727284E+002	2.3072821E-001	9.9292607E-005
3	0	4.975961940600973E+002	2.3038492E-001	1.7563478E-004
3	0	4.980961940474663E+002	2.3007044E-001	-1.4881945E-004
3	0	4.985961940348352E+002	2.2977494E-001	-1.4881945E-004
3	0	4.990961940222041E+002	2.2948016E-001	-1.8699054E-004
3	0	4.995961940095731E+002	2.2917897E-001	4.2035979E-005
3	0	5.000961939969420E+002	2.2888707E-001	-5.3391734E-005
3	0	5.005961939843110E+002	2.2859125E-001	3.8648941E-006
3	0	5.010961939716799E+002	2.2827345E-001	9.9292607E-005
3	0	5.015961939590488E+002	2.2794859E-001	-7.2477276E-005
3	0	5.020961939464178E+002	2.2765665E-001	-5.3391734E-005
3	0	5.025961939337867E+002	2.2738765E-001	-7.2477276E-005
3	0	5.030961939211556E+002	2.2711578E-001	-7.2477276E-005
3	0	5.035961939085246E+002	2.2684601E-001	6.1121522E-005
3	0	5.040961938958935E+002	2.2657831E-001	-3.4306191E-005
3	0	5.045961938832625E+002	2.2630300E-001	-1.5220648E-005
3	0	5.050961938706314E+002	2.2600862E-001	4.2035979E-005
3	0	5.055961938580003E+002	2.2570249E-001	-5.3391734E-005
3	0	5.060961938453693E+002	2.2544461E-001	-1.6790499E-004
3	0	5.065961938327382E+002	2.2520465E-001	2.2950437E-005
3	0	5.070961938201071E+002	2.2496398E-001	-9.1562819E-005
3	0	5.075961938074761E+002	2.2471938E-001	-5.3391734E-005
3	0	5.080961937948450E+002	2.2447357E-001	-5.3391734E-005
3	0	5.085961937822140E+002	2.2422352E-001	3.8648941E-006
3	0	5.090961937695829E+002	2.2394688E-001	4.2035979E-005
3	0	5.095961937569518E+002	2.2366554E-001	-3.4306191E-005
3	0	5.100961937443208E+002	2.2342442E-001	-7.2477276E-005
3	0	5.105961937316897E+002	2.2320475E-001	-1.5220648E-005
3	0	5.110961937190586E+002	2.2297725E-001	-7.2477276E-005
3	0	5.115961937064276E+002	2.2274786E-001	-9.1562819E-005
3	0	5.120961936937965E+002	2.2251998E-001	4.2035979E-005
3	0	5.125961936811655E+002	2.2229837E-001	-7.2477276E-005
3	0	5.130961936685344E+002	2.2205146E-001	-5.3391734E-005
3	0	5.135961936559033E+002	2.2179027E-001	-7.2477276E-005
3	0	5.140961936432723E+002	2.2156407E-001	-1.5220648E-005
3	0	5.145961936306412E+002	2.2136039E-001	-7.2477276E-005
3	0	5.150961936180101E+002	2.2115153E-001	-3.4306191E-005
3	0	5.155961936053791E+002	2.2094151E-001	-1.1064836E-004
3	0	5.160961935927480E+002	2.2073844E-001	-7.2477276E-005
3	0	5.165961935801170E+002	2.2052899E-001	-3.4306191E-005
3	0	5.170961935674859E+002	2.2029218E-001	9.9292607E-005
3	0	5.175961935548548E+002	2.2004877E-001	-5.3391734E-005
3	0	5.180961935422238E+002	2.1983618E-001	-7.2477276E-005
3	0	5.185961935295927E+002	2.1965523E-001	-1.5220648E-005
3	0	5.190961935169616E+002	2.1947215E-001	-1.5220648E-005
3	0	5.195961935043306E+002	2.1928178E-001	-3.4306191E-005
3	0	5.200961934916995E+002	2.1909706E-001	-5.3391734E-005
3	0	5.205961934790685E+002	2.1890472E-001	1.1837815E-004
3	0	5.210961934664374E+002	2.1868661E-001	-1.4881945E-004
3	0	5.215961934538063E+002	2.1846221E-001	3.8648941E-006
3	0	5.220961934411753E+002	2.1827364E-001	-1.1064836E-004
3	0	5.225961934285442E+002	2.1811256E-001	-3.4306191E-005
3	0	5.230961934159131E+002	2.1794073E-001	3.8648941E-006
3	0	5.235961934032821E+002	2.1777128E-001	-3.4306191E-005
3	0	5.240961933906510E+002	2.1759655E-001	-3.4306191E-005
3	0	5.245961933780200E+002	2.1742243E-001	-5.3391734E-005
3	0	5.250961933653889E+002	2.1722792E-001	9.9292607E-005
3	0	5.255961933527578E+002	2.1702264E-001	4.2035979E-005
3	0	5.260961933401268E+002	2.1684740E-001	-1.2973390E-004
3	0	5.265961933274957E+002	2.1669617E-001	-1.6790499E-004
3	0	5.270961933148646E+002	2.1654066E-001	4.2035979E-005
3	0	5.275961933022336E+002	2.1638548E-001	-1.1064836E-004
3	0	5.280961932896025E+002	2.1622849E-001	-3.4306191E-005
3	0	5.285961932769715E+002	2.1606341E-001	-3.4306191E-005
3	0	5.290961932643404E+002	2.1588400E-001	-1.1064836E-004
3	0	5.295961932517093E+002	2.1569604E-001	-5.3391734E-005
3	0	5.300961932390783E+002	2.1553278E-001	-3.4306191E-005
3	0	5.305961932264472E+002	2.1539515E-001	2.2950437E-005
3	0	5.310961932138162E+002	2.1525638E-001	-5.3391734E-005
3	0	5.315961932011851E+002	2.1511790E-001	-1.4881945E-004
3	0	5.320961931885540E+002	2.1497154E-001	-1.4881945E-004
3	0	5.325961931759230E+002	2.1482278E-001	-1.1064836E-004
3	0	5.330961931632919E+002	2.1465577E-001	-1.5220648E-005
3	0	5.335961931506608E+002	2.1447110E-001	-7.2477276E-005
3	0	5.340961931380298E+002	2.1432167E-001	-1.5220648E-005
3	0	5.345961931253987E+002	2.1419819E-001	8.0207064E-005
3	0	5.350961931127677E+002	2.1406710E-001	1.3746369E-004
3	0	5.355961931001366E+002	2.1393429E-001	-5.3391734E-005
3	0	5.360961930875055E+002	2.1379727E-001	-3.4306191E-005
3	0	5.365961930748745E+002	2.1365714E-001	3.8648941E-006
3	0	5.370961930622434E+002	2.1349618E-001	-1.8699054E-004
3	0	5.375961930496123E+002	2.1331993E-001	-1.4881945E-004
3	0	5.380961930369813E+002	2.1318009E-001	-9.1562819E-005
3	0	5.385961930243502E+002	2.1306171E-001	-9.1562819E-005
3	0	5.390961930117192E+002	2.1293868E-001	4.2035979E-005
3	0	5.395961929990881E+002	2.1281679E-001	4.2035979E-005
3	0	5.400961929864570E+002	2.1268857E-001	-5.3391734E-005
3	0	5.405961929738260E+002	2.1255943E-001	-1.2973390E-004
3	0	5.410961929611949E+002	2.1240780E-001	-1.4881945E-004
3	0	5.411307929603208E+002	2.1232133E-001	-1.6790499E-004