EC-Lab ASCII FILE
Nb header lines : 55                          

Open Circuit Voltage

Run on channel : 1 (SN 81504)
User : 
CE vs. WE compliance from -10 V to 10 V
Electrode connection : standard
Potential control : Ewe
Ewe ctrl range : min = -2.50 V, max = 2.50 V
Safety Limits :
	Do not start on E overload
Acquisition started on : 05/07/2026 19:04:33.160
Loaded Setting File :  C:\PEM-WE_measurements\2026\372_IV_IV IrOx, 5 min Pt, 30 min C, etched cathode\new station\Loopeis new\1,46 V different time gaps open cell\Loopeis 1,46V_90s_3_PEIS from 6500Hz to 1000Hz.mps
Saved on :
	File : L_18_Loopeis 1,46V_90s_3_PEIS from 6500Hz to 1000Hz_08_OCV_C01.mpr
	Directory : C:\PEM-WE_measurements\2026\372_IV_IV IrOx, 5 min Pt, 30 min C, etched cathode\new station\Loopeis new\1,46 V different time gaps open cell\
	Host : 192.168.0.2
Device : SP-150e (SN .005491)
Address : 192.168.0.91
EC-LAB for windows v11.71 (software)
Internet server v28.00 (firmware)
Command interpretor v14.01 (firmware)
Electrode material : 
Initial state : 
Electrolyte : 
Comments : 
Current amplifier : SP-150eB-20A
Electrode surface area : 0.001 cm²
Characteristic mass : 0.001 g
Equivalent Weight : 0.000 g/eq.
Density : 0.000 g/cm3
Volume (V) : 0.001 cm³
Record Analogic IN 1
Text export
   Mode : Standard
   Time format : Elapsed
Cycle Definition : Charge/Discharge alternance
External device configuration :
   device type : Temperature Probe
   device name : Other
   Analog IN 1 : 
      unit : T/Â°C
      max : 100.000 at 2.000 V
      min : 0.000 at 1.460 V
tR (h:m:s)          0:01:30.0000        
dER/dt (mV/h)       1.0                 
record              <Ewe>               
dER (mV)            10.00               
dtR (s)             0.5000              
E range min (V)     -2.500              
E range max (V)     2.500               

mode	error	time/s	<Ewe/V>	Analog IN 1/V	
3	0	4.506403951759421E+002	1.0446997E+000	-2.7038031E+002
3	0	4.511403951633110E+002	1.2083651E+000	-2.7039093E+002
3	0	4.516403951506800E+002	1.1478173E+000	-2.7037677E+002
3	0	4.521403951380489E+002	1.0123702E+000	-2.7037326E+002
3	0	4.526403951254179E+002	5.9513372E-001	-2.7036972E+002
3	0	4.531403951127868E+002	3.3756492E-001	-2.7038031E+002
3	0	4.536403951001557E+002	2.9975399E-001	-2.7038742E+002
3	0	4.541403950875247E+002	2.9209664E-001	-2.7037326E+002
3	0	4.546403950748936E+002	2.8558037E-001	-2.7037677E+002
3	0	4.551403950622625E+002	2.8021976E-001	-2.7038742E+002
3	0	4.556403950496315E+002	2.7603200E-001	-2.7036618E+002
3	0	4.561403950370004E+002	2.7277538E-001	-2.7035913E+002
3	0	4.566403950243694E+002	2.7019805E-001	-2.7036267E+002
3	0	4.571403950117383E+002	2.6811135E-001	-2.7036267E+002
3	0	4.576403949991072E+002	2.6636791E-001	-2.7037326E+002
3	0	4.581403949864762E+002	2.6487291E-001	-2.7039093E+002
3	0	4.586403949738451E+002	2.6358786E-001	-2.7038031E+002
3	0	4.591403949612140E+002	2.6248366E-001	-2.7036972E+002
3	0	4.596403949485830E+002	2.6151013E-001	-2.7039093E+002
3	0	4.601403949359519E+002	2.6061934E-001	-2.7037677E+002
3	0	4.606403949233209E+002	2.5980759E-001	-2.7037326E+002
3	0	4.611403949106898E+002	2.5904664E-001	-2.7038385E+002
3	0	4.616403948980587E+002	2.5831446E-001	-2.7039447E+002
3	0	4.621403948854277E+002	2.5759399E-001	-2.7037326E+002
3	0	4.626403948727966E+002	2.5690344E-001	-2.7038385E+002
3	0	4.631403948601655E+002	2.5628215E-001	-2.7039447E+002
3	0	4.636403948475345E+002	2.5568587E-001	-2.7038385E+002
3	0	4.641403948349034E+002	2.5510114E-001	-2.7038031E+002
3	0	4.646403948222724E+002	2.5453079E-001	-2.7039093E+002
3	0	4.651403948096413E+002	2.5397047E-001	-2.7036972E+002
3	0	4.656403947970102E+002	2.5340307E-001	-2.7038031E+002
3	0	4.661403947843792E+002	2.5282547E-001	-2.7039447E+002
3	0	4.666403947717481E+002	2.5225434E-001	-2.7035205E+002
3	0	4.671403947591170E+002	2.5172764E-001	-2.7036972E+002
3	0	4.676403947464860E+002	2.5120980E-001	-2.7035205E+002
3	0	4.681403947338549E+002	2.5070062E-001	-2.7038385E+002
3	0	4.686403947212239E+002	2.5019529E-001	-2.7036267E+002
3	0	4.691403947085928E+002	2.4969450E-001	-2.7036972E+002
3	0	4.696403946959617E+002	2.4918883E-001	-2.7036972E+002
3	0	4.701403946833307E+002	2.4866112E-001	-2.7037326E+002
3	0	4.706403946706996E+002	2.4813592E-001	-2.7036972E+002
3	0	4.711403946580685E+002	2.4765207E-001	-2.7039801E+002
3	0	4.716403946454375E+002	2.4717608E-001	-2.7040155E+002
3	0	4.721403946328064E+002	2.4670355E-001	-2.7039801E+002
3	0	4.726403946201754E+002	2.4623145E-001	-2.7038385E+002
3	0	4.731403946075443E+002	2.4576469E-001	-2.7037326E+002
3	0	4.736403945949132E+002	2.4529064E-001	-2.7040155E+002
3	0	4.741403945822822E+002	2.4478821E-001	-2.7039447E+002
3	0	4.746403945696511E+002	2.4429040E-001	-2.7035559E+002
3	0	4.751403945570200E+002	2.4383780E-001	-2.7036267E+002
3	0	4.756403945443890E+002	2.4339588E-001	-2.7038385E+002
3	0	4.761403945317579E+002	2.4295296E-001	-2.7036267E+002
3	0	4.766403945191269E+002	2.4250528E-001	-2.7036972E+002
3	0	4.771403945064958E+002	2.4206322E-001	-2.7040506E+002
3	0	4.776403944938647E+002	2.4161430E-001	-2.7039093E+002
3	0	4.781403944812337E+002	2.4114476E-001	-2.7040506E+002
3	0	4.786403944686026E+002	2.4067919E-001	-2.7039093E+002
3	0	4.791403944559715E+002	2.4025658E-001	-2.7038385E+002
3	0	4.796403944433405E+002	2.3984818E-001	-2.7039447E+002
3	0	4.801403944307094E+002	2.3942931E-001	-2.7038742E+002
3	0	4.806403944180784E+002	2.3901102E-001	-2.7039801E+002
3	0	4.811403944054473E+002	2.3859556E-001	-2.7039093E+002
3	0	4.816403943928162E+002	2.3816717E-001	-2.7042981E+002
3	0	4.821403943801852E+002	2.3772210E-001	-2.7038031E+002
3	0	4.826403943675541E+002	2.3728558E-001	-2.7037677E+002
3	0	4.831403943549230E+002	2.3688997E-001	-2.7038385E+002
3	0	4.836403943422920E+002	2.3650005E-001	-2.7038742E+002
3	0	4.841403943296609E+002	2.3610213E-001	-2.7037326E+002
3	0	4.846403943170299E+002	2.3571692E-001	-2.7034851E+002
3	0	4.851403943043988E+002	2.3533612E-001	-2.7038742E+002
3	0	4.856403942917677E+002	2.3493592E-001	-2.7036618E+002
3	0	4.861403942791367E+002	2.3452133E-001	-2.7036267E+002
3	0	4.866403942665056E+002	2.3411532E-001	-2.7038031E+002
3	0	4.871403942538745E+002	2.3374593E-001	-2.7039093E+002
3	0	4.876403942412435E+002	2.3338585E-001	-2.7038385E+002
3	0	4.881403942286124E+002	2.3302743E-001	-2.7036618E+002
3	0	4.886403942159814E+002	2.3266840E-001	-2.7037326E+002
3	0	4.891403942033503E+002	2.3230633E-001	-2.7036618E+002
3	0	4.896403941907192E+002	2.3193778E-001	-2.7037326E+002
3	0	4.901403941780882E+002	2.3155746E-001	-2.7039801E+002
3	0	4.906403941654571E+002	2.3117264E-001	-2.7036267E+002
3	0	4.911403941528260E+002	2.3083709E-001	-2.7037677E+002
3	0	4.916403941401950E+002	2.3051341E-001	-2.7036972E+002
3	0	4.921403941275639E+002	2.3018888E-001	-2.7038031E+002
3	0	4.926403941149329E+002	2.2985587E-001	-2.7040155E+002
3	0	4.931403941023018E+002	2.2952025E-001	-2.7038742E+002
3	0	4.936403940896707E+002	2.2918111E-001	-2.7037677E+002
3	0	4.941403940770397E+002	2.2882293E-001	-2.7039093E+002
3	0	4.946403940644086E+002	2.2847071E-001	-2.7038031E+002
3	0	4.951403940517775E+002	2.2816281E-001	-2.7037677E+002
3	0	4.956403940391465E+002	2.2786620E-001	-2.7037677E+002
3	0	4.961403940265154E+002	2.2755560E-001	-2.7038742E+002
3	0	4.966403940138844E+002	2.2725119E-001	-2.7035913E+002
3	0	4.971403940012533E+002	2.2694947E-001	-2.7040506E+002
3	0	4.976403939886222E+002	2.2663976E-001	-2.7039801E+002
3	0	4.981403939759912E+002	2.2630370E-001	-2.7038031E+002
3	0	4.986403939633601E+002	2.2597454E-001	-2.7039801E+002
3	0	4.991403939507290E+002	2.2569488E-001	-2.7037677E+002
3	0	4.996403939380980E+002	2.2542694E-001	-2.7039093E+002
3	0	5.001403939254669E+002	2.2514601E-001	-2.7038385E+002
3	0	5.006403939128359E+002	2.2487101E-001	-2.7038742E+002
3	0	5.011403939002048E+002	2.2459371E-001	-2.7036267E+002
3	0	5.016403938875737E+002	2.2430904E-001	-2.7038031E+002
3	0	5.021403938749427E+002	2.2400081E-001	-2.7038031E+002
3	0	5.026403938623116E+002	2.2369556E-001	-2.7036972E+002
3	0	5.031403938496805E+002	2.2343914E-001	-2.7038742E+002
3	0	5.036403938370495E+002	2.2318676E-001	-2.7038385E+002
3	0	5.041403938244184E+002	2.2293262E-001	-2.7037326E+002
3	0	5.046403938117874E+002	2.2267283E-001	-2.7038385E+002
3	0	5.051403937991563E+002	2.2241817E-001	-2.7038742E+002
3	0	5.056403937865252E+002	2.2215082E-001	-2.7039093E+002
3	0	5.061403937738942E+002	2.2185922E-001	-2.7038031E+002
3	0	5.066403937612631E+002	2.2157723E-001	-2.7037326E+002
3	0	5.071403937486321E+002	2.2133504E-001	-2.7036618E+002
3	0	5.076403937360010E+002	2.2110717E-001	-2.7036972E+002
3	0	5.081403937233699E+002	2.2087367E-001	-2.7036618E+002
3	0	5.086403937107389E+002	2.2064281E-001	-2.7038742E+002
3	0	5.091403936981078E+002	2.2041148E-001	-2.7039093E+002
3	0	5.096403936854767E+002	2.2016989E-001	-2.7038742E+002
3	0	5.101403936728457E+002	2.1990284E-001	-2.7040155E+002
3	0	5.106403936602146E+002	2.1964712E-001	-2.7039093E+002
3	0	5.111403936475836E+002	2.1943529E-001	-2.7038385E+002
3	0	5.116403936349525E+002	2.1922603E-001	-2.7039093E+002
3	0	5.121403936223214E+002	2.1901405E-001	-2.7036972E+002
3	0	5.126403936096904E+002	2.1879797E-001	-2.7040155E+002
3	0	5.131403935970593E+002	2.1858624E-001	-2.7039801E+002
3	0	5.136403935844282E+002	2.1836561E-001	-2.7038031E+002
3	0	5.141403935717972E+002	2.1812716E-001	-2.7036267E+002
3	0	5.146403935591661E+002	2.1788324E-001	-2.7038385E+002
3	0	5.151403935465351E+002	2.1768868E-001	-2.7038742E+002
3	0	5.156403935339040E+002	2.1749969E-001	-2.7039093E+002
3	0	5.161403935212729E+002	2.1730565E-001	-2.7036618E+002
3	0	5.166403935086419E+002	2.1712126E-001	-2.7039093E+002
3	0	5.171403934960108E+002	2.1693167E-001	-2.7038031E+002
3	0	5.176403934833797E+002	2.1671832E-001	-2.7039801E+002
3	0	5.181403934707487E+002	2.1649225E-001	-2.7037677E+002
3	0	5.186403934581176E+002	2.1626447E-001	-2.7038031E+002
3	0	5.191403934454866E+002	2.1608704E-001	-2.7038742E+002
3	0	5.196403934328555E+002	2.1591747E-001	-2.7038031E+002
3	0	5.201403934202244E+002	2.1574357E-001	-2.7038385E+002
3	0	5.206403934075934E+002	2.1556705E-001	-2.7035913E+002
3	0	5.211403933949623E+002	2.1538883E-001	-2.7038742E+002
3	0	5.216403933823312E+002	2.1520233E-001	-2.7036267E+002
3	0	5.221403933697002E+002	2.1499352E-001	-2.7037677E+002
3	0	5.226403933570691E+002	2.1478295E-001	-2.7037677E+002
3	0	5.231403933444381E+002	2.1462166E-001	-2.7037326E+002
3	0	5.236403933318070E+002	2.1446784E-001	-2.7038385E+002
3	0	5.241403933191759E+002	2.1429957E-001	-2.7039447E+002
3	0	5.246403933065449E+002	2.1413028E-001	-2.7038385E+002
3	0	5.251403932939138E+002	2.1396768E-001	-2.7037326E+002
3	0	5.256403932812827E+002	2.1379083E-001	-2.7038031E+002
3	0	5.261403932686517E+002	2.1358421E-001	-2.7039447E+002
3	0	5.266403932560206E+002	2.1339276E-001	-2.7039447E+002
3	0	5.271403932433896E+002	2.1323961E-001	-2.7037677E+002
3	0	5.276403932307585E+002	2.1309012E-001	-2.7040155E+002
3	0	5.281403932181274E+002	2.1294568E-001	-2.7037326E+002
3	0	5.286403932054964E+002	2.1279408E-001	-2.7038031E+002
3	0	5.291403931928653E+002	2.1265018E-001	-2.7036267E+002
3	0	5.296403931802342E+002	2.1248463E-001	-2.7034497E+002
3	0	5.301403931676032E+002	2.1229900E-001	-2.7036267E+002
3	0	5.306403931549721E+002	2.1212274E-001	-2.7035913E+002
3	0	5.311403931423411E+002	2.1198721E-001	-2.7037677E+002
3	0	5.316403931297100E+002	2.1185347E-001	-2.7038385E+002
3	0	5.321403931170789E+002	2.1171954E-001	-2.7038385E+002
3	0	5.326403931044479E+002	2.1158114E-001	-2.7036972E+002
3	0	5.331403930918168E+002	2.1144933E-001	-2.7034143E+002
3	0	5.336403930791857E+002	2.1130320E-001	-2.7038031E+002
3	0	5.341403930665547E+002	2.1113195E-001	-2.7037326E+002
3	0	5.346403930539236E+002	2.1096754E-001	-2.7036267E+002
3	0	5.351403930412926E+002	2.1084420E-001	-2.7037326E+002
3	0	5.356403930286615E+002	2.1073121E-001	-2.7039801E+002
3	0	5.361403930160304E+002	2.1060710E-001	-2.7036618E+002
3	0	5.366403930033994E+002	2.1047948E-001	-2.7039447E+002
3	0	5.371403929907683E+002	2.1035546E-001	-2.7039093E+002
3	0	5.376403929781372E+002	2.1021570E-001	-2.7038742E+002
3	0	5.381403929655062E+002	2.1006095E-001	-2.7037677E+002
3	0	5.386403929528751E+002	2.0989588E-001	-2.7036972E+002
3	0	5.391403929402441E+002	2.0978022E-001	-2.7038385E+002
3	0	5.396403929276130E+002	2.0967506E-001	-2.7036972E+002
3	0	5.401403929149819E+002	2.0956293E-001	-2.7038031E+002
3	0	5.401637929143908E+002	2.0950793E-001	-2.7037677E+002