EC-Lab ASCII FILE
Nb header lines : 55                          

Open Circuit Voltage

Run on channel : 1 (SN 81504)
User : 
CE vs. WE compliance from -10 V to 10 V
Electrode connection : standard
Potential control : Ewe
Ewe ctrl range : min = -2.50 V, max = 2.50 V
Safety Limits :
	Do not start on E overload
Acquisition started on : 05/07/2026 19:04:33.160
Loaded Setting File :  C:\PEM-WE_measurements\2026\372_IV_IV IrOx, 5 min Pt, 30 min C, etched cathode\new station\Loopeis new\1,46 V different time gaps open cell\Loopeis 1,46V_90s_3_PEIS from 6500Hz to 1000Hz.mps
Saved on :
	File : L_18_Loopeis 1,46V_90s_3_PEIS from 6500Hz to 1000Hz_10_OCV_C01.mpr
	Directory : C:\PEM-WE_measurements\2026\372_IV_IV IrOx, 5 min Pt, 30 min C, etched cathode\new station\Loopeis new\1,46 V different time gaps open cell\
	Host : 192.168.0.2
Device : SP-150e (SN .005491)
Address : 192.168.0.91
EC-LAB for windows v11.71 (software)
Internet server v28.00 (firmware)
Command interpretor v14.01 (firmware)
Electrode material : 
Initial state : 
Electrolyte : 
Comments : 
Current amplifier : SP-150eB-20A
Electrode surface area : 0.001 cm²
Characteristic mass : 0.001 g
Equivalent Weight : 0.000 g/eq.
Density : 0.000 g/cm3
Volume (V) : 0.001 cm³
Record Analogic IN 1
Text export
   Mode : Standard
   Time format : Elapsed
Cycle Definition : Charge/Discharge alternance
External device configuration :
   device type : Temperature Probe
   device name : Other
   Analog IN 1 : 
      unit : T/Â°C
      max : 100.000 at 2.000 V
      min : 0.000 at 1.460 V
tR (h:m:s)          0:01:30.0000        
dER/dt (mV/h)       1.0                 
record              <Ewe>               
dER (mV)            10.00               
dtR (s)             0.5000              
E range min (V)     -2.500              
E range max (V)     2.500               

mode	error	time/s	<Ewe/V>	Analog IN 1/V	
3	0	5.856643917649490E+002	1.2685479E+000	-2.7038031E+002
3	0	5.861643917523179E+002	1.2540104E+000	-2.7037326E+002
3	0	5.866643917396868E+002	1.1947576E+000	-2.7039447E+002
3	0	5.871643917270558E+002	1.0680532E+000	-2.7041214E+002
3	0	5.876643917144247E+002	6.5158778E-001	-2.7042627E+002
3	0	5.881643917017936E+002	3.7218058E-001	-2.7038385E+002
3	0	5.886643916891626E+002	3.2658163E-001	-2.7038385E+002
3	0	5.891643916765315E+002	3.1713256E-001	-2.7037326E+002
3	0	5.896643916639005E+002	3.0966008E-001	-2.7037326E+002
3	0	5.901643916512694E+002	3.0371317E-001	-2.7038385E+002
3	0	5.906643916386383E+002	2.9915258E-001	-2.7040506E+002
3	0	5.911643916260073E+002	2.9566172E-001	-2.7036972E+002
3	0	5.916643916133762E+002	2.9292142E-001	-2.7036972E+002
3	0	5.921643916007451E+002	2.9068729E-001	-2.7037326E+002
3	0	5.926643915881141E+002	2.8884313E-001	-2.7036618E+002
3	0	5.931643915754830E+002	2.8728291E-001	-2.7037677E+002
3	0	5.936643915628520E+002	2.8591207E-001	-2.7036267E+002
3	0	5.941643915502209E+002	2.8468275E-001	-2.7037326E+002
3	0	5.946643915375898E+002	2.8357145E-001	-2.7039093E+002
3	0	5.951643915249588E+002	2.8259632E-001	-2.7039801E+002
3	0	5.956643915123277E+002	2.8170824E-001	-2.7037677E+002
3	0	5.961643914996966E+002	2.8087488E-001	-2.7036618E+002
3	0	5.966643914870656E+002	2.8008434E-001	-2.7039093E+002
3	0	5.971643914744345E+002	2.7933487E-001	-2.7040860E+002
3	0	5.976643914618035E+002	2.7861139E-001	-2.7035205E+002
3	0	5.981643914491724E+002	2.7788752E-001	-2.7035913E+002
3	0	5.986643914365413E+002	2.7719134E-001	-2.7039093E+002
3	0	5.991643914239103E+002	2.7654418E-001	-2.7037326E+002
3	0	5.996643914112792E+002	2.7591929E-001	-2.7039447E+002
3	0	6.001643913986481E+002	2.7530834E-001	-2.7034143E+002
3	0	6.006643913860171E+002	2.7471393E-001	-2.7035913E+002
3	0	6.011643913733860E+002	2.7413112E-001	-2.7039801E+002
3	0	6.016643913607550E+002	2.7354139E-001	-2.7037677E+002
3	0	6.021643913481239E+002	2.7292958E-001	-2.7038031E+002
3	0	6.026643913354928E+002	2.7233934E-001	-2.7039093E+002
3	0	6.031643913228618E+002	2.7178875E-001	-2.7040155E+002
3	0	6.036643913102307E+002	2.7124530E-001	-2.7035913E+002
3	0	6.041643912975997E+002	2.7070856E-001	-2.7037677E+002
3	0	6.046643912849686E+002	2.7016634E-001	-2.7039093E+002
3	0	6.051643912723375E+002	2.6963747E-001	-2.7038031E+002
3	0	6.056643912597065E+002	2.6910508E-001	-2.7037326E+002
3	0	6.061643912470754E+002	2.6854607E-001	-2.7035205E+002
3	0	6.066643912344443E+002	2.6799965E-001	-2.7038742E+002
3	0	6.071643912218133E+002	2.6748708E-001	-2.7038742E+002
3	0	6.076643912091822E+002	2.6698339E-001	-2.7040506E+002
3	0	6.081643911965512E+002	2.6648423E-001	-2.7040155E+002
3	0	6.086643911839201E+002	2.6598373E-001	-2.7038031E+002
3	0	6.091643911712890E+002	2.6549363E-001	-2.7037326E+002
3	0	6.096643911586580E+002	2.6498869E-001	-2.7036618E+002
3	0	6.101643911460269E+002	2.6447633E-001	-2.7037677E+002
3	0	6.106643911333958E+002	2.6396093E-001	-2.7038031E+002
3	0	6.111643911207648E+002	2.6349407E-001	-2.7037677E+002
3	0	6.116643911081337E+002	2.6302910E-001	-2.7038742E+002
3	0	6.121643910955027E+002	2.6256794E-001	-2.7035559E+002
3	0	6.126643910828716E+002	2.6210377E-001	-2.7038031E+002
3	0	6.131643910702405E+002	2.6164347E-001	-2.7037326E+002
3	0	6.136643910576095E+002	2.6117337E-001	-2.7038742E+002
3	0	6.141643910449784E+002	2.6068646E-001	-2.7038031E+002
3	0	6.146643910323473E+002	2.6020703E-001	-2.7036267E+002
3	0	6.151643910197163E+002	2.5977233E-001	-2.7035913E+002
3	0	6.156643910070852E+002	2.5933805E-001	-2.7037677E+002
3	0	6.161643909944542E+002	2.5890350E-001	-2.7038742E+002
3	0	6.166643909818231E+002	2.5847441E-001	-2.7036972E+002
3	0	6.171643909691920E+002	2.5804797E-001	-2.7035205E+002
3	0	6.176643909565610E+002	2.5761300E-001	-2.7037677E+002
3	0	6.181643909439299E+002	2.5715709E-001	-2.7035559E+002
3	0	6.186643909312988E+002	2.5671110E-001	-2.7037677E+002
3	0	6.191643909186678E+002	2.5630438E-001	-2.7038031E+002
3	0	6.196643909060367E+002	2.5590533E-001	-2.7038385E+002
3	0	6.201643908934057E+002	2.5550449E-001	-2.7037326E+002
3	0	6.206643908807746E+002	2.5510892E-001	-2.7039801E+002
3	0	6.211643908681435E+002	2.5471249E-001	-2.7037677E+002
3	0	6.216643908555125E+002	2.5430724E-001	-2.7039093E+002
3	0	6.221643908428814E+002	2.5388813E-001	-2.7035913E+002
3	0	6.226643908302503E+002	2.5348112E-001	-2.7038031E+002
3	0	6.231643908176193E+002	2.5310564E-001	-2.7036618E+002
3	0	6.236643908049882E+002	2.5273687E-001	-2.7036618E+002
3	0	6.241643907923572E+002	2.5236702E-001	-2.7038031E+002
3	0	6.246643907797261E+002	2.5199628E-001	-2.7036267E+002
3	0	6.251643907670950E+002	2.5163236E-001	-2.7038031E+002
3	0	6.256643907544640E+002	2.5125590E-001	-2.7037326E+002
3	0	6.261643907418329E+002	2.5086209E-001	-2.7038742E+002
3	0	6.266643907292018E+002	2.5047681E-001	-2.7040155E+002
3	0	6.271643907165708E+002	2.5012705E-001	-2.7038742E+002
3	0	6.276643907039397E+002	2.4979153E-001	-2.7038385E+002
3	0	6.281643906913087E+002	2.4945362E-001	-2.7035913E+002
3	0	6.286643906786776E+002	2.4911812E-001	-2.7039093E+002
3	0	6.291643906660465E+002	2.4877898E-001	-2.7039447E+002
3	0	6.296643906534155E+002	2.4843073E-001	-2.7037677E+002
3	0	6.301643906407844E+002	2.4807397E-001	-2.7034497E+002
3	0	6.306643906281533E+002	2.4772142E-001	-2.7041568E+002
3	0	6.311643906155223E+002	2.4740197E-001	-2.7035205E+002
3	0	6.316643906028912E+002	2.4708903E-001	-2.7039093E+002
3	0	6.321643905902602E+002	2.4677762E-001	-2.7037677E+002
3	0	6.326643905776291E+002	2.4646781E-001	-2.7036618E+002
3	0	6.331643905649980E+002	2.4615633E-001	-2.7038031E+002
3	0	6.336643905523670E+002	2.4584107E-001	-2.7039093E+002
3	0	6.341643905397359E+002	2.4550311E-001	-2.7040155E+002
3	0	6.346643905271048E+002	2.4517603E-001	-2.7039801E+002
3	0	6.351643905144738E+002	2.4488427E-001	-2.7038385E+002
3	0	6.356643905018427E+002	2.4460135E-001	-2.7037326E+002
3	0	6.361643904892117E+002	2.4431998E-001	-2.7039093E+002
3	0	6.366643904765806E+002	2.4403712E-001	-2.7035913E+002
3	0	6.371643904639495E+002	2.4375668E-001	-2.7038031E+002
3	0	6.376643904513185E+002	2.4345709E-001	-2.7038742E+002
3	0	6.381643904386874E+002	2.4315073E-001	-2.7036267E+002
3	0	6.386643904260563E+002	2.4284838E-001	-2.7035205E+002
3	0	6.391643904134253E+002	2.4258573E-001	-2.7037326E+002
3	0	6.396643904007942E+002	2.4232554E-001	-2.7037677E+002
3	0	6.401643903881632E+002	2.4206793E-001	-2.7037677E+002
3	0	6.406643903755321E+002	2.4181132E-001	-2.7038031E+002
3	0	6.411643903629010E+002	2.4155407E-001	-2.7036972E+002
3	0	6.416643903502700E+002	2.4128275E-001	-2.7036267E+002
3	0	6.421643903376389E+002	2.4099241E-001	-2.7039447E+002
3	0	6.426643903250078E+002	2.4071407E-001	-2.7037677E+002
3	0	6.431643903123768E+002	2.4047388E-001	-2.7037677E+002
3	0	6.436643902997457E+002	2.4024381E-001	-2.7037677E+002
3	0	6.441643902871147E+002	2.4000944E-001	-2.7039447E+002
3	0	6.446643902744836E+002	2.3977125E-001	-2.7039801E+002
3	0	6.451643902618525E+002	2.3953795E-001	-2.7037677E+002
3	0	6.456643902492215E+002	2.3927784E-001	-2.7036972E+002
3	0	6.461643902365904E+002	2.3901415E-001	-2.7035559E+002
3	0	6.466643902239593E+002	2.3875074E-001	-2.7037677E+002
3	0	6.471643902113283E+002	2.3852548E-001	-2.7037677E+002
3	0	6.476643901986972E+002	2.3830235E-001	-2.7038385E+002
3	0	6.481643901860662E+002	2.3808871E-001	-2.7037326E+002
3	0	6.486643901734351E+002	2.3787086E-001	-2.7037326E+002
3	0	6.491643901608040E+002	2.3765306E-001	-2.7037677E+002
3	0	6.496643901481730E+002	2.3742054E-001	-2.7037326E+002
3	0	6.501643901355419E+002	2.3717147E-001	-2.7039447E+002
3	0	6.506643901229108E+002	2.3693256E-001	-2.7038385E+002
3	0	6.511643901102798E+002	2.3673068E-001	-2.7035559E+002
3	0	6.516643900976487E+002	2.3653340E-001	-2.7036972E+002
3	0	6.521643900850177E+002	2.3633660E-001	-2.7038742E+002
3	0	6.526643900723866E+002	2.3613356E-001	-2.7037326E+002
3	0	6.531643900597555E+002	2.3593815E-001	-2.7037326E+002
3	0	6.536643900471245E+002	2.3573218E-001	-2.7036618E+002
3	0	6.541643900344934E+002	2.3550941E-001	-2.7037677E+002
3	0	6.546643900218623E+002	2.3529010E-001	-2.7039447E+002
3	0	6.551643900092313E+002	2.3511505E-001	-2.7038385E+002
3	0	6.556643899966002E+002	2.3493455E-001	-2.7039801E+002
3	0	6.561643899839692E+002	2.3475511E-001	-2.7036618E+002
3	0	6.566643899713381E+002	2.3457216E-001	-2.7037677E+002
3	0	6.571643899587070E+002	2.3439115E-001	-2.7039801E+002
3	0	6.576643899460760E+002	2.3420435E-001	-2.7037326E+002
3	0	6.581643899334449E+002	2.3398983E-001	-2.7039093E+002
3	0	6.586643899208138E+002	2.3377791E-001	-2.7037326E+002
3	0	6.591643899081828E+002	2.3360538E-001	-2.7038031E+002
3	0	6.596643898955517E+002	2.3344843E-001	-2.7039447E+002
3	0	6.601643898829207E+002	2.3328649E-001	-2.7037326E+002
3	0	6.606643898702896E+002	2.3312877E-001	-2.7037677E+002
3	0	6.611643898576585E+002	2.3296478E-001	-2.7034851E+002
3	0	6.616643898450275E+002	2.3278764E-001	-2.7036618E+002
3	0	6.621643898323964E+002	2.3258178E-001	-2.7038031E+002
3	0	6.626643898197653E+002	2.3239306E-001	-2.7035913E+002
3	0	6.631643898071343E+002	2.3224312E-001	-2.7038385E+002
3	0	6.636643897945032E+002	2.3209435E-001	-2.7040506E+002
3	0	6.641643897818722E+002	2.3194604E-001	-2.7036267E+002
3	0	6.646643897692411E+002	2.3179254E-001	-2.7038031E+002
3	0	6.651643897566100E+002	2.3164520E-001	-2.7038742E+002
3	0	6.656643897439790E+002	2.3147909E-001	-2.7037326E+002
3	0	6.661643897313479E+002	2.3128763E-001	-2.7038385E+002
3	0	6.666643897187168E+002	2.3109736E-001	-2.7040155E+002
3	0	6.671643897060858E+002	2.3095751E-001	-2.7037677E+002
3	0	6.676643896934547E+002	2.3082118E-001	-2.7037677E+002
3	0	6.681643896808237E+002	2.3067918E-001	-2.7037326E+002
3	0	6.686643896681926E+002	2.3053734E-001	-2.7038385E+002
3	0	6.691643896555615E+002	2.3039432E-001	-2.7036972E+002
3	0	6.696643896429305E+002	2.3023915E-001	-2.7038385E+002
3	0	6.701643896302994E+002	2.3006645E-001	-2.7037326E+002
3	0	6.706643896176683E+002	2.2988985E-001	-2.7038385E+002
3	0	6.711643896050373E+002	2.2976097E-001	-2.7037677E+002
3	0	6.716643895924062E+002	2.2963956E-001	-2.7038385E+002
3	0	6.721643895797752E+002	2.2951940E-001	-2.7036972E+002
3	0	6.726643895671441E+002	2.2939304E-001	-2.7034851E+002
3	0	6.731643895545130E+002	2.2926077E-001	-2.7036267E+002
3	0	6.736643895418820E+002	2.2912313E-001	-2.7039093E+002
3	0	6.741643895292509E+002	2.2895539E-001	-2.7035205E+002
3	0	6.746643895166198E+002	2.2879861E-001	-2.7036618E+002
3	0	6.751643895039888E+002	2.2867742E-001	-2.7039093E+002
3	0	6.751647895039787E+002	2.2866109E-001	-2.7040155E+002