EC-Lab ASCII FILE
Nb header lines : 55                          

Open Circuit Voltage

Run on channel : 1 (SN 81504)
User : 
CE vs. WE compliance from -10 V to 10 V
Electrode connection : standard
Potential control : Ewe
Ewe ctrl range : min = -2.50 V, max = 2.50 V
Safety Limits :
	Do not start on E overload
Acquisition started on : 05/07/2026 19:04:33.160
Loaded Setting File :  C:\PEM-WE_measurements\2026\372_IV_IV IrOx, 5 min Pt, 30 min C, etched cathode\new station\Loopeis new\1,46 V different time gaps open cell\Loopeis 1,46V_90s_3_PEIS from 6500Hz to 1000Hz.mps
Saved on :
	File : L_18_Loopeis 1,46V_90s_3_PEIS from 6500Hz to 1000Hz_06_OCV_C01.mpr
	Directory : C:\PEM-WE_measurements\2026\372_IV_IV IrOx, 5 min Pt, 30 min C, etched cathode\new station\Loopeis new\1,46 V different time gaps open cell\
	Host : 192.168.0.2
Device : SP-150e (SN .005491)
Address : 192.168.0.91
EC-LAB for windows v11.71 (software)
Internet server v28.00 (firmware)
Command interpretor v14.01 (firmware)
Electrode material : 
Initial state : 
Electrolyte : 
Comments : 
Current amplifier : SP-150eB-20A
Electrode surface area : 0.001 cm²
Characteristic mass : 0.001 g
Equivalent Weight : 0.000 g/eq.
Density : 0.000 g/cm3
Volume (V) : 0.001 cm³
Record Analogic IN 1
Text export
   Mode : Standard
   Time format : Elapsed
Cycle Definition : Charge/Discharge alternance
External device configuration :
   device type : Temperature Probe
   device name : Other
   Analog IN 1 : 
      unit : T/Â°C
      max : 100.000 at 2.000 V
      min : 0.000 at 1.460 V
tR (h:m:s)          0:01:30.0000        
dER/dt (mV/h)       1.0                 
record              <Ewe>               
dER (mV)            10.00               
dtR (s)             0.5000              
E range min (V)     -2.500              
E range max (V)     2.500               

mode	error	time/s	<Ewe/V>	Analog IN 1/V	
3	0	3.156885953128221E+002	1.2698387E+000	-2.7038742E+002
3	0	3.161885953001911E+002	1.2554394E+000	-2.7038742E+002
3	0	3.166885952875600E+002	1.1975993E+000	-2.7036618E+002
3	0	3.171885952749290E+002	1.0756677E+000	-2.7036267E+002
3	0	3.176885952622979E+002	6.7170465E-001	-2.7038031E+002
3	0	3.181885952496668E+002	3.7625155E-001	-2.7036267E+002
3	0	3.186885952370358E+002	3.2615685E-001	-2.7037326E+002
3	0	3.191885952244047E+002	3.1663656E-001	-2.7036972E+002
3	0	3.196885952117736E+002	3.0916670E-001	-2.7038385E+002
3	0	3.201885951991426E+002	3.0320883E-001	-2.7038742E+002
3	0	3.206885951865115E+002	2.9864323E-001	-2.7038385E+002
3	0	3.211885951738805E+002	2.9511777E-001	-2.7036267E+002
3	0	3.216885951612494E+002	2.9234782E-001	-2.7038742E+002
3	0	3.221885951486183E+002	2.9009026E-001	-2.7035205E+002
3	0	3.226885951359873E+002	2.8820893E-001	-2.7037326E+002
3	0	3.231885951233562E+002	2.8662118E-001	-2.7037326E+002
3	0	3.236885951107251E+002	2.8526917E-001	-2.7041214E+002
3	0	3.241885950980941E+002	2.8408301E-001	-2.7037326E+002
3	0	3.246885950854630E+002	2.8301591E-001	-2.7037326E+002
3	0	3.251885950728320E+002	2.8204894E-001	-2.7037677E+002
3	0	3.256885950602009E+002	2.8114811E-001	-2.7036618E+002
3	0	3.261885950475698E+002	2.8029111E-001	-2.7038031E+002
3	0	3.266885950349388E+002	2.7945441E-001	-2.7036267E+002
3	0	3.271885950223077E+002	2.7869025E-001	-2.7036618E+002
3	0	3.276885950096766E+002	2.7797979E-001	-2.7038031E+002
3	0	3.281885949970456E+002	2.7729747E-001	-2.7036267E+002
3	0	3.286885949844145E+002	2.7664402E-001	-2.7036618E+002
3	0	3.291885949717835E+002	2.7600732E-001	-2.7038742E+002
3	0	3.296885949591524E+002	2.7537802E-001	-2.7038385E+002
3	0	3.301885949465213E+002	2.7475142E-001	-2.7039447E+002
3	0	3.306885949338903E+002	2.7412465E-001	-2.7037677E+002
3	0	3.311885949212592E+002	2.7351347E-001	-2.7037677E+002
3	0	3.316885949086281E+002	2.7293181E-001	-2.7036267E+002
3	0	3.321885948959971E+002	2.7237406E-001	-2.7037326E+002
3	0	3.326885948833660E+002	2.7181816E-001	-2.7038031E+002
3	0	3.331885948707350E+002	2.7126139E-001	-2.7035205E+002
3	0	3.336885948581039E+002	2.7071652E-001	-2.7037326E+002
3	0	3.341885948454728E+002	2.7015486E-001	-2.7039093E+002
3	0	3.346885948328418E+002	2.6958543E-001	-2.7040155E+002
3	0	3.351885948202107E+002	2.6903945E-001	-2.7039093E+002
3	0	3.356885948075796E+002	2.6852238E-001	-2.7038031E+002
3	0	3.361885947949486E+002	2.6800045E-001	-2.7036972E+002
3	0	3.366885947823175E+002	2.6748714E-001	-2.7036972E+002
3	0	3.371885947696865E+002	2.6695257E-001	-2.7038742E+002
3	0	3.376885947570554E+002	2.6644239E-001	-2.7038031E+002
3	0	3.381885947444243E+002	2.6593593E-001	-2.7036618E+002
3	0	3.386885947317933E+002	2.6541227E-001	-2.7035913E+002
3	0	3.391885947191622E+002	2.6491490E-001	-2.7039093E+002
3	0	3.396885947065311E+002	2.6444304E-001	-2.7038385E+002
3	0	3.401885946939001E+002	2.6396209E-001	-2.7038385E+002
3	0	3.406885946812690E+002	2.6348406E-001	-2.7038385E+002
3	0	3.411885946686380E+002	2.6301616E-001	-2.7035559E+002
3	0	3.416885946560069E+002	2.6254016E-001	-2.7038031E+002
3	0	3.421885946433758E+002	2.6205626E-001	-2.7039093E+002
3	0	3.426885946307448E+002	2.6155588E-001	-2.7038385E+002
3	0	3.431885946181137E+002	2.6108289E-001	-2.7038742E+002
3	0	3.436885946054826E+002	2.6063645E-001	-2.7038031E+002
3	0	3.441885945928516E+002	2.6017985E-001	-2.7040860E+002
3	0	3.446885945802205E+002	2.5973353E-001	-2.7038031E+002
3	0	3.451885945675895E+002	2.5929272E-001	-2.7036618E+002
3	0	3.456885945549584E+002	2.5884604E-001	-2.7039801E+002
3	0	3.461885945423273E+002	2.5839111E-001	-2.7040155E+002
3	0	3.466885945296963E+002	2.5792393E-001	-2.7039093E+002
3	0	3.471885945170652E+002	2.5748348E-001	-2.7034497E+002
3	0	3.476885945044342E+002	2.5706723E-001	-2.7038742E+002
3	0	3.481885944918031E+002	2.5664771E-001	-2.7041568E+002
3	0	3.486885944791720E+002	2.5623783E-001	-2.7037677E+002
3	0	3.491885944665410E+002	2.5583094E-001	-2.7037677E+002
3	0	3.496885944539099E+002	2.5542137E-001	-2.7034851E+002
3	0	3.501885944412788E+002	2.5499415E-001	-2.7037326E+002
3	0	3.506885944286478E+002	2.5456524E-001	-2.7039093E+002
3	0	3.511885944160167E+002	2.5416061E-001	-2.7037326E+002
3	0	3.516885944033857E+002	2.5377089E-001	-2.7039447E+002
3	0	3.521885943907546E+002	2.5338253E-001	-2.7038742E+002
3	0	3.526885943781235E+002	2.5300041E-001	-2.7038031E+002
3	0	3.531885943654925E+002	2.5261596E-001	-2.7039093E+002
3	0	3.536885943528614E+002	2.5223598E-001	-2.7037677E+002
3	0	3.541885943402303E+002	2.5184000E-001	-2.7037677E+002
3	0	3.546885943275993E+002	2.5143015E-001	-2.7037326E+002
3	0	3.551885943149682E+002	2.5104979E-001	-2.7033789E+002
3	0	3.556885943023372E+002	2.5069532E-001	-2.7039093E+002
3	0	3.561885942897061E+002	2.5033510E-001	-2.7039093E+002
3	0	3.566885942770750E+002	2.4998063E-001	-2.7036618E+002
3	0	3.571885942644440E+002	2.4962960E-001	-2.7038031E+002
3	0	3.576885942518129E+002	2.4928199E-001	-2.7035205E+002
3	0	3.581885942391818E+002	2.4891329E-001	-2.7036267E+002
3	0	3.586885942265508E+002	2.4853957E-001	-2.7037677E+002
3	0	3.591885942139197E+002	2.4818836E-001	-2.7038385E+002
3	0	3.596885942012887E+002	2.4786980E-001	-2.7037677E+002
3	0	3.601885941886576E+002	2.4752966E-001	-2.7036267E+002
3	0	3.606885941760265E+002	2.4720617E-001	-2.7037677E+002
3	0	3.611885941633955E+002	2.4687798E-001	-2.7038385E+002
3	0	3.616885941507644E+002	2.4655782E-001	-2.7036267E+002
3	0	3.621885941381333E+002	2.4622008E-001	-2.7038742E+002
3	0	3.626885941255023E+002	2.4586585E-001	-2.7036618E+002
3	0	3.631885941128712E+002	2.4554770E-001	-2.7035559E+002
3	0	3.636885941002402E+002	2.4524927E-001	-2.7037677E+002
3	0	3.641885940876091E+002	2.4494213E-001	-2.7037326E+002
3	0	3.646885940749780E+002	2.4464203E-001	-2.7038385E+002
3	0	3.651885940623470E+002	2.4434452E-001	-2.7036618E+002
3	0	3.656885940497159E+002	2.4404398E-001	-2.7036618E+002
3	0	3.661885940370848E+002	2.4372950E-001	-2.7035559E+002
3	0	3.666885940244538E+002	2.4340256E-001	-2.7039801E+002
3	0	3.671885940118227E+002	2.4311082E-001	-2.7035559E+002
3	0	3.676885939991917E+002	2.4284132E-001	-2.7038031E+002
3	0	3.681885939865606E+002	2.4255732E-001	-2.7039093E+002
3	0	3.686885939739295E+002	2.4228233E-001	-2.7038385E+002
3	0	3.691885939612985E+002	2.4201711E-001	-2.7040506E+002
3	0	3.696885939486674E+002	2.4174654E-001	-2.7039447E+002
3	0	3.701885939360363E+002	2.4145712E-001	-2.7035559E+002
3	0	3.706885939234053E+002	2.4115647E-001	-2.7038742E+002
3	0	3.711885939107742E+002	2.4088646E-001	-2.7039093E+002
3	0	3.716885938981432E+002	2.4064024E-001	-2.7040506E+002
3	0	3.721885938855121E+002	2.4038951E-001	-2.7038385E+002
3	0	3.726885938728810E+002	2.4014568E-001	-2.7036618E+002
3	0	3.731885938602500E+002	2.3990490E-001	-2.7038385E+002
3	0	3.736885938476189E+002	2.3965812E-001	-2.7039447E+002
3	0	3.741885938349878E+002	2.3938678E-001	-2.7037326E+002
3	0	3.746885938223568E+002	2.3910721E-001	-2.7036972E+002
3	0	3.751885938097257E+002	2.3886359E-001	-2.7036618E+002
3	0	3.756885937970947E+002	2.3863238E-001	-2.7037677E+002
3	0	3.761885937844636E+002	2.3839635E-001	-2.7038385E+002
3	0	3.766885937718325E+002	2.3817427E-001	-2.7036972E+002
3	0	3.771885937592015E+002	2.3794666E-001	-2.7036267E+002
3	0	3.776885937465704E+002	2.3771968E-001	-2.7036267E+002
3	0	3.781885937339393E+002	2.3747332E-001	-2.7039093E+002
3	0	3.786885937213083E+002	2.3720986E-001	-2.7036618E+002
3	0	3.791885937086772E+002	2.3698622E-001	-2.7037677E+002
3	0	3.796885936960462E+002	2.3678219E-001	-2.7037677E+002
3	0	3.801885936834151E+002	2.3657075E-001	-2.7036972E+002
3	0	3.806885936707840E+002	2.3636299E-001	-2.7039093E+002
3	0	3.811885936581530E+002	2.3615035E-001	-2.7037326E+002
3	0	3.816885936455219E+002	2.3594359E-001	-2.7038385E+002
3	0	3.821885936328908E+002	2.3572177E-001	-2.7038385E+002
3	0	3.826885936202598E+002	2.3548593E-001	-2.7036972E+002
3	0	3.831885936076287E+002	2.3527972E-001	-2.7039801E+002
3	0	3.836885935949977E+002	2.3509550E-001	-2.7037326E+002
3	0	3.841885935823666E+002	2.3489806E-001	-2.7039447E+002
3	0	3.846885935697355E+002	2.3470502E-001	-2.7038385E+002
3	0	3.851885935571045E+002	2.3451315E-001	-2.7038742E+002
3	0	3.856885935444734E+002	2.3432282E-001	-2.7038742E+002
3	0	3.861885935318423E+002	2.3410885E-001	-2.7035205E+002
3	0	3.866885935192113E+002	2.3388000E-001	-2.7038385E+002
3	0	3.871885935065802E+002	2.3368275E-001	-2.7039093E+002
3	0	3.876885934939492E+002	2.3350811E-001	-2.7039447E+002
3	0	3.881885934813181E+002	2.3332804E-001	-2.7036267E+002
3	0	3.886885934686870E+002	2.3315851E-001	-2.7036618E+002
3	0	3.891885934560560E+002	2.3298934E-001	-2.7038031E+002
3	0	3.896885934434249E+002	2.3282133E-001	-2.7036618E+002
3	0	3.901885934307938E+002	2.3262626E-001	-2.7035559E+002
3	0	3.906885934181628E+002	2.3241043E-001	-2.7038742E+002
3	0	3.911885934055317E+002	2.3223566E-001	-2.7038742E+002
3	0	3.916885933929007E+002	2.3207662E-001	-2.7038385E+002
3	0	3.921885933802696E+002	2.3191567E-001	-2.7038742E+002
3	0	3.926885933676385E+002	2.3176302E-001	-2.7036972E+002
3	0	3.931885933550075E+002	2.3160917E-001	-2.7040506E+002
3	0	3.936885933423764E+002	2.3144756E-001	-2.7037326E+002
3	0	3.941885933297453E+002	2.3126242E-001	-2.7038385E+002
3	0	3.946885933171143E+002	2.3107021E-001	-2.7039801E+002
3	0	3.951885933044832E+002	2.3090507E-001	-2.7035559E+002
3	0	3.956885932918522E+002	2.3076484E-001	-2.7037677E+002
3	0	3.961885932792211E+002	2.3061529E-001	-2.7036267E+002
3	0	3.966885932665900E+002	2.3047344E-001	-2.7039093E+002
3	0	3.971885932539590E+002	2.3033151E-001	-2.7037677E+002
3	0	3.976885932413279E+002	2.3019110E-001	-2.7038385E+002
3	0	3.981885932286968E+002	2.3002148E-001	-2.7039093E+002
3	0	3.986885932160658E+002	2.2983532E-001	-2.7037677E+002
3	0	3.991885932034347E+002	2.2968365E-001	-2.7038742E+002
3	0	3.996885931908037E+002	2.2954969E-001	-2.7037326E+002
3	0	4.001885931781726E+002	2.2941504E-001	-2.7037677E+002
3	0	4.006885931655415E+002	2.2927813E-001	-2.7039093E+002
3	0	4.011885931529105E+002	2.2914916E-001	-2.7038742E+002
3	0	4.016885931402794E+002	2.2901715E-001	-2.7038031E+002
3	0	4.021885931276483E+002	2.2885892E-001	-2.7039447E+002
3	0	4.026885931150173E+002	2.2868402E-001	-2.7037326E+002
3	0	4.031885931023862E+002	2.2854172E-001	-2.7039447E+002
3	0	4.036885930897552E+002	2.2842376E-001	-2.7037326E+002
3	0	4.041885930771241E+002	2.2829361E-001	-2.7038385E+002
3	0	4.046885930644930E+002	2.2817196E-001	-2.7037326E+002
3	0	4.051885930518620E+002	2.2804274E-001	-2.7038031E+002
3	0	4.051889930518519E+002	2.2802177E-001	-2.7039447E+002