EC-Lab ASCII FILE
Nb header lines : 55                          

Open Circuit Voltage

Run on channel : 1 (SN 81504)
User : 
CE vs. WE compliance from -10 V to 10 V
Electrode connection : standard
Potential control : Ewe
Ewe ctrl range : min = -2.50 V, max = 2.50 V
Safety Limits :
	Do not start on E overload
Acquisition started on : 05/07/2026 19:04:33.160
Loaded Setting File :  C:\PEM-WE_measurements\2026\372_IV_IV IrOx, 5 min Pt, 30 min C, etched cathode\new station\Loopeis new\1,46 V different time gaps open cell\Loopeis 1,46V_90s_3_PEIS from 6500Hz to 1000Hz.mps
Saved on :
	File : L_18_Loopeis 1,46V_90s_3_PEIS from 6500Hz to 1000Hz_16_OCV_C01.mpr
	Directory : C:\PEM-WE_measurements\2026\372_IV_IV IrOx, 5 min Pt, 30 min C, etched cathode\new station\Loopeis new\1,46 V different time gaps open cell\
	Host : 192.168.0.2
Device : SP-150e (SN .005491)
Address : 192.168.0.91
EC-LAB for windows v11.71 (software)
Internet server v28.00 (firmware)
Command interpretor v14.01 (firmware)
Electrode material : 
Initial state : 
Electrolyte : 
Comments : 
Current amplifier : SP-150eB-20A
Electrode surface area : 0.001 cm²
Characteristic mass : 0.001 g
Equivalent Weight : 0.000 g/eq.
Density : 0.000 g/cm3
Volume (V) : 0.001 cm³
Record Analogic IN 1
Text export
   Mode : Standard
   Time format : Elapsed
Cycle Definition : Charge/Discharge alternance
External device configuration :
   device type : Temperature Probe
   device name : Other
   Analog IN 1 : 
      unit : T/Â°C
      max : 100.000 at 2.000 V
      min : 0.000 at 1.460 V
tR (h:m:s)          0:01:30.0000        
dER/dt (mV/h)       1.0                 
record              <Ewe>               
dER (mV)            10.00               
dtR (s)             0.5000              
E range min (V)     -2.500              
E range max (V)     2.500               

mode	error	time/s	<Ewe/V>	Analog IN 1/V	
3	0	9.950367882913997E+002	1.0398307E+000	-2.7039801E+002
3	0	9.955367882787687E+002	1.2058491E+000	-2.7035913E+002
3	0	9.960367882661376E+002	1.1405859E+000	-2.7038031E+002
3	0	9.965367882535065E+002	9.8599780E-001	-2.7036618E+002
3	0	9.970367882408755E+002	5.4899216E-001	-2.7039093E+002
3	0	9.975367882282444E+002	3.2718450E-001	-2.7036972E+002
3	0	9.980367882156133E+002	2.9857355E-001	-2.7039093E+002
3	0	9.985367882029823E+002	2.9132563E-001	-2.7038031E+002
3	0	9.990367881903512E+002	2.8500459E-001	-2.7038742E+002
3	0	9.995367881777202E+002	2.7983311E-001	-2.7039447E+002
3	0	1.000036788165089E+003	2.7579182E-001	-2.7038385E+002
3	0	1.000536788152458E+003	2.7264616E-001	-2.7038031E+002
3	0	1.001036788139827E+003	2.7015167E-001	-2.7037326E+002
3	0	1.001536788127196E+003	2.6813066E-001	-2.7039093E+002
3	0	1.002036788114565E+003	2.6642528E-001	-2.7037326E+002
3	0	1.002536788101934E+003	2.6499084E-001	-2.7038742E+002
3	0	1.003036788089303E+003	2.6378277E-001	-2.7038385E+002
3	0	1.003536788076672E+003	2.6272112E-001	-2.7036972E+002
3	0	1.004036788064041E+003	2.6176879E-001	-2.7038031E+002
3	0	1.004536788051410E+003	2.6090336E-001	-2.7039093E+002
3	0	1.005036788038778E+003	2.6008922E-001	-2.7037677E+002
3	0	1.005536788026147E+003	2.5933096E-001	-2.7036618E+002
3	0	1.006036788013516E+003	2.5858325E-001	-2.7038031E+002
3	0	1.006536788000885E+003	2.5789145E-001	-2.7036267E+002
3	0	1.007036787988254E+003	2.5724974E-001	-2.7040155E+002
3	0	1.007536787975623E+003	2.5663650E-001	-2.7037326E+002
3	0	1.008036787962992E+003	2.5604311E-001	-2.7038031E+002
3	0	1.008536787950361E+003	2.5545892E-001	-2.7038031E+002
3	0	1.009036787937730E+003	2.5489566E-001	-2.7037677E+002
3	0	1.009536787925099E+003	2.5433120E-001	-2.7039447E+002
3	0	1.010036787912468E+003	2.5374678E-001	-2.7038031E+002
3	0	1.010536787899837E+003	2.5318024E-001	-2.7039093E+002
3	0	1.011036787887206E+003	2.5264850E-001	-2.7038031E+002
3	0	1.011536787874575E+003	2.5213087E-001	-2.7039801E+002
3	0	1.012036787861944E+003	2.5161847E-001	-2.7038742E+002
3	0	1.012536787849313E+003	2.5110754E-001	-2.7036972E+002
3	0	1.013036787836681E+003	2.5060552E-001	-2.7035913E+002
3	0	1.013536787824050E+003	2.5008467E-001	-2.7038031E+002
3	0	1.014036787811419E+003	2.4955510E-001	-2.7038031E+002
3	0	1.014536787798788E+003	2.4904430E-001	-2.7040506E+002
3	0	1.015036787786157E+003	2.4856329E-001	-2.7039093E+002
3	0	1.015536787773526E+003	2.4808197E-001	-2.7037326E+002
3	0	1.016036787760895E+003	2.4760661E-001	-2.7037677E+002
3	0	1.016536787748264E+003	2.4712758E-001	-2.7039447E+002
3	0	1.017036787735633E+003	2.4665870E-001	-2.7040155E+002
3	0	1.017536787723002E+003	2.4616845E-001	-2.7040506E+002
3	0	1.018036787710371E+003	2.4567214E-001	-2.7035559E+002
3	0	1.018536787697740E+003	2.4518231E-001	-2.7039093E+002
3	0	1.019036787685109E+003	2.4472623E-001	-2.7036972E+002
3	0	1.019536787672478E+003	2.4428275E-001	-2.7039447E+002
3	0	1.020036787659847E+003	2.4383394E-001	-2.7037677E+002
3	0	1.020536787647216E+003	2.4338482E-001	-2.7038742E+002
3	0	1.021036787634584E+003	2.4294212E-001	-2.7037326E+002
3	0	1.021536787621953E+003	2.4248107E-001	-2.7036618E+002
3	0	1.022036787609322E+003	2.4200685E-001	-2.7036972E+002
3	0	1.022536787596691E+003	2.4154742E-001	-2.7039447E+002
3	0	1.023036787584060E+003	2.4111803E-001	-2.7038385E+002
3	0	1.023536787571429E+003	2.4069433E-001	-2.7037677E+002
3	0	1.024036787558798E+003	2.4027394E-001	-2.7036618E+002
3	0	1.024536787546167E+003	2.3986000E-001	-2.7038385E+002
3	0	1.025036787533536E+003	2.3944369E-001	-2.7036972E+002
3	0	1.025536787520905E+003	2.3901334E-001	-2.7036972E+002
3	0	1.026036787508274E+003	2.3856527E-001	-2.7039447E+002
3	0	1.026536787495643E+003	2.3813632E-001	-2.7038031E+002
3	0	1.027036787483012E+003	2.3774076E-001	-2.7038031E+002
3	0	1.027536787470381E+003	2.3734234E-001	-2.7038385E+002
3	0	1.028036787457750E+003	2.3694950E-001	-2.7037326E+002
3	0	1.028536787445119E+003	2.3655568E-001	-2.7038385E+002
3	0	1.029036787432487E+003	2.3616625E-001	-2.7037326E+002
3	0	1.029536787419856E+003	2.3576182E-001	-2.7037677E+002
3	0	1.030036787407225E+003	2.3534918E-001	-2.7038742E+002
3	0	1.030536787394594E+003	2.3494186E-001	-2.7038742E+002
3	0	1.031036787381963E+003	2.3457319E-001	-2.7038742E+002
3	0	1.031536787369332E+003	2.3421420E-001	-2.7035559E+002
3	0	1.032036787356701E+003	2.3384972E-001	-2.7035913E+002
3	0	1.032536787344070E+003	2.3348373E-001	-2.7038385E+002
3	0	1.033036787331439E+003	2.3312455E-001	-2.7038031E+002
3	0	1.033536787318808E+003	2.3275299E-001	-2.7036267E+002
3	0	1.034036787306177E+003	2.3236255E-001	-2.7037677E+002
3	0	1.034536787293546E+003	2.3198751E-001	-2.7037677E+002
3	0	1.035036787280915E+003	2.3165384E-001	-2.7035559E+002
3	0	1.035536787268284E+003	2.3131859E-001	-2.7038031E+002
3	0	1.036036787255653E+003	2.3098157E-001	-2.7040860E+002
3	0	1.036536787243022E+003	2.3064744E-001	-2.7037677E+002
3	0	1.037036787230390E+003	2.3032276E-001	-2.7036972E+002
3	0	1.037536787217759E+003	2.2998480E-001	-2.7038031E+002
3	0	1.038036787205128E+003	2.2961693E-001	-2.7038031E+002
3	0	1.038536787192497E+003	2.2927001E-001	-2.7040155E+002
3	0	1.039036787179866E+003	2.2896312E-001	-2.7038742E+002
3	0	1.039536787167235E+003	2.2865067E-001	-2.7036618E+002
3	0	1.040036787154604E+003	2.2834241E-001	-2.7038031E+002
3	0	1.040536787141973E+003	2.2803879E-001	-2.7038385E+002
3	0	1.041036787129342E+003	2.2772983E-001	-2.7037677E+002
3	0	1.041536787116711E+003	2.2740695E-001	-2.7035913E+002
3	0	1.042036787104080E+003	2.2706793E-001	-2.7036618E+002
3	0	1.042536787091449E+003	2.2674930E-001	-2.7035205E+002
3	0	1.043036787078818E+003	2.2647081E-001	-2.7036267E+002
3	0	1.043536787066187E+003	2.2618702E-001	-2.7039093E+002
3	0	1.044036787053556E+003	2.2590126E-001	-2.7035913E+002
3	0	1.044536787040925E+003	2.2562589E-001	-2.7038742E+002
3	0	1.045036787028293E+003	2.2535123E-001	-2.7038742E+002
3	0	1.045536787015662E+003	2.2504915E-001	-2.7040155E+002
3	0	1.046036787003031E+003	2.2474413E-001	-2.7036972E+002
3	0	1.046536786990400E+003	2.2445023E-001	-2.7036618E+002
3	0	1.047036786977769E+003	2.2418770E-001	-2.7036267E+002
3	0	1.047536786965138E+003	2.2392462E-001	-2.7039093E+002
3	0	1.048036786952507E+003	2.2366710E-001	-2.7035559E+002
3	0	1.048536786939876E+003	2.2341014E-001	-2.7036618E+002
3	0	1.049036786927245E+003	2.2315139E-001	-2.7036972E+002
3	0	1.049536786914614E+003	2.2287004E-001	-2.7039801E+002
3	0	1.050036786901983E+003	2.2257589E-001	-2.7038031E+002
3	0	1.050536786889352E+003	2.2230634E-001	-2.7037326E+002
3	0	1.051036786876721E+003	2.2206861E-001	-2.7038031E+002
3	0	1.051536786864090E+003	2.2183143E-001	-2.7039447E+002
3	0	1.052036786851459E+003	2.2159256E-001	-2.7039093E+002
3	0	1.052536786838828E+003	2.2135729E-001	-2.7037326E+002
3	0	1.053036786826196E+003	2.2112121E-001	-2.7037326E+002
3	0	1.053536786813565E+003	2.2087562E-001	-2.7038031E+002
3	0	1.054036786800934E+003	2.2061022E-001	-2.7039093E+002
3	0	1.054536786788303E+003	2.2036436E-001	-2.7038031E+002
3	0	1.055036786775672E+003	2.2014944E-001	-2.7038385E+002
3	0	1.055536786763041E+003	2.1993700E-001	-2.7037677E+002
3	0	1.056036786750410E+003	2.1972494E-001	-2.7035559E+002
3	0	1.056536786737779E+003	2.1951281E-001	-2.7037677E+002
3	0	1.057036786725148E+003	2.1929862E-001	-2.7037677E+002
3	0	1.057536786712517E+003	2.1906459E-001	-2.7037677E+002
3	0	1.058036786699886E+003	2.1881740E-001	-2.7038031E+002
3	0	1.058536786687255E+003	2.1858394E-001	-2.7039447E+002
3	0	1.059036786674624E+003	2.1839300E-001	-2.7040860E+002
3	0	1.059536786661993E+003	2.1819991E-001	-2.7037677E+002
3	0	1.060036786649362E+003	2.1800280E-001	-2.7039801E+002
3	0	1.060536786636731E+003	2.1780550E-001	-2.7036618E+002
3	0	1.061036786624099E+003	2.1761395E-001	-2.7039447E+002
3	0	1.061536786611468E+003	2.1740204E-001	-2.7038742E+002
3	0	1.062036786598837E+003	2.1717526E-001	-2.7037326E+002
3	0	1.062536786586206E+003	2.1696542E-001	-2.7041214E+002
3	0	1.063036786573575E+003	2.1678622E-001	-2.7037677E+002
3	0	1.063536786560944E+003	2.1661139E-001	-2.7038742E+002
3	0	1.064036786548313E+003	2.1642950E-001	-2.7037677E+002
3	0	1.064536786535682E+003	2.1625569E-001	-2.7039801E+002
3	0	1.065036786523051E+003	2.1607506E-001	-2.7038742E+002
3	0	1.065536786510420E+003	2.1588056E-001	-2.7036267E+002
3	0	1.066036786497789E+003	2.1567802E-001	-2.7037677E+002
3	0	1.066536786485158E+003	2.1547627E-001	-2.7039093E+002
3	0	1.067036786472527E+003	2.1531653E-001	-2.7036267E+002
3	0	1.067536786459896E+003	2.1516122E-001	-2.7037326E+002
3	0	1.068036786447265E+003	2.1499223E-001	-2.7035913E+002
3	0	1.068536786434634E+003	2.1482469E-001	-2.7036618E+002
3	0	1.069036786422002E+003	2.1466212E-001	-2.7036618E+002
3	0	1.069536786409371E+003	2.1448478E-001	-2.7038385E+002
3	0	1.070036786396740E+003	2.1427467E-001	-2.7036972E+002
3	0	1.070536786384109E+003	2.1408644E-001	-2.7036972E+002
3	0	1.071036786371478E+003	2.1393885E-001	-2.7036618E+002
3	0	1.071536786358847E+003	2.1378991E-001	-2.7036618E+002
3	0	1.072036786346216E+003	2.1363597E-001	-2.7035913E+002
3	0	1.072536786333585E+003	2.1348539E-001	-2.7040506E+002
3	0	1.073036786320954E+003	2.1334007E-001	-2.7035913E+002
3	0	1.073536786308323E+003	2.1317005E-001	-2.7038031E+002
3	0	1.074036786295692E+003	2.1298072E-001	-2.7036972E+002
3	0	1.074536786283061E+003	2.1280490E-001	-2.7035559E+002
3	0	1.075036786270430E+003	2.1267347E-001	-2.7039447E+002
3	0	1.075536786257799E+003	2.1253996E-001	-2.7038031E+002
3	0	1.076036786245168E+003	2.1240608E-001	-2.7039093E+002
3	0	1.076536786232537E+003	2.1227153E-001	-2.7038742E+002
3	0	1.077036786219905E+003	2.1213771E-001	-2.7041214E+002
3	0	1.077536786207274E+003	2.1198797E-001	-2.7037677E+002
3	0	1.078036786194643E+003	2.1181346E-001	-2.7037326E+002
3	0	1.078536786182012E+003	2.1164604E-001	-2.7036972E+002
3	0	1.079036786169381E+003	2.1152492E-001	-2.7040860E+002
3	0	1.079536786156750E+003	2.1140924E-001	-2.7036267E+002
3	0	1.080036786144119E+003	2.1128862E-001	-2.7038031E+002
3	0	1.080536786131488E+003	2.1116610E-001	-2.7038385E+002
3	0	1.081036786118857E+003	2.1103626E-001	-2.7038385E+002
3	0	1.081536786106226E+003	2.1089993E-001	-2.7035205E+002
3	0	1.082036786093595E+003	2.1074061E-001	-2.7037677E+002
3	0	1.082536786080964E+003	2.1058875E-001	-2.7036972E+002
3	0	1.083036786068333E+003	2.1047451E-001	-2.7036972E+002
3	0	1.083536786055702E+003	2.1036434E-001	-2.7038742E+002
3	0	1.084036786043071E+003	2.1025524E-001	-2.7036972E+002
3	0	1.084536786030440E+003	2.1013556E-001	-2.7035205E+002
3	0	1.084561386029818E+003	2.1007836E-001	-2.7038742E+002