EC-Lab ASCII FILE
Nb header lines : 55                          

Open Circuit Voltage

Run on channel : 1 (SN 81504)
User : 
CE vs. WE compliance from -10 V to 10 V
Electrode connection : standard
Potential control : Ewe
Ewe ctrl range : min = -2.50 V, max = 2.50 V
Safety Limits :
	Do not start on E overload
Acquisition started on : 05/07/2026 19:04:33.160
Loaded Setting File :  C:\PEM-WE_measurements\2026\372_IV_IV IrOx, 5 min Pt, 30 min C, etched cathode\new station\Loopeis new\1,46 V different time gaps open cell\Loopeis 1,46V_90s_3_PEIS from 6500Hz to 1000Hz.mps
Saved on :
	File : L_18_Loopeis 1,46V_90s_3_PEIS from 6500Hz to 1000Hz_20_OCV_C01.mpr
	Directory : C:\PEM-WE_measurements\2026\372_IV_IV IrOx, 5 min Pt, 30 min C, etched cathode\new station\Loopeis new\1,46 V different time gaps open cell\
	Host : 192.168.0.2
Device : SP-150e (SN .005491)
Address : 192.168.0.91
EC-LAB for windows v11.71 (software)
Internet server v28.00 (firmware)
Command interpretor v14.01 (firmware)
Electrode material : 
Initial state : 
Electrolyte : 
Comments : 
Current amplifier : SP-150eB-20A
Electrode surface area : 0.001 cm²
Characteristic mass : 0.001 g
Equivalent Weight : 0.000 g/eq.
Density : 0.000 g/cm3
Volume (V) : 0.001 cm³
Record Analogic IN 1
Text export
   Mode : Standard
   Time format : Elapsed
Cycle Definition : Charge/Discharge alternance
External device configuration :
   device type : Temperature Probe
   device name : Other
   Analog IN 1 : 
      unit : T/Â°C
      max : 100.000 at 2.000 V
      min : 0.000 at 1.460 V
tR (h:m:s)          0:01:30.0000        
dER/dt (mV/h)       1.0                 
record              <Ewe>               
dER (mV)            10.00               
dtR (s)             0.5000              
E range min (V)     -2.500              
E range max (V)     2.500               

mode	error	time/s	<Ewe/V>	Analog IN 1/V	
3	0	1.267236584849161E+003	1.0373319E+000	-2.7038742E+002
3	0	1.267736584836530E+003	1.2042321E+000	-2.7039447E+002
3	0	1.268236584823899E+003	1.1363823E+000	-2.7039093E+002
3	0	1.268736584811268E+003	9.7037905E-001	-2.7038742E+002
3	0	1.269236584798637E+003	5.2862298E-001	-2.7038031E+002
3	0	1.269736584786006E+003	3.2291391E-001	-2.7037326E+002
3	0	1.270236584773374E+003	2.9765496E-001	-2.7036618E+002
3	0	1.270736584760743E+003	2.9057631E-001	-2.7037326E+002
3	0	1.271236584748112E+003	2.8433776E-001	-2.7038031E+002
3	0	1.271736584735481E+003	2.7923641E-001	-2.7036618E+002
3	0	1.272236584722850E+003	2.7524233E-001	-2.7035913E+002
3	0	1.272736584710219E+003	2.7213207E-001	-2.7039093E+002
3	0	1.273236584697588E+003	2.6966348E-001	-2.7039447E+002
3	0	1.273736584684957E+003	2.6764613E-001	-2.7040506E+002
3	0	1.274236584672326E+003	2.6595914E-001	-2.7041568E+002
3	0	1.274736584659695E+003	2.6456103E-001	-2.7039093E+002
3	0	1.275236584647064E+003	2.6336339E-001	-2.7035205E+002
3	0	1.275736584634433E+003	2.6230019E-001	-2.7036972E+002
3	0	1.276236584621802E+003	2.6134723E-001	-2.7035559E+002
3	0	1.276736584609171E+003	2.6048213E-001	-2.7037326E+002
3	0	1.277236584596540E+003	2.5967488E-001	-2.7037677E+002
3	0	1.277736584583909E+003	2.5890929E-001	-2.7036618E+002
3	0	1.278236584571277E+003	2.5816789E-001	-2.7036267E+002
3	0	1.278736584558646E+003	2.5749430E-001	-2.7039447E+002
3	0	1.279236584546015E+003	2.5686222E-001	-2.7037677E+002
3	0	1.279736584533384E+003	2.5625601E-001	-2.7038385E+002
3	0	1.280236584520753E+003	2.5566149E-001	-2.7038385E+002
3	0	1.280736584508122E+003	2.5508311E-001	-2.7038742E+002
3	0	1.281236584495491E+003	2.5451007E-001	-2.7040155E+002
3	0	1.281736584482860E+003	2.5393653E-001	-2.7035913E+002
3	0	1.282236584470229E+003	2.5335464E-001	-2.7036618E+002
3	0	1.282736584457598E+003	2.5280845E-001	-2.7036972E+002
3	0	1.283236584444967E+003	2.5228590E-001	-2.7041568E+002
3	0	1.283736584432336E+003	2.5176713E-001	-2.7040506E+002
3	0	1.284236584419705E+003	2.5125191E-001	-2.7036267E+002
3	0	1.284736584407074E+003	2.5074461E-001	-2.7040860E+002
3	0	1.285236584394443E+003	2.5023431E-001	-2.7034851E+002
3	0	1.285736584381812E+003	2.4970801E-001	-2.7039447E+002
3	0	1.286236584369180E+003	2.4917762E-001	-2.7036618E+002
3	0	1.286736584356549E+003	2.4868321E-001	-2.7036972E+002
3	0	1.287236584343918E+003	2.4820013E-001	-2.7036972E+002
3	0	1.287736584331287E+003	2.4772298E-001	-2.7037677E+002
3	0	1.288236584318656E+003	2.4724205E-001	-2.7036972E+002
3	0	1.288736584306025E+003	2.4676605E-001	-2.7037677E+002
3	0	1.289236584293394E+003	2.4628937E-001	-2.7037677E+002
3	0	1.289736584280763E+003	2.4578956E-001	-2.7036267E+002
3	0	1.290236584268132E+003	2.4529099E-001	-2.7037677E+002
3	0	1.290736584255501E+003	2.4481845E-001	-2.7038742E+002
3	0	1.291236584242870E+003	2.4436487E-001	-2.7038385E+002
3	0	1.291736584230239E+003	2.4390648E-001	-2.7040155E+002
3	0	1.292236584217608E+003	2.4345011E-001	-2.7036972E+002
3	0	1.292736584204977E+003	2.4300775E-001	-2.7035913E+002
3	0	1.293236584192346E+003	2.4254510E-001	-2.7036972E+002
3	0	1.293736584179715E+003	2.4207555E-001	-2.7035559E+002
3	0	1.294236584167083E+003	2.4160470E-001	-2.7037326E+002
3	0	1.294736584154452E+003	2.4116518E-001	-2.7037326E+002
3	0	1.295236584141821E+003	2.4074796E-001	-2.7037677E+002
3	0	1.295736584129190E+003	2.4032855E-001	-2.7038031E+002
3	0	1.296236584116559E+003	2.3991255E-001	-2.7037677E+002
3	0	1.296736584103928E+003	2.3949657E-001	-2.7038742E+002
3	0	1.297236584091297E+003	2.3906839E-001	-2.7037677E+002
3	0	1.297736584078666E+003	2.3862022E-001	-2.7037326E+002
3	0	1.298236584066035E+003	2.3818229E-001	-2.7038031E+002
3	0	1.298736584053404E+003	2.3778395E-001	-2.7038031E+002
3	0	1.299236584040773E+003	2.3738371E-001	-2.7037677E+002
3	0	1.299736584028142E+003	2.3699147E-001	-2.7038742E+002
3	0	1.300236584015511E+003	2.3659532E-001	-2.7035205E+002
3	0	1.300736584002880E+003	2.3620458E-001	-2.7035913E+002
3	0	1.301236583990249E+003	2.3580882E-001	-2.7038385E+002
3	0	1.301736583977618E+003	2.3540719E-001	-2.7038742E+002
3	0	1.302236583964986E+003	2.3499307E-001	-2.7037677E+002
3	0	1.302736583952355E+003	2.3461457E-001	-2.7038385E+002
3	0	1.303236583939724E+003	2.3425558E-001	-2.7034851E+002
3	0	1.303736583927093E+003	2.3388717E-001	-2.7036618E+002
3	0	1.304236583914462E+003	2.3351581E-001	-2.7036267E+002
3	0	1.304736583901831E+003	2.3315910E-001	-2.7038742E+002
3	0	1.305236583889200E+003	2.3279005E-001	-2.7036267E+002
3	0	1.305736583876569E+003	2.3240232E-001	-2.7038385E+002
3	0	1.306236583863938E+003	2.3201312E-001	-2.7036267E+002
3	0	1.306736583851307E+003	2.3166646E-001	-2.7038742E+002
3	0	1.307236583838676E+003	2.3133063E-001	-2.7037677E+002
3	0	1.307736583826045E+003	2.3099515E-001	-2.7036618E+002
3	0	1.308236583813414E+003	2.3065728E-001	-2.7037677E+002
3	0	1.308736583800783E+003	2.3032762E-001	-2.7037677E+002
3	0	1.309236583788152E+003	2.2998792E-001	-2.7040155E+002
3	0	1.309736583775521E+003	2.2962391E-001	-2.7036618E+002
3	0	1.310236583762890E+003	2.2925970E-001	-2.7039801E+002
3	0	1.310736583750258E+003	2.2893593E-001	-2.7038742E+002
3	0	1.311236583737627E+003	2.2862387E-001	-2.7038742E+002
3	0	1.311736583724996E+003	2.2831273E-001	-2.7037326E+002
3	0	1.312236583712365E+003	2.2800198E-001	-2.7039093E+002
3	0	1.312736583699734E+003	2.2769454E-001	-2.7038031E+002
3	0	1.313236583687103E+003	2.2738057E-001	-2.7038385E+002
3	0	1.313736583674472E+003	2.2705115E-001	-2.7039093E+002
3	0	1.314236583661841E+003	2.2671820E-001	-2.7036618E+002
3	0	1.314736583649210E+003	2.2642237E-001	-2.7038031E+002
3	0	1.315236583636579E+003	2.2614081E-001	-2.7037677E+002
3	0	1.315736583623948E+003	2.2584942E-001	-2.7039801E+002
3	0	1.316236583611317E+003	2.2556669E-001	-2.7038742E+002
3	0	1.316736583598686E+003	2.2529466E-001	-2.7038031E+002
3	0	1.317236583586055E+003	2.2500823E-001	-2.7038742E+002
3	0	1.317736583573424E+003	2.2470152E-001	-2.7038385E+002
3	0	1.318236583560793E+003	2.2439559E-001	-2.7037677E+002
3	0	1.318736583548161E+003	2.2413251E-001	-2.7036267E+002
3	0	1.319236583535530E+003	2.2387144E-001	-2.7038031E+002
3	0	1.319736583522899E+003	2.2361793E-001	-2.7037677E+002
3	0	1.320236583510268E+003	2.2336788E-001	-2.7035913E+002
3	0	1.320736583497637E+003	2.2311056E-001	-2.7035205E+002
3	0	1.321236583485006E+003	2.2284533E-001	-2.7037677E+002
3	0	1.321736583472375E+003	2.2256085E-001	-2.7038031E+002
3	0	1.322236583459744E+003	2.2227831E-001	-2.7037677E+002
3	0	1.322736583447113E+003	2.2203219E-001	-2.7040155E+002
3	0	1.323236583434482E+003	2.2179842E-001	-2.7037326E+002
3	0	1.323736583421851E+003	2.2155465E-001	-2.7039447E+002
3	0	1.324236583409220E+003	2.2131823E-001	-2.7037326E+002
3	0	1.324736583396589E+003	2.2108778E-001	-2.7038742E+002
3	0	1.325236583383958E+003	2.2085364E-001	-2.7040860E+002
3	0	1.325736583371327E+003	2.2059396E-001	-2.7039093E+002
3	0	1.326236583358696E+003	2.2033048E-001	-2.7039093E+002
3	0	1.326736583346064E+003	2.2010370E-001	-2.7036267E+002
3	0	1.327236583333433E+003	2.1989933E-001	-2.7037326E+002
3	0	1.327736583320802E+003	2.1968494E-001	-2.7039447E+002
3	0	1.328236583308171E+003	2.1947169E-001	-2.7040506E+002
3	0	1.328736583295540E+003	2.1925406E-001	-2.7034143E+002
3	0	1.329236583282909E+003	2.1902773E-001	-2.7036972E+002
3	0	1.329736583270278E+003	2.1878195E-001	-2.7036618E+002
3	0	1.330236583257647E+003	2.1853548E-001	-2.7037677E+002
3	0	1.330736583245016E+003	2.1833034E-001	-2.7038742E+002
3	0	1.331236583232385E+003	2.1813194E-001	-2.7035913E+002
3	0	1.331736583219754E+003	2.1793564E-001	-2.7038385E+002
3	0	1.332236583207123E+003	2.1773134E-001	-2.7037677E+002
3	0	1.332736583194492E+003	2.1753019E-001	-2.7037326E+002
3	0	1.333236583181861E+003	2.1731821E-001	-2.7041919E+002
3	0	1.333736583169230E+003	2.1709573E-001	-2.7036972E+002
3	0	1.334236583156599E+003	2.1686274E-001	-2.7039093E+002
3	0	1.334736583143967E+003	2.1667369E-001	-2.7036972E+002
3	0	1.335236583131336E+003	2.1649435E-001	-2.7037326E+002
3	0	1.335736583118705E+003	2.1630785E-001	-2.7039093E+002
3	0	1.336236583106074E+003	2.1612020E-001	-2.7037326E+002
3	0	1.336736583093443E+003	2.1594168E-001	-2.7037326E+002
3	0	1.337236583080812E+003	2.1576339E-001	-2.7039801E+002
3	0	1.337736583068181E+003	2.1556346E-001	-2.7036972E+002
3	0	1.338236583055550E+003	2.1535565E-001	-2.7038385E+002
3	0	1.338736583042919E+003	2.1519203E-001	-2.7037326E+002
3	0	1.339236583030288E+003	2.1502884E-001	-2.7039801E+002
3	0	1.339736583017657E+003	2.1485688E-001	-2.7038031E+002
3	0	1.340236583005026E+003	2.1469241E-001	-2.7038742E+002
3	0	1.340736582992395E+003	2.1453507E-001	-2.7038385E+002
3	0	1.341236582979764E+003	2.1435882E-001	-2.7039447E+002
3	0	1.341736582967133E+003	2.1416821E-001	-2.7036972E+002
3	0	1.342236582954502E+003	2.1397443E-001	-2.7036618E+002
3	0	1.342736582941870E+003	2.1382511E-001	-2.7038742E+002
3	0	1.343236582929239E+003	2.1366784E-001	-2.7037326E+002
3	0	1.343736582916608E+003	2.1351571E-001	-2.7038385E+002
3	0	1.344236582903977E+003	2.1336792E-001	-2.7040155E+002
3	0	1.344736582891346E+003	2.1322103E-001	-2.7038742E+002
3	0	1.345236582878715E+003	2.1305971E-001	-2.7038031E+002
3	0	1.345736582866084E+003	2.1287528E-001	-2.7038742E+002
3	0	1.346236582853453E+003	2.1269247E-001	-2.7038742E+002
3	0	1.346736582840822E+003	2.1255450E-001	-2.7036618E+002
3	0	1.347236582828191E+003	2.1241648E-001	-2.7036618E+002
3	0	1.347736582815560E+003	2.1227208E-001	-2.7039801E+002
3	0	1.348236582802929E+003	2.1213414E-001	-2.7039801E+002
3	0	1.348736582790298E+003	2.1199699E-001	-2.7038385E+002
3	0	1.349236582777667E+003	2.1185401E-001	-2.7038742E+002
3	0	1.349736582765036E+003	2.1168129E-001	-2.7038742E+002
3	0	1.350236582752405E+003	2.1150331E-001	-2.7036618E+002
3	0	1.350736582739773E+003	2.1137296E-001	-2.7038742E+002
3	0	1.351236582727142E+003	2.1124439E-001	-2.7035205E+002
3	0	1.351736582714511E+003	2.1110773E-001	-2.7036618E+002
3	0	1.352236582701880E+003	2.1098009E-001	-2.7035913E+002
3	0	1.352736582689249E+003	2.1085455E-001	-2.7037326E+002
3	0	1.353236582676618E+003	2.1071790E-001	-2.7036972E+002
3	0	1.353736582663987E+003	2.1056117E-001	-2.7039447E+002
3	0	1.354236582651356E+003	2.1039577E-001	-2.7034851E+002
3	0	1.354736582638725E+003	2.1027882E-001	-2.7037677E+002
3	0	1.355236582626094E+003	2.1016654E-001	-2.7038031E+002
3	0	1.355736582613463E+003	2.1004367E-001	-2.7038742E+002
3	0	1.356236582600832E+003	2.0992504E-001	-2.7035913E+002
3	0	1.356736582588201E+003	2.0980211E-001	-2.7039447E+002
3	0	1.356761182587579E+003	2.0974897E-001	-2.7038742E+002