EC-Lab ASCII FILE
Nb header lines : 55                          

Open Circuit Voltage

Run on channel : 1 (SN 81504)
User : 
CE vs. WE compliance from -10 V to 10 V
Electrode connection : standard
Potential control : Ewe
Ewe ctrl range : min = -2.50 V, max = 2.50 V
Safety Limits :
	Do not start on E overload
Acquisition started on : 05/07/2026 19:27:13.907
Loaded Setting File :  C:\PEM-WE_measurements\2026\372_IV_IV IrOx, 5 min Pt, 30 min C, etched cathode\new station\Loopeis new\1,46 V different time gaps open cell\Loopeis 1,46V_90s_4_PEIS from 650Hz to 100Hz.mps
Saved on :
	File : L_19_Loopeis 1,46V_90s_4_PEIS from 650Hz to 100Hz_10_OCV_C01.mpr
	Directory : C:\PEM-WE_measurements\2026\372_IV_IV IrOx, 5 min Pt, 30 min C, etched cathode\new station\Loopeis new\1,46 V different time gaps open cell\
	Host : 192.168.0.2
Device : SP-150e (SN .005491)
Address : 192.168.0.91
EC-LAB for windows v11.71 (software)
Internet server v28.00 (firmware)
Command interpretor v14.01 (firmware)
Electrode material : 
Initial state : 
Electrolyte : 
Comments : 
Current amplifier : SP-150eB-20A
Electrode surface area : 0.001 cm²
Characteristic mass : 0.001 g
Equivalent Weight : 0.000 g/eq.
Density : 0.000 g/cm3
Volume (V) : 0.001 cm³
Record Analogic IN 1
Text export
   Mode : Standard
   Time format : Elapsed
Cycle Definition : Charge/Discharge alternance
External device configuration :
   device type : Temperature Probe
   device name : Other
   Analog IN 1 : 
      unit : T/Â°C
      max : 100.000 at 2.000 V
      min : 0.000 at 1.460 V
tR (h:m:s)          0:01:30.0000        
dER/dt (mV/h)       1.0                 
record              <Ewe>               
dER (mV)            10.00               
dtR (s)             0.5000              
E range min (V)     -2.500              
E range max (V)     2.500               

mode	error	time/s	<Ewe/V>	Analog IN 1/V	
3	0	5.854423917544045E+002	1.2648221E+000	-2.7039801E+002
3	0	5.859423917417735E+002	1.2474439E+000	-2.7036267E+002
3	0	5.864423917291424E+002	1.1751037E+000	-2.7038742E+002
3	0	5.869423917165113E+002	9.8720163E-001	-2.7037326E+002
3	0	5.874423917038803E+002	5.2053660E-001	-2.7036267E+002
3	0	5.879423916912492E+002	3.4546399E-001	-2.7036618E+002
3	0	5.884423916786182E+002	3.2322660E-001	-2.7038385E+002
3	0	5.889423916659871E+002	3.1490150E-001	-2.7038385E+002
3	0	5.894423916533560E+002	3.0800301E-001	-2.7039093E+002
3	0	5.899423916407250E+002	3.0261278E-001	-2.7038742E+002
3	0	5.904423916280939E+002	2.9849857E-001	-2.7037326E+002
3	0	5.909423916154628E+002	2.9531950E-001	-2.7036618E+002
3	0	5.914423916028318E+002	2.9279712E-001	-2.7038031E+002
3	0	5.919423915902007E+002	2.9073450E-001	-2.7037326E+002
3	0	5.924423915775697E+002	2.8901532E-001	-2.7038031E+002
3	0	5.929423915649386E+002	2.8752920E-001	-2.7036972E+002
3	0	5.934423915523075E+002	2.8620878E-001	-2.7038031E+002
3	0	5.939423915396765E+002	2.8505826E-001	-2.7036972E+002
3	0	5.944423915270454E+002	2.8404218E-001	-2.7038742E+002
3	0	5.949423915144143E+002	2.8310788E-001	-2.7039447E+002
3	0	5.954423915017833E+002	2.8224477E-001	-2.7036972E+002
3	0	5.959423914891522E+002	2.8143930E-001	-2.7037326E+002
3	0	5.964423914765212E+002	2.8066808E-001	-2.7035913E+002
3	0	5.969423914638901E+002	2.7991664E-001	-2.7036618E+002
3	0	5.974423914512590E+002	2.7918017E-001	-2.7037326E+002
3	0	5.979423914386280E+002	2.7849579E-001	-2.7036972E+002
3	0	5.984423914259969E+002	2.7784866E-001	-2.7038385E+002
3	0	5.989423914133658E+002	2.7721649E-001	-2.7036618E+002
3	0	5.994423914007348E+002	2.7660036E-001	-2.7038031E+002
3	0	5.999423913881037E+002	2.7599970E-001	-2.7035559E+002
3	0	6.004423913754727E+002	2.7540839E-001	-2.7037677E+002
3	0	6.009423913628416E+002	2.7480492E-001	-2.7041568E+002
3	0	6.014423913502105E+002	2.7419832E-001	-2.7038031E+002
3	0	6.019423913375795E+002	2.7361664E-001	-2.7039801E+002
3	0	6.024423913249484E+002	2.7306435E-001	-2.7036267E+002
3	0	6.029423913123173E+002	2.7252051E-001	-2.7038385E+002
3	0	6.034423912996863E+002	2.7199155E-001	-2.7038385E+002
3	0	6.039423912870552E+002	2.7145314E-001	-2.7040860E+002
3	0	6.044423912744242E+002	2.7091280E-001	-2.7037677E+002
3	0	6.049423912617931E+002	2.7036920E-001	-2.7035913E+002
3	0	6.054423912491620E+002	2.6981419E-001	-2.7035913E+002
3	0	6.059423912365310E+002	2.6928580E-001	-2.7038031E+002
3	0	6.064423912238999E+002	2.6877981E-001	-2.7035913E+002
3	0	6.069423912112688E+002	2.6827940E-001	-2.7036618E+002
3	0	6.074423911986378E+002	2.6777604E-001	-2.7040155E+002
3	0	6.079423911860067E+002	2.6727992E-001	-2.7037326E+002
3	0	6.084423911733757E+002	2.6678449E-001	-2.7035559E+002
3	0	6.089423911607446E+002	2.6627037E-001	-2.7036618E+002
3	0	6.094423911481135E+002	2.6574463E-001	-2.7039801E+002
3	0	6.099423911354825E+002	2.6524889E-001	-2.7034851E+002
3	0	6.104423911228514E+002	2.6478124E-001	-2.7036618E+002
3	0	6.109423911102203E+002	2.6431662E-001	-2.7035205E+002
3	0	6.114423910975893E+002	2.6385459E-001	-2.7038742E+002
3	0	6.119423910849582E+002	2.6339403E-001	-2.7041214E+002
3	0	6.124423910723272E+002	2.6293153E-001	-2.7040506E+002
3	0	6.129423910596961E+002	2.6245031E-001	-2.7036972E+002
3	0	6.134423910470650E+002	2.6195571E-001	-2.7035913E+002
3	0	6.139423910344340E+002	2.6148626E-001	-2.7037677E+002
3	0	6.144423910218029E+002	2.6104888E-001	-2.7037326E+002
3	0	6.149423910091718E+002	2.6061049E-001	-2.7039093E+002
3	0	6.154423909965408E+002	2.6017261E-001	-2.7038742E+002
3	0	6.159423909839097E+002	2.5973973E-001	-2.7038031E+002
3	0	6.164423909712787E+002	2.5930777E-001	-2.7036618E+002
3	0	6.169423909586476E+002	2.5886312E-001	-2.7039801E+002
3	0	6.174423909460165E+002	2.5840092E-001	-2.7035913E+002
3	0	6.179423909333855E+002	2.5797287E-001	-2.7036267E+002
3	0	6.184423909207544E+002	2.5756696E-001	-2.7035913E+002
3	0	6.189423909081233E+002	2.5716379E-001	-2.7038742E+002
3	0	6.194423908954923E+002	2.5676399E-001	-2.7039093E+002
3	0	6.199423908828612E+002	2.5637147E-001	-2.7038385E+002
3	0	6.204423908702302E+002	2.5596952E-001	-2.7038031E+002
3	0	6.209423908575991E+002	2.5555843E-001	-2.7038385E+002
3	0	6.214423908449680E+002	2.5512525E-001	-2.7038742E+002
3	0	6.219423908323370E+002	2.5473216E-001	-2.7038742E+002
3	0	6.224423908197059E+002	2.5436315E-001	-2.7038031E+002
3	0	6.229423908070748E+002	2.5398964E-001	-2.7037677E+002
3	0	6.234423907944438E+002	2.5362235E-001	-2.7040506E+002
3	0	6.239423907818127E+002	2.5325450E-001	-2.7038031E+002
3	0	6.244423907691817E+002	2.5288939E-001	-2.7037326E+002
3	0	6.249423907565506E+002	2.5250092E-001	-2.7035913E+002
3	0	6.254423907439195E+002	2.5210473E-001	-2.7038385E+002
3	0	6.259423907312885E+002	2.5173977E-001	-2.7038742E+002
3	0	6.264423907186574E+002	2.5139475E-001	-2.7038385E+002
3	0	6.269423907060263E+002	2.5105491E-001	-2.7038385E+002
3	0	6.274423906933953E+002	2.5071603E-001	-2.7038742E+002
3	0	6.279423906807642E+002	2.5037396E-001	-2.7038385E+002
3	0	6.284423906681332E+002	2.5003538E-001	-2.7037677E+002
3	0	6.289423906555021E+002	2.4968161E-001	-2.7036267E+002
3	0	6.294423906428710E+002	2.4931376E-001	-2.7038385E+002
3	0	6.299423906302400E+002	2.4897343E-001	-2.7039447E+002
3	0	6.304423906176089E+002	2.4866259E-001	-2.7036972E+002
3	0	6.309423906049778E+002	2.4834736E-001	-2.7037677E+002
3	0	6.314423905923468E+002	2.4803710E-001	-2.7035913E+002
3	0	6.319423905797157E+002	2.4772435E-001	-2.7038031E+002
3	0	6.324423905670847E+002	2.4741173E-001	-2.7038031E+002
3	0	6.329423905544536E+002	2.4707574E-001	-2.7037326E+002
3	0	6.334423905418225E+002	2.4672528E-001	-2.7035205E+002
3	0	6.339423905291915E+002	2.4641758E-001	-2.7039093E+002
3	0	6.344423905165604E+002	2.4612409E-001	-2.7037677E+002
3	0	6.349423905039293E+002	2.4583612E-001	-2.7038031E+002
3	0	6.354423904912983E+002	2.4555035E-001	-2.7038385E+002
3	0	6.359423904786672E+002	2.4526341E-001	-2.7038742E+002
3	0	6.364423904660362E+002	2.4497445E-001	-2.7037326E+002
3	0	6.369423904534051E+002	2.4467452E-001	-2.7037326E+002
3	0	6.374423904407740E+002	2.4435428E-001	-2.7038031E+002
3	0	6.379423904281430E+002	2.4406901E-001	-2.7038385E+002
3	0	6.384423904155119E+002	2.4380733E-001	-2.7038742E+002
3	0	6.389423904028808E+002	2.4354421E-001	-2.7039447E+002
3	0	6.394423903902498E+002	2.4328949E-001	-2.7036972E+002
3	0	6.399423903776187E+002	2.4303345E-001	-2.7040860E+002
3	0	6.404423903649877E+002	2.4277230E-001	-2.7037677E+002
3	0	6.409423903523566E+002	2.4249376E-001	-2.7035559E+002
3	0	6.414423903397255E+002	2.4219510E-001	-2.7037677E+002
3	0	6.419423903270945E+002	2.4193528E-001	-2.7036972E+002
3	0	6.424423903144634E+002	2.4169965E-001	-2.7039093E+002
3	0	6.429423903018323E+002	2.4146798E-001	-2.7038742E+002
3	0	6.434423902892013E+002	2.4122277E-001	-2.7038742E+002
3	0	6.439423902765702E+002	2.4099213E-001	-2.7037326E+002
3	0	6.444423902639392E+002	2.4075262E-001	-2.7039093E+002
3	0	6.449423902513081E+002	2.4049529E-001	-2.7039093E+002
3	0	6.454423902386770E+002	2.4022421E-001	-2.7035205E+002
3	0	6.459423902260460E+002	2.3998107E-001	-2.7035913E+002
3	0	6.464423902134149E+002	2.3976967E-001	-2.7039447E+002
3	0	6.469423902007838E+002	2.3955497E-001	-2.7037677E+002
3	0	6.474423901881528E+002	2.3933592E-001	-2.7039093E+002
3	0	6.479423901755217E+002	2.3912145E-001	-2.7038031E+002
3	0	6.484423901628907E+002	2.3890704E-001	-2.7037326E+002
3	0	6.489423901502596E+002	2.3867054E-001	-2.7039447E+002
3	0	6.494423901376285E+002	2.3841240E-001	-2.7038742E+002
3	0	6.499423901249975E+002	2.3819552E-001	-2.7037677E+002
3	0	6.504423901123664E+002	2.3799904E-001	-2.7037677E+002
3	0	6.509423900997353E+002	2.3780543E-001	-2.7036972E+002
3	0	6.514423900871043E+002	2.3760794E-001	-2.7038031E+002
3	0	6.519423900744732E+002	2.3740712E-001	-2.7041214E+002
3	0	6.524423900618422E+002	2.3720214E-001	-2.7036267E+002
3	0	6.529423900492111E+002	2.3698507E-001	-2.7037326E+002
3	0	6.534423900365800E+002	2.3674142E-001	-2.7038742E+002
3	0	6.539423900239490E+002	2.3653790E-001	-2.7038031E+002
3	0	6.544423900113179E+002	2.3635389E-001	-2.7038385E+002
3	0	6.549423899986868E+002	2.3616844E-001	-2.7040155E+002
3	0	6.554423899860558E+002	2.3598492E-001	-2.7038385E+002
3	0	6.559423899734247E+002	2.3580362E-001	-2.7035559E+002
3	0	6.564423899607937E+002	2.3562494E-001	-2.7040155E+002
3	0	6.569423899481626E+002	2.3542206E-001	-2.7034851E+002
3	0	6.574423899355315E+002	2.3520522E-001	-2.7038031E+002
3	0	6.579423899229005E+002	2.3501165E-001	-2.7038742E+002
3	0	6.584423899102694E+002	2.3484541E-001	-2.7038385E+002
3	0	6.589423898976384E+002	2.3467481E-001	-2.7037326E+002
3	0	6.594423898850073E+002	2.3451442E-001	-2.7040155E+002
3	0	6.599423898723762E+002	2.3434889E-001	-2.7039447E+002
3	0	6.604423898597452E+002	2.3418078E-001	-2.7038742E+002
3	0	6.609423898471141E+002	2.3399723E-001	-2.7038385E+002
3	0	6.614423898344830E+002	2.3379545E-001	-2.7037677E+002
3	0	6.619423898218520E+002	2.3361918E-001	-2.7036267E+002
3	0	6.624423898092209E+002	2.3346737E-001	-2.7038031E+002
3	0	6.629423897965899E+002	2.3331833E-001	-2.7039447E+002
3	0	6.634423897839588E+002	2.3316988E-001	-2.7038385E+002
3	0	6.639423897713277E+002	2.3301817E-001	-2.7038031E+002
3	0	6.644423897586967E+002	2.3286374E-001	-2.7039801E+002
3	0	6.649423897460656E+002	2.3268846E-001	-2.7037677E+002
3	0	6.654423897334345E+002	2.3249638E-001	-2.7035205E+002
3	0	6.659423897208035E+002	2.3233095E-001	-2.7037326E+002
3	0	6.664423897081724E+002	2.3219842E-001	-2.7036618E+002
3	0	6.669423896955414E+002	2.3206204E-001	-2.7036972E+002
3	0	6.674423896829103E+002	2.3192489E-001	-2.7034851E+002
3	0	6.679423896702792E+002	2.3178868E-001	-2.7037326E+002
3	0	6.684423896576482E+002	2.3164874E-001	-2.7038031E+002
3	0	6.689423896450171E+002	2.3147707E-001	-2.7039801E+002
3	0	6.694423896323860E+002	2.3129325E-001	-2.7035913E+002
3	0	6.699423896197550E+002	2.3113962E-001	-2.7038385E+002
3	0	6.704423896071239E+002	2.3101576E-001	-2.7039801E+002
3	0	6.709423895944929E+002	2.3089015E-001	-2.7036972E+002
3	0	6.714423895818618E+002	2.3075739E-001	-2.7038031E+002
3	0	6.719423895692307E+002	2.3063082E-001	-2.7039093E+002
3	0	6.724423895565997E+002	2.3049788E-001	-2.7036618E+002
3	0	6.729423895439686E+002	2.3034850E-001	-2.7036972E+002
3	0	6.734423895313375E+002	2.3017018E-001	-2.7037326E+002
3	0	6.739423895187065E+002	2.3002692E-001	-2.7038385E+002
3	0	6.744423895060754E+002	2.2990389E-001	-2.7036618E+002
3	0	6.749423894934444E+002	2.2977425E-001	-2.7037326E+002
3	0	6.749427894934342E+002	2.2965345E-001	-2.7038742E+002