EC-Lab ASCII FILE
Nb header lines : 55                          

Open Circuit Voltage

Run on channel : 1 (SN 81504)
User : 
CE vs. WE compliance from -10 V to 10 V
Electrode connection : standard
Potential control : Ewe
Ewe ctrl range : min = -2.50 V, max = 2.50 V
Safety Limits :
	Do not start on E overload
Acquisition started on : 05/07/2026 19:27:13.907
Loaded Setting File :  C:\PEM-WE_measurements\2026\372_IV_IV IrOx, 5 min Pt, 30 min C, etched cathode\new station\Loopeis new\1,46 V different time gaps open cell\Loopeis 1,46V_90s_4_PEIS from 650Hz to 100Hz.mps
Saved on :
	File : L_19_Loopeis 1,46V_90s_4_PEIS from 650Hz to 100Hz_18_OCV_C01.mpr
	Directory : C:\PEM-WE_measurements\2026\372_IV_IV IrOx, 5 min Pt, 30 min C, etched cathode\new station\Loopeis new\1,46 V different time gaps open cell\
	Host : 192.168.0.2
Device : SP-150e (SN .005491)
Address : 192.168.0.91
EC-LAB for windows v11.71 (software)
Internet server v28.00 (firmware)
Command interpretor v14.01 (firmware)
Electrode material : 
Initial state : 
Electrolyte : 
Comments : 
Current amplifier : SP-150eB-20A
Electrode surface area : 0.001 cm²
Characteristic mass : 0.001 g
Equivalent Weight : 0.000 g/eq.
Density : 0.000 g/cm3
Volume (V) : 0.001 cm³
Record Analogic IN 1
Text export
   Mode : Standard
   Time format : Elapsed
Cycle Definition : Charge/Discharge alternance
External device configuration :
   device type : Temperature Probe
   device name : Other
   Analog IN 1 : 
      unit : T/Â°C
      max : 100.000 at 2.000 V
      min : 0.000 at 1.460 V
tR (h:m:s)          0:01:30.0000        
dER/dt (mV/h)       1.0                 
record              <Ewe>               
dER (mV)            10.00               
dtR (s)             0.5000              
E range min (V)     -2.500              
E range max (V)     2.500               

mode	error	time/s	<Ewe/V>	Analog IN 1/V	
3	0	1.130674984909492E+003	1.2628602E+000	-2.7038385E+002
3	0	1.131174984896861E+003	1.2438325E+000	-2.7036618E+002
3	0	1.131674984884230E+003	1.1638992E+000	-2.7038385E+002
3	0	1.132174984871599E+003	9.3050814E-001	-2.7039801E+002
3	0	1.132674984858968E+003	4.7726354E-001	-2.7040155E+002
3	0	1.133174984846337E+003	3.3965278E-001	-2.7036267E+002
3	0	1.133674984833706E+003	3.2283461E-001	-2.7039801E+002
3	0	1.134174984821075E+003	3.1479797E-001	-2.7036972E+002
3	0	1.134674984808444E+003	3.0814803E-001	-2.7036267E+002
3	0	1.135174984795813E+003	3.0297774E-001	-2.7038385E+002
3	0	1.135674984783182E+003	2.9901975E-001	-2.7040860E+002
3	0	1.136174984770551E+003	2.9594404E-001	-2.7035913E+002
3	0	1.136674984757919E+003	2.9348156E-001	-2.7036267E+002
3	0	1.137174984745288E+003	2.9143876E-001	-2.7038031E+002
3	0	1.137674984732657E+003	2.8973851E-001	-2.7037677E+002
3	0	1.138174984720026E+003	2.8831193E-001	-2.7037326E+002
3	0	1.138674984707395E+003	2.8705671E-001	-2.7036972E+002
3	0	1.139174984694764E+003	2.8593966E-001	-2.7039093E+002
3	0	1.139674984682133E+003	2.8493488E-001	-2.7038742E+002
3	0	1.140174984669502E+003	2.8401357E-001	-2.7040506E+002
3	0	1.140674984656871E+003	2.8313696E-001	-2.7040155E+002
3	0	1.141174984644240E+003	2.8229588E-001	-2.7039093E+002
3	0	1.141674984631609E+003	2.8151485E-001	-2.7038031E+002
3	0	1.142174984618978E+003	2.8079820E-001	-2.7037677E+002
3	0	1.142674984606347E+003	2.8010127E-001	-2.7037326E+002
3	0	1.143174984593716E+003	2.7943516E-001	-2.7036267E+002
3	0	1.143674984581085E+003	2.7880159E-001	-2.7039447E+002
3	0	1.144174984568454E+003	2.7817446E-001	-2.7038742E+002
3	0	1.144674984555822E+003	2.7753842E-001	-2.7038031E+002
3	0	1.145174984543191E+003	2.7690199E-001	-2.7038031E+002
3	0	1.145674984530560E+003	2.7628312E-001	-2.7035913E+002
3	0	1.146174984517929E+003	2.7571025E-001	-2.7038385E+002
3	0	1.146674984505298E+003	2.7513543E-001	-2.7038742E+002
3	0	1.147174984492667E+003	2.7458867E-001	-2.7038385E+002
3	0	1.147674984480036E+003	2.7403724E-001	-2.7041568E+002
3	0	1.148174984467405E+003	2.7348879E-001	-2.7038742E+002
3	0	1.148674984454774E+003	2.7293077E-001	-2.7038031E+002
3	0	1.149174984442143E+003	2.7235687E-001	-2.7040155E+002
3	0	1.149674984429512E+003	2.7181530E-001	-2.7036267E+002
3	0	1.150174984416881E+003	2.7128592E-001	-2.7038031E+002
3	0	1.150674984404250E+003	2.7076396E-001	-2.7038385E+002
3	0	1.151174984391619E+003	2.7024955E-001	-2.7036267E+002
3	0	1.151674984378988E+003	2.6974005E-001	-2.7037677E+002
3	0	1.152174984366357E+003	2.6923767E-001	-2.7037326E+002
3	0	1.152674984353725E+003	2.6871884E-001	-2.7037326E+002
3	0	1.153174984341094E+003	2.6819178E-001	-2.7037326E+002
3	0	1.153674984328463E+003	2.6767612E-001	-2.7039801E+002
3	0	1.154174984315832E+003	2.6719916E-001	-2.7038031E+002
3	0	1.154674984303201E+003	2.6671520E-001	-2.7036618E+002
3	0	1.155174984290570E+003	2.6624057E-001	-2.7039801E+002
3	0	1.155674984277939E+003	2.6576957E-001	-2.7036972E+002
3	0	1.156174984265308E+003	2.6529926E-001	-2.7035559E+002
3	0	1.156674984252677E+003	2.6481318E-001	-2.7039093E+002
3	0	1.157174984240046E+003	2.6431715E-001	-2.7037677E+002
3	0	1.157674984227415E+003	2.6384374E-001	-2.7040506E+002
3	0	1.158174984214784E+003	2.6339522E-001	-2.7036267E+002
3	0	1.158674984202153E+003	2.6294452E-001	-2.7035913E+002
3	0	1.159174984189522E+003	2.6249647E-001	-2.7036267E+002
3	0	1.159674984176891E+003	2.6205525E-001	-2.7035913E+002
3	0	1.160174984164260E+003	2.6161617E-001	-2.7036618E+002
3	0	1.160674984151628E+003	2.6116329E-001	-2.7039801E+002
3	0	1.161174984138997E+003	2.6069799E-001	-2.7038742E+002
3	0	1.161674984126366E+003	2.6025033E-001	-2.7039093E+002
3	0	1.162174984113735E+003	2.5983602E-001	-2.7038385E+002
3	0	1.162674984101104E+003	2.5942546E-001	-2.7038742E+002
3	0	1.163174984088473E+003	2.5901729E-001	-2.7038742E+002
3	0	1.163674984075842E+003	2.5860846E-001	-2.7038031E+002
3	0	1.164174984063211E+003	2.5820786E-001	-2.7037677E+002
3	0	1.164674984050580E+003	2.5779256E-001	-2.7039093E+002
3	0	1.165174984037949E+003	2.5735965E-001	-2.7039093E+002
3	0	1.165674984025318E+003	2.5694689E-001	-2.7038742E+002
3	0	1.166174984012687E+003	2.5656664E-001	-2.7038031E+002
3	0	1.166674984000056E+003	2.5618500E-001	-2.7035205E+002
3	0	1.167174983987425E+003	2.5580204E-001	-2.7037677E+002
3	0	1.167674983974794E+003	2.5542793E-001	-2.7038385E+002
3	0	1.168174983962163E+003	2.5505450E-001	-2.7036972E+002
3	0	1.168674983949531E+003	2.5466347E-001	-2.7037677E+002
3	0	1.169174983936900E+003	2.5426346E-001	-2.7036267E+002
3	0	1.169674983924269E+003	2.5388810E-001	-2.7038742E+002
3	0	1.170174983911638E+003	2.5353953E-001	-2.7038031E+002
3	0	1.170674983899007E+003	2.5318143E-001	-2.7038742E+002
3	0	1.171174983886376E+003	2.5284010E-001	-2.7038031E+002
3	0	1.171674983873745E+003	2.5248927E-001	-2.7036267E+002
3	0	1.172174983861114E+003	2.5212350E-001	-2.7038742E+002
3	0	1.172674983848483E+003	2.5176120E-001	-2.7040155E+002
3	0	1.173174983835852E+003	2.5139433E-001	-2.7038031E+002
3	0	1.173674983823221E+003	2.5105593E-001	-2.7037677E+002
3	0	1.174174983810590E+003	2.5073797E-001	-2.7036267E+002
3	0	1.174674983797959E+003	2.5041306E-001	-2.7035913E+002
3	0	1.175174983785328E+003	2.5008664E-001	-2.7036972E+002
3	0	1.175674983772697E+003	2.4976958E-001	-2.7038031E+002
3	0	1.176174983760066E+003	2.4945343E-001	-2.7038742E+002
3	0	1.176674983747434E+003	2.4912244E-001	-2.7038385E+002
3	0	1.177174983734803E+003	2.4877426E-001	-2.7036972E+002
3	0	1.177674983722172E+003	2.4844842E-001	-2.7038385E+002
3	0	1.178174983709541E+003	2.4815528E-001	-2.7039447E+002
3	0	1.178674983696910E+003	2.4785846E-001	-2.7036972E+002
3	0	1.179174983684279E+003	2.4756010E-001	-2.7034851E+002
3	0	1.179674983671648E+003	2.4726647E-001	-2.7038742E+002
3	0	1.180174983659017E+003	2.4696454E-001	-2.7039093E+002
3	0	1.180674983646386E+003	2.4666435E-001	-2.7037677E+002
3	0	1.181174983633755E+003	2.4634905E-001	-2.7039093E+002
3	0	1.181674983621124E+003	2.4605274E-001	-2.7036618E+002
3	0	1.182174983608493E+003	2.4578829E-001	-2.7035559E+002
3	0	1.182674983595862E+003	2.4552028E-001	-2.7038385E+002
3	0	1.183174983583231E+003	2.4525109E-001	-2.7036618E+002
3	0	1.183674983570600E+003	2.4499002E-001	-2.7038385E+002
3	0	1.184174983557969E+003	2.4471630E-001	-2.7035559E+002
3	0	1.184674983545337E+003	2.4443300E-001	-2.7036618E+002
3	0	1.185174983532706E+003	2.4413957E-001	-2.7037326E+002
3	0	1.185674983520075E+003	2.4387173E-001	-2.7037677E+002
3	0	1.186174983507444E+003	2.4362476E-001	-2.7038742E+002
3	0	1.186674983494813E+003	2.4337770E-001	-2.7036972E+002
3	0	1.187174983482182E+003	2.4313284E-001	-2.7039447E+002
3	0	1.187674983469551E+003	2.4288954E-001	-2.7037677E+002
3	0	1.188174983456920E+003	2.4265026E-001	-2.7039801E+002
3	0	1.188674983444289E+003	2.4238814E-001	-2.7036618E+002
3	0	1.189174983431658E+003	2.4211310E-001	-2.7038742E+002
3	0	1.189674983419027E+003	2.4187149E-001	-2.7037326E+002
3	0	1.190174983406396E+003	2.4164979E-001	-2.7036267E+002
3	0	1.190674983393765E+003	2.4141932E-001	-2.7038742E+002
3	0	1.191174983381134E+003	2.4119176E-001	-2.7035559E+002
3	0	1.191674983368503E+003	2.4096473E-001	-2.7039093E+002
3	0	1.192174983355872E+003	2.4074723E-001	-2.7034497E+002
3	0	1.192674983343240E+003	2.4050866E-001	-2.7037326E+002
3	0	1.193174983330609E+003	2.4025802E-001	-2.7037677E+002
3	0	1.193674983317978E+003	2.4003187E-001	-2.7036618E+002
3	0	1.194174983305347E+003	2.3983085E-001	-2.7035559E+002
3	0	1.194674983292716E+003	2.3962557E-001	-2.7038742E+002
3	0	1.195174983280085E+003	2.3942326E-001	-2.7039801E+002
3	0	1.195674983267454E+003	2.3921706E-001	-2.7037326E+002
3	0	1.196174983254823E+003	2.3901640E-001	-2.7039801E+002
3	0	1.196674983242192E+003	2.3879142E-001	-2.7038385E+002
3	0	1.197174983229561E+003	2.3854828E-001	-2.7036972E+002
3	0	1.197674983216930E+003	2.3833975E-001	-2.7036972E+002
3	0	1.198174983204299E+003	2.3815309E-001	-2.7036618E+002
3	0	1.198674983191668E+003	2.3795529E-001	-2.7036972E+002
3	0	1.199174983179037E+003	2.3776808E-001	-2.7038385E+002
3	0	1.199674983166406E+003	2.3758243E-001	-2.7039801E+002
3	0	1.200174983153775E+003	2.3739213E-001	-2.7040506E+002
3	0	1.200674983141143E+003	2.3719151E-001	-2.7037326E+002
3	0	1.201174983128512E+003	2.3697460E-001	-2.7038742E+002
3	0	1.201674983115881E+003	2.3677829E-001	-2.7038385E+002
3	0	1.202174983103250E+003	2.3660991E-001	-2.7036618E+002
3	0	1.202674983090619E+003	2.3643531E-001	-2.7039801E+002
3	0	1.203174983077988E+003	2.3625985E-001	-2.7039801E+002
3	0	1.203674983065357E+003	2.3609051E-001	-2.7037677E+002
3	0	1.204174983052726E+003	2.3591474E-001	-2.7037677E+002
3	0	1.204674983040095E+003	2.3573390E-001	-2.7039093E+002
3	0	1.205174983027464E+003	2.3553710E-001	-2.7039801E+002
3	0	1.205674983014833E+003	2.3536244E-001	-2.7036972E+002
3	0	1.206174983002202E+003	2.3520909E-001	-2.7038742E+002
3	0	1.206674982989571E+003	2.3504928E-001	-2.7038031E+002
3	0	1.207174982976940E+003	2.3489261E-001	-2.7036618E+002
3	0	1.207674982964309E+003	2.3474008E-001	-2.7036972E+002
3	0	1.208174982951678E+003	2.3457900E-001	-2.7038742E+002
3	0	1.208674982939046E+003	2.3440278E-001	-2.7040860E+002
3	0	1.209174982926415E+003	2.3421149E-001	-2.7037326E+002
3	0	1.209674982913784E+003	2.3404418E-001	-2.7038742E+002
3	0	1.210174982901153E+003	2.3390689E-001	-2.7038385E+002
3	0	1.210674982888522E+003	2.3375785E-001	-2.7037326E+002
3	0	1.211174982875891E+003	2.3360829E-001	-2.7038385E+002
3	0	1.211674982863260E+003	2.3346654E-001	-2.7038031E+002
3	0	1.212174982850629E+003	2.3332401E-001	-2.7039093E+002
3	0	1.212674982837998E+003	2.3316690E-001	-2.7038742E+002
3	0	1.213174982825367E+003	2.3298432E-001	-2.7037677E+002
3	0	1.213674982812736E+003	2.3283201E-001	-2.7037326E+002
3	0	1.214174982800105E+003	2.3270857E-001	-2.7036972E+002
3	0	1.214674982787474E+003	2.3256844E-001	-2.7038385E+002
3	0	1.215174982774843E+003	2.3244074E-001	-2.7036972E+002
3	0	1.215674982762212E+003	2.3230484E-001	-2.7039093E+002
3	0	1.216174982749581E+003	2.3217008E-001	-2.7036972E+002
3	0	1.216674982736949E+003	2.3201136E-001	-2.7035913E+002
3	0	1.217174982724318E+003	2.3184267E-001	-2.7036267E+002
3	0	1.217674982711687E+003	2.3169543E-001	-2.7037677E+002
3	0	1.218174982699056E+003	2.3157784E-001	-2.7036267E+002
3	0	1.218674982686425E+003	2.3144481E-001	-2.7036972E+002
3	0	1.219174982673794E+003	2.3131761E-001	-2.7039093E+002
3	0	1.219674982661163E+003	2.3119833E-001	-2.7038385E+002
3	0	1.220174982648532E+003	2.3107010E-001	-2.7036618E+002
3	0	1.220175382648522E+003	2.3106565E-001	-2.7038385E+002