EC-Lab ASCII FILE
Nb header lines : 55                          

Open Circuit Voltage

Run on channel : 1 (SN 81504)
User : 
CE vs. WE compliance from -10 V to 10 V
Electrode connection : standard
Potential control : Ewe
Ewe ctrl range : min = -2.50 V, max = 2.50 V
Safety Limits :
	Do not start on E overload
Acquisition started on : 05/07/2026 19:27:13.907
Loaded Setting File :  C:\PEM-WE_measurements\2026\372_IV_IV IrOx, 5 min Pt, 30 min C, etched cathode\new station\Loopeis new\1,46 V different time gaps open cell\Loopeis 1,46V_90s_4_PEIS from 650Hz to 100Hz.mps
Saved on :
	File : L_19_Loopeis 1,46V_90s_4_PEIS from 650Hz to 100Hz_14_OCV_C01.mpr
	Directory : C:\PEM-WE_measurements\2026\372_IV_IV IrOx, 5 min Pt, 30 min C, etched cathode\new station\Loopeis new\1,46 V different time gaps open cell\
	Host : 192.168.0.2
Device : SP-150e (SN .005491)
Address : 192.168.0.91
EC-LAB for windows v11.71 (software)
Internet server v28.00 (firmware)
Command interpretor v14.01 (firmware)
Electrode material : 
Initial state : 
Electrolyte : 
Comments : 
Current amplifier : SP-150eB-20A
Electrode surface area : 0.001 cm²
Characteristic mass : 0.001 g
Equivalent Weight : 0.000 g/eq.
Density : 0.000 g/cm3
Volume (V) : 0.001 cm³
Record Analogic IN 1
Text export
   Mode : Standard
   Time format : Elapsed
Cycle Definition : Charge/Discharge alternance
External device configuration :
   device type : Temperature Probe
   device name : Other
   Analog IN 1 : 
      unit : T/Â°C
      max : 100.000 at 2.000 V
      min : 0.000 at 1.460 V
tR (h:m:s)          0:01:30.0000        
dER/dt (mV/h)       1.0                 
record              <Ewe>               
dER (mV)            10.00               
dtR (s)             0.5000              
E range min (V)     -2.500              
E range max (V)     2.500               

mode	error	time/s	<Ewe/V>	Analog IN 1/V	
3	0	8.576411883121182E+002	1.2633960E+000	-2.7039093E+002
3	0	8.581411882994871E+002	1.2459440E+000	-2.7039801E+002
3	0	8.586411882868561E+002	1.1697801E+000	-2.7038385E+002
3	0	8.591411882742250E+002	9.5853734E-001	-2.7036618E+002
3	0	8.596411882615939E+002	4.9646506E-001	-2.7039093E+002
3	0	8.601411882489629E+002	3.4313941E-001	-2.7035559E+002
3	0	8.606411882363318E+002	3.2395059E-001	-2.7038385E+002
3	0	8.611411882237007E+002	3.1566218E-001	-2.7037677E+002
3	0	8.616411882110697E+002	3.0882770E-001	-2.7038742E+002
3	0	8.621411881984386E+002	3.0353627E-001	-2.7038742E+002
3	0	8.626411881858076E+002	2.9949340E-001	-2.7037677E+002
3	0	8.631411881731765E+002	2.9635221E-001	-2.7038031E+002
3	0	8.636411881605454E+002	2.9385877E-001	-2.7039093E+002
3	0	8.641411881479144E+002	2.9182631E-001	-2.7038031E+002
3	0	8.646411881352833E+002	2.9010627E-001	-2.7038385E+002
3	0	8.651411881226522E+002	2.8861481E-001	-2.7040155E+002
3	0	8.656411881100212E+002	2.8731093E-001	-2.7038031E+002
3	0	8.661411880973901E+002	2.8618866E-001	-2.7036267E+002
3	0	8.666411880847591E+002	2.8517616E-001	-2.7039801E+002
3	0	8.671411880721280E+002	2.8424817E-001	-2.7035559E+002
3	0	8.676411880594969E+002	2.8338224E-001	-2.7037326E+002
3	0	8.681411880468659E+002	2.8256938E-001	-2.7039447E+002
3	0	8.686411880342348E+002	2.8178814E-001	-2.7036972E+002
3	0	8.691411880216037E+002	2.8101924E-001	-2.7038385E+002
3	0	8.696411880089727E+002	2.8028664E-001	-2.7036972E+002
3	0	8.701411879963416E+002	2.7961636E-001	-2.7038031E+002
3	0	8.706411879837106E+002	2.7898008E-001	-2.7039801E+002
3	0	8.711411879710795E+002	2.7835545E-001	-2.7039801E+002
3	0	8.716411879584484E+002	2.7774066E-001	-2.7039093E+002
3	0	8.721411879458174E+002	2.7713615E-001	-2.7039093E+002
3	0	8.726411879331863E+002	2.7652684E-001	-2.7036618E+002
3	0	8.731411879205552E+002	2.7590641E-001	-2.7036267E+002
3	0	8.736411879079242E+002	2.7529442E-001	-2.7036618E+002
3	0	8.741411878952931E+002	2.7473059E-001	-2.7038742E+002
3	0	8.746411878826621E+002	2.7418488E-001	-2.7038742E+002
3	0	8.751411878700310E+002	2.7363580E-001	-2.7036972E+002
3	0	8.756411878573999E+002	2.7309245E-001	-2.7039801E+002
3	0	8.761411878447689E+002	2.7255675E-001	-2.7038385E+002
3	0	8.766411878321378E+002	2.7202210E-001	-2.7038742E+002
3	0	8.771411878195067E+002	2.7145180E-001	-2.7035205E+002
3	0	8.776411878068757E+002	2.7089342E-001	-2.7038385E+002
3	0	8.781411877942446E+002	2.7038163E-001	-2.7037326E+002
3	0	8.786411877816136E+002	2.6987490E-001	-2.7038385E+002
3	0	8.791411877689825E+002	2.6937902E-001	-2.7038385E+002
3	0	8.796411877563514E+002	2.6888183E-001	-2.7038385E+002
3	0	8.801411877437204E+002	2.6838720E-001	-2.7037326E+002
3	0	8.806411877310893E+002	2.6788181E-001	-2.7038742E+002
3	0	8.811411877184582E+002	2.6736039E-001	-2.7038742E+002
3	0	8.816411877058272E+002	2.6684049E-001	-2.7038385E+002
3	0	8.821411876931961E+002	2.6636022E-001	-2.7037677E+002
3	0	8.826411876805651E+002	2.6590064E-001	-2.7036267E+002
3	0	8.831411876679340E+002	2.6543349E-001	-2.7035913E+002
3	0	8.836411876553029E+002	2.6496369E-001	-2.7041568E+002
3	0	8.841411876426719E+002	2.6451528E-001	-2.7039093E+002
3	0	8.846411876300408E+002	2.6404235E-001	-2.7034851E+002
3	0	8.851411876174097E+002	2.6355344E-001	-2.7038031E+002
3	0	8.856411876047787E+002	2.6306781E-001	-2.7039447E+002
3	0	8.861411875921476E+002	2.6262447E-001	-2.7036618E+002
3	0	8.866411875795166E+002	2.6218870E-001	-2.7038031E+002
3	0	8.871411875668855E+002	2.6175380E-001	-2.7035205E+002
3	0	8.876411875542544E+002	2.6131958E-001	-2.7037677E+002
3	0	8.881411875416234E+002	2.6088971E-001	-2.7037326E+002
3	0	8.886411875289923E+002	2.6044914E-001	-2.7036972E+002
3	0	8.891411875163612E+002	2.5998750E-001	-2.7038031E+002
3	0	8.896411875037302E+002	2.5953761E-001	-2.7038031E+002
3	0	8.901411874910991E+002	2.5913024E-001	-2.7036618E+002
3	0	8.906411874784681E+002	2.5873253E-001	-2.7039447E+002
3	0	8.911411874658370E+002	2.5832868E-001	-2.7039093E+002
3	0	8.916411874532059E+002	2.5792783E-001	-2.7038031E+002
3	0	8.921411874405749E+002	2.5752503E-001	-2.7037326E+002
3	0	8.926411874279438E+002	2.5711438E-001	-2.7038385E+002
3	0	8.931411874153127E+002	2.5668347E-001	-2.7038385E+002
3	0	8.936411874026817E+002	2.5626671E-001	-2.7039093E+002
3	0	8.941411873900506E+002	2.5588778E-001	-2.7036618E+002
3	0	8.946411873774196E+002	2.5551769E-001	-2.7037677E+002
3	0	8.951411873647885E+002	2.5513870E-001	-2.7037677E+002
3	0	8.956411873521574E+002	2.5477594E-001	-2.7035559E+002
3	0	8.961411873395264E+002	2.5440940E-001	-2.7035913E+002
3	0	8.966411873268953E+002	2.5402915E-001	-2.7034851E+002
3	0	8.971411873142642E+002	2.5362793E-001	-2.7036618E+002
3	0	8.976411873016332E+002	2.5323212E-001	-2.7037326E+002
3	0	8.981411872890021E+002	2.5288442E-001	-2.7037677E+002
3	0	8.986411872763711E+002	2.5253940E-001	-2.7038385E+002
3	0	8.991411872637400E+002	2.5219533E-001	-2.7038742E+002
3	0	8.996411872511089E+002	2.5185719E-001	-2.7035205E+002
3	0	9.001411872384779E+002	2.5151542E-001	-2.7036972E+002
3	0	9.006411872258468E+002	2.5116837E-001	-2.7039093E+002
3	0	9.011411872132157E+002	2.5079942E-001	-2.7038385E+002
3	0	9.016411872005847E+002	2.5044471E-001	-2.7036618E+002
3	0	9.021411871879536E+002	2.5012556E-001	-2.7039093E+002
3	0	9.026411871753226E+002	2.4981929E-001	-2.7037677E+002
3	0	9.031411871626915E+002	2.4950600E-001	-2.7036618E+002
3	0	9.036411871500604E+002	2.4919888E-001	-2.7036972E+002
3	0	9.041411871374294E+002	2.4888402E-001	-2.7036618E+002
3	0	9.046411871247983E+002	2.4856603E-001	-2.7039447E+002
3	0	9.051411871121672E+002	2.4822401E-001	-2.7037677E+002
3	0	9.056411870995362E+002	2.4789144E-001	-2.7036618E+002
3	0	9.061411870869051E+002	2.4760167E-001	-2.7036618E+002
3	0	9.066411870742741E+002	2.4732178E-001	-2.7035205E+002
3	0	9.071411870616430E+002	2.4703676E-001	-2.7037677E+002
3	0	9.076411870490119E+002	2.4675025E-001	-2.7038031E+002
3	0	9.081411870363809E+002	2.4646732E-001	-2.7035913E+002
3	0	9.086411870237498E+002	2.4616969E-001	-2.7035559E+002
3	0	9.091411870111187E+002	2.4585429E-001	-2.7038385E+002
3	0	9.096411869984877E+002	2.4554923E-001	-2.7038742E+002
3	0	9.101411869858566E+002	2.4528204E-001	-2.7036267E+002
3	0	9.106411869732256E+002	2.4502470E-001	-2.7038385E+002
3	0	9.111411869605945E+002	2.4475972E-001	-2.7035559E+002
3	0	9.116411869479634E+002	2.4449952E-001	-2.7036972E+002
3	0	9.121411869353324E+002	2.4424098E-001	-2.7037326E+002
3	0	9.126411869227013E+002	2.4397004E-001	-2.7035913E+002
3	0	9.131411869100702E+002	2.4368323E-001	-2.7038031E+002
3	0	9.136411868974392E+002	2.4339442E-001	-2.7034143E+002
3	0	9.141411868848081E+002	2.4315475E-001	-2.7035205E+002
3	0	9.146411868721771E+002	2.4291639E-001	-2.7036267E+002
3	0	9.151411868595460E+002	2.4267553E-001	-2.7035913E+002
3	0	9.156411868469149E+002	2.4242972E-001	-2.7037326E+002
3	0	9.161411868342839E+002	2.4218503E-001	-2.7039093E+002
3	0	9.166411868216528E+002	2.4193092E-001	-2.7037677E+002
3	0	9.171411868090217E+002	2.4166012E-001	-2.7038031E+002
3	0	9.176411867963907E+002	2.4139197E-001	-2.7035205E+002
3	0	9.181411867837596E+002	2.4116603E-001	-2.7038031E+002
3	0	9.186411867711286E+002	2.4095152E-001	-2.7038385E+002
3	0	9.191411867584975E+002	2.4073373E-001	-2.7037326E+002
3	0	9.196411867458664E+002	2.4051915E-001	-2.7036972E+002
3	0	9.201411867332354E+002	2.4030396E-001	-2.7040860E+002
3	0	9.206411867206043E+002	2.4007772E-001	-2.7037677E+002
3	0	9.211411867079732E+002	2.3983105E-001	-2.7039093E+002
3	0	9.216411866953422E+002	2.3959252E-001	-2.7035913E+002
3	0	9.221411866827111E+002	2.3938842E-001	-2.7038031E+002
3	0	9.226411866700801E+002	2.3919667E-001	-2.7036972E+002
3	0	9.231411866574490E+002	2.3899920E-001	-2.7037677E+002
3	0	9.236411866448179E+002	2.3879899E-001	-2.7035559E+002
3	0	9.241411866321869E+002	2.3860204E-001	-2.7039093E+002
3	0	9.246411866195558E+002	2.3839390E-001	-2.7036618E+002
3	0	9.251411866069247E+002	2.3816827E-001	-2.7036267E+002
3	0	9.256411865942937E+002	2.3794481E-001	-2.7036618E+002
3	0	9.261411865816626E+002	2.3776855E-001	-2.7038742E+002
3	0	9.266411865690316E+002	2.3758973E-001	-2.7036267E+002
3	0	9.271411865564005E+002	2.3741274E-001	-2.7038385E+002
3	0	9.276411865437694E+002	2.3722990E-001	-2.7035913E+002
3	0	9.281411865311384E+002	2.3705092E-001	-2.7038385E+002
3	0	9.286411865185073E+002	2.3685689E-001	-2.7038742E+002
3	0	9.291411865058762E+002	2.3664035E-001	-2.7038385E+002
3	0	9.296411864932452E+002	2.3643011E-001	-2.7038031E+002
3	0	9.301411864806141E+002	2.3626351E-001	-2.7036618E+002
3	0	9.306411864679831E+002	2.3610255E-001	-2.7039093E+002
3	0	9.311411864553520E+002	2.3593770E-001	-2.7037326E+002
3	0	9.316411864427209E+002	2.3577335E-001	-2.7040506E+002
3	0	9.321411864300899E+002	2.3561569E-001	-2.7036972E+002
3	0	9.326411864174588E+002	2.3544195E-001	-2.7036618E+002
3	0	9.331411864048277E+002	2.3524140E-001	-2.7035913E+002
3	0	9.336411863921967E+002	2.3504190E-001	-2.7040155E+002
3	0	9.341411863795656E+002	2.3488647E-001	-2.7040155E+002
3	0	9.346411863669346E+002	2.3473600E-001	-2.7037677E+002
3	0	9.351411863543035E+002	2.3458509E-001	-2.7039447E+002
3	0	9.356411863416724E+002	2.3442960E-001	-2.7038385E+002
3	0	9.361411863290414E+002	2.3426539E-001	-2.7038742E+002
3	0	9.366411863164103E+002	2.3408295E-001	-2.7038385E+002
3	0	9.371411863037793E+002	2.3388869E-001	-2.7040506E+002
3	0	9.376411862911482E+002	2.3369752E-001	-2.7035559E+002
3	0	9.381411862785171E+002	2.3355086E-001	-2.7038031E+002
3	0	9.386411862658861E+002	2.3341055E-001	-2.7039447E+002
3	0	9.391411862532550E+002	2.3326591E-001	-2.7037326E+002
3	0	9.396411862406239E+002	2.3312543E-001	-2.7037677E+002
3	0	9.401411862279929E+002	2.3297580E-001	-2.7038385E+002
3	0	9.406411862153618E+002	2.3281188E-001	-2.7035913E+002
3	0	9.411411862027308E+002	2.3263873E-001	-2.7037677E+002
3	0	9.416411861900997E+002	2.3246659E-001	-2.7036267E+002
3	0	9.421411861774686E+002	2.3233685E-001	-2.7036972E+002
3	0	9.426411861648376E+002	2.3221745E-001	-2.7036267E+002
3	0	9.431411861522065E+002	2.3208669E-001	-2.7039093E+002
3	0	9.436411861395754E+002	2.3195565E-001	-2.7036267E+002
3	0	9.441411861269444E+002	2.3182875E-001	-2.7039093E+002
3	0	9.446411861143133E+002	2.3168232E-001	-2.7036972E+002
3	0	9.451411861016823E+002	2.3150878E-001	-2.7038385E+002
3	0	9.456411860890512E+002	2.3135050E-001	-2.7039093E+002
3	0	9.461411860764201E+002	2.3123194E-001	-2.7036972E+002
3	0	9.466411860637891E+002	2.3112112E-001	-2.7036972E+002
3	0	9.471411860511580E+002	2.3100324E-001	-2.7040155E+002
3	0	9.471415860511479E+002	2.3083664E-001	-2.7037677E+002