EC-Lab ASCII FILE
Nb header lines : 55                          

Open Circuit Voltage

Run on channel : 1 (SN 81504)
User : 
CE vs. WE compliance from -10 V to 10 V
Electrode connection : standard
Potential control : Ewe
Ewe ctrl range : min = -2.50 V, max = 2.50 V
Safety Limits :
	Do not start on E overload
Acquisition started on : 05/07/2026 19:49:57.838
Loaded Setting File :  C:\PEM-WE_measurements\2026\372_IV_IV IrOx, 5 min Pt, 30 min C, etched cathode\new station\Loopeis new\1,46 V different time gaps open cell\Loopeis 1,46V_90s_5_PEIS from 65Hz to 10Hz.mps
Saved on :
	File : L_20_Loopeis 1,46V_90s_5_PEIS from 65Hz to 10Hz_20_OCV_C01.mpr
	Directory : C:\PEM-WE_measurements\2026\372_IV_IV IrOx, 5 min Pt, 30 min C, etched cathode\new station\Loopeis new\1,46 V different time gaps open cell\
	Host : 192.168.0.2
Device : SP-150e (SN .005491)
Address : 192.168.0.91
EC-LAB for windows v11.71 (software)
Internet server v28.00 (firmware)
Command interpretor v14.01 (firmware)
Electrode material : 
Initial state : 
Electrolyte : 
Comments : 
Current amplifier : SP-150eB-20A
Electrode surface area : 0.001 cm²
Characteristic mass : 0.001 g
Equivalent Weight : 0.000 g/eq.
Density : 0.000 g/cm3
Volume (V) : 0.001 cm³
Record Analogic IN 1
Text export
   Mode : Standard
   Time format : Elapsed
Cycle Definition : Charge/Discharge alternance
External device configuration :
   device type : Temperature Probe
   device name : Other
   Analog IN 1 : 
      unit : T/Â°C
      max : 100.000 at 2.000 V
      min : 0.000 at 1.460 V
tR (h:m:s)          0:01:30.0000        
dER/dt (mV/h)       1.0                 
record              <Ewe>               
dER (mV)            10.00               
dtR (s)             0.5000              
E range min (V)     -2.500              
E range max (V)     2.500               

mode	error	time/s	<Ewe/V>	Analog IN 1/V	
3	0	1.705997605689190E+003	1.2640429E+000	-2.7035913E+002
3	0	1.706497605676559E+003	1.2480433E+000	-2.7036972E+002
3	0	1.706997605663928E+003	1.1734518E+000	-2.7039801E+002
3	0	1.707497605651297E+003	9.6532595E-001	-2.7038385E+002
3	0	1.707997605638666E+003	4.9796700E-001	-2.7037326E+002
3	0	1.708497605626035E+003	3.4345564E-001	-2.7038031E+002
3	0	1.708997605613404E+003	3.2444072E-001	-2.7038385E+002
3	0	1.709497605600773E+003	3.1621605E-001	-2.7034497E+002
3	0	1.709997605588142E+003	3.0945772E-001	-2.7038031E+002
3	0	1.710497605575511E+003	3.0423659E-001	-2.7037326E+002
3	0	1.710997605562879E+003	3.0026168E-001	-2.7037677E+002
3	0	1.711497605550248E+003	2.9719380E-001	-2.7037677E+002
3	0	1.711997605537617E+003	2.9475728E-001	-2.7039447E+002
3	0	1.712497605524986E+003	2.9276496E-001	-2.7036972E+002
3	0	1.712997605512355E+003	2.9108527E-001	-2.7038385E+002
3	0	1.713497605499724E+003	2.8966039E-001	-2.7036618E+002
3	0	1.713997605487093E+003	2.8843462E-001	-2.7038385E+002
3	0	1.714497605474462E+003	2.8734726E-001	-2.7038031E+002
3	0	1.714997605461831E+003	2.8636175E-001	-2.7037326E+002
3	0	1.715497605449200E+003	2.8546292E-001	-2.7037326E+002
3	0	1.715997605436569E+003	2.8461796E-001	-2.7038742E+002
3	0	1.716497605423938E+003	2.8380871E-001	-2.7035913E+002
3	0	1.716997605411307E+003	2.8302535E-001	-2.7038031E+002
3	0	1.717497605398676E+003	2.8229687E-001	-2.7036618E+002
3	0	1.717997605386045E+003	2.8161749E-001	-2.7036618E+002
3	0	1.718497605373414E+003	2.8096366E-001	-2.7038031E+002
3	0	1.718997605360782E+003	2.8032708E-001	-2.7038742E+002
3	0	1.719497605348151E+003	2.7970797E-001	-2.7037326E+002
3	0	1.719997605335520E+003	2.7910495E-001	-2.7039801E+002
3	0	1.720497605322889E+003	2.7848643E-001	-2.7040506E+002
3	0	1.720997605310258E+003	2.7786720E-001	-2.7037677E+002
3	0	1.721497605297627E+003	2.7727309E-001	-2.7038742E+002
3	0	1.721997605284996E+003	2.7670515E-001	-2.7036618E+002
3	0	1.722497605272365E+003	2.7614826E-001	-2.7038742E+002
3	0	1.722997605259734E+003	2.7560085E-001	-2.7036618E+002
3	0	1.723497605247103E+003	2.7505285E-001	-2.7038031E+002
3	0	1.723997605234472E+003	2.7451813E-001	-2.7037326E+002
3	0	1.724497605221841E+003	2.7395841E-001	-2.7035559E+002
3	0	1.724997605209210E+003	2.7339435E-001	-2.7040506E+002
3	0	1.725497605196579E+003	2.7285194E-001	-2.7039801E+002
3	0	1.725997605183948E+003	2.7233514E-001	-2.7038385E+002
3	0	1.726497605171317E+003	2.7182615E-001	-2.7036618E+002
3	0	1.726997605158685E+003	2.7131349E-001	-2.7036618E+002
3	0	1.727497605146054E+003	2.7080894E-001	-2.7037326E+002
3	0	1.727997605133423E+003	2.7030542E-001	-2.7037326E+002
3	0	1.728497605120792E+003	2.6978293E-001	-2.7037677E+002
3	0	1.728997605108161E+003	2.6926228E-001	-2.7038742E+002
3	0	1.729497605095530E+003	2.6876074E-001	-2.7035559E+002
3	0	1.729997605082899E+003	2.6827958E-001	-2.7037326E+002
3	0	1.730497605070268E+003	2.6780164E-001	-2.7039447E+002
3	0	1.730997605057637E+003	2.6733068E-001	-2.7038385E+002
3	0	1.731497605045006E+003	2.6686144E-001	-2.7037677E+002
3	0	1.731997605032375E+003	2.6638713E-001	-2.7039093E+002
3	0	1.732497605019744E+003	2.6590437E-001	-2.7038385E+002
3	0	1.732997605007113E+003	2.6541072E-001	-2.7038742E+002
3	0	1.733497604994482E+003	2.6494640E-001	-2.7039801E+002
3	0	1.733997604981851E+003	2.6450098E-001	-2.7039093E+002
3	0	1.734497604969220E+003	2.6405936E-001	-2.7038742E+002
3	0	1.734997604956588E+003	2.6361945E-001	-2.7040860E+002
3	0	1.735497604943957E+003	2.6318344E-001	-2.7038742E+002
3	0	1.735997604931326E+003	2.6274091E-001	-2.7039447E+002
3	0	1.736497604918695E+003	2.6228821E-001	-2.7038385E+002
3	0	1.736997604906064E+003	2.6182410E-001	-2.7038031E+002
3	0	1.737497604893433E+003	2.6139104E-001	-2.7037677E+002
3	0	1.737997604880802E+003	2.6097804E-001	-2.7039447E+002
3	0	1.738497604868171E+003	2.6056784E-001	-2.7039093E+002
3	0	1.738997604855540E+003	2.6015881E-001	-2.7038742E+002
3	0	1.739497604842909E+003	2.5975889E-001	-2.7038385E+002
3	0	1.739997604830278E+003	2.5935113E-001	-2.7037326E+002
3	0	1.740497604817647E+003	2.5893101E-001	-2.7038385E+002
3	0	1.740997604805016E+003	2.5849867E-001	-2.7040506E+002
3	0	1.741497604792385E+003	2.5809833E-001	-2.7035913E+002
3	0	1.741997604779754E+003	2.5771526E-001	-2.7036267E+002
3	0	1.742497604767123E+003	2.5733435E-001	-2.7038385E+002
3	0	1.742997604754491E+003	2.5695616E-001	-2.7035913E+002
3	0	1.743497604741860E+003	2.5658324E-001	-2.7038031E+002
3	0	1.743997604729229E+003	2.5621217E-001	-2.7038031E+002
3	0	1.744497604716598E+003	2.5581998E-001	-2.7039801E+002
3	0	1.744997604703967E+003	2.5541618E-001	-2.7038742E+002
3	0	1.745497604691336E+003	2.5503618E-001	-2.7036618E+002
3	0	1.745997604678705E+003	2.5468341E-001	-2.7037326E+002
3	0	1.746497604666074E+003	2.5433299E-001	-2.7037326E+002
3	0	1.746997604653443E+003	2.5398704E-001	-2.7038742E+002
3	0	1.747497604640812E+003	2.5364137E-001	-2.7035559E+002
3	0	1.747997604628181E+003	2.5329098E-001	-2.7036972E+002
3	0	1.748497604615550E+003	2.5293463E-001	-2.7035913E+002
3	0	1.748997604602919E+003	2.5255600E-001	-2.7038385E+002
3	0	1.749497604590288E+003	2.5221035E-001	-2.7036618E+002
3	0	1.749997604577657E+003	2.5189373E-001	-2.7038742E+002
3	0	1.750497604565026E+003	2.5157383E-001	-2.7040155E+002
3	0	1.750997604552394E+003	2.5125656E-001	-2.7036267E+002
3	0	1.751497604539763E+003	2.5093833E-001	-2.7038385E+002
3	0	1.751997604527132E+003	2.5062665E-001	-2.7036267E+002
3	0	1.752497604514501E+003	2.5029203E-001	-2.7036618E+002
3	0	1.752997604501870E+003	2.4994850E-001	-2.7035205E+002
3	0	1.753497604489239E+003	2.4963368E-001	-2.7038031E+002
3	0	1.753997604476608E+003	2.4934457E-001	-2.7036267E+002
3	0	1.754497604463977E+003	2.4905452E-001	-2.7036267E+002
3	0	1.754997604451346E+003	2.4875744E-001	-2.7034851E+002
3	0	1.755497604438715E+003	2.4846888E-001	-2.7039093E+002
3	0	1.755997604426084E+003	2.4818189E-001	-2.7039093E+002
3	0	1.756497604413453E+003	2.4787650E-001	-2.7038031E+002
3	0	1.756997604400822E+003	2.4755269E-001	-2.7040155E+002
3	0	1.757497604388191E+003	2.4726644E-001	-2.7036972E+002
3	0	1.757997604375560E+003	2.4699554E-001	-2.7036267E+002
3	0	1.758497604362929E+003	2.4673310E-001	-2.7039093E+002
3	0	1.758997604350297E+003	2.4647237E-001	-2.7037677E+002
3	0	1.759497604337666E+003	2.4620897E-001	-2.7037326E+002
3	0	1.759997604325035E+003	2.4593946E-001	-2.7036972E+002
3	0	1.760497604312404E+003	2.4566622E-001	-2.7038742E+002
3	0	1.760997604299773E+003	2.4536723E-001	-2.7038031E+002
3	0	1.761497604287142E+003	2.4510050E-001	-2.7036267E+002
3	0	1.761997604274511E+003	2.4485411E-001	-2.7037677E+002
3	0	1.762497604261880E+003	2.4461360E-001	-2.7039447E+002
3	0	1.762997604249249E+003	2.4437672E-001	-2.7037326E+002
3	0	1.763497604236618E+003	2.4414161E-001	-2.7038385E+002
3	0	1.763997604223987E+003	2.4389321E-001	-2.7038385E+002
3	0	1.764497604211356E+003	2.4362706E-001	-2.7037326E+002
3	0	1.764997604198725E+003	2.4335280E-001	-2.7038031E+002
3	0	1.765497604186094E+003	2.4310704E-001	-2.7038742E+002
3	0	1.765997604173463E+003	2.4287519E-001	-2.7037677E+002
3	0	1.766497604160832E+003	2.4265416E-001	-2.7040155E+002
3	0	1.766997604148200E+003	2.4242528E-001	-2.7039447E+002
3	0	1.767497604135569E+003	2.4218500E-001	-2.7039447E+002
3	0	1.767997604122938E+003	2.4194326E-001	-2.7037677E+002
3	0	1.768497604110307E+003	2.4171963E-001	-2.7038031E+002
3	0	1.768997604097676E+003	2.4148221E-001	-2.7036267E+002
3	0	1.769497604085045E+003	2.4127127E-001	-2.7039801E+002
3	0	1.769997604072414E+003	2.4107431E-001	-2.7038385E+002
3	0	1.770497604059783E+003	2.4086988E-001	-2.7039093E+002
3	0	1.770997604047152E+003	2.4067150E-001	-2.7037326E+002
3	0	1.771497604034521E+003	2.4047720E-001	-2.7037326E+002
3	0	1.771997604021890E+003	2.4027437E-001	-2.7036267E+002
3	0	1.772497604009259E+003	2.4006055E-001	-2.7040155E+002
3	0	1.772997603996628E+003	2.3982772E-001	-2.7038031E+002
3	0	1.773497603983997E+003	2.3963568E-001	-2.7038385E+002
3	0	1.773997603971366E+003	2.3945221E-001	-2.7037326E+002
3	0	1.774497603958735E+003	2.3926693E-001	-2.7035559E+002
3	0	1.774997603946103E+003	2.3908384E-001	-2.7038031E+002
3	0	1.775497603933472E+003	2.3890707E-001	-2.7038742E+002
3	0	1.775997603920841E+003	2.3872122E-001	-2.7037326E+002
3	0	1.776497603908210E+003	2.3851649E-001	-2.7038742E+002
3	0	1.776997603895579E+003	2.3830429E-001	-2.7039447E+002
3	0	1.777497603882948E+003	2.3811850E-001	-2.7038031E+002
3	0	1.777997603870317E+003	2.3795159E-001	-2.7038742E+002
3	0	1.778497603857686E+003	2.3777911E-001	-2.7037677E+002
3	0	1.778997603845055E+003	2.3761229E-001	-2.7039093E+002
3	0	1.779497603832424E+003	2.3744434E-001	-2.7035913E+002
3	0	1.779997603819793E+003	2.3727208E-001	-2.7040155E+002
3	0	1.780497603807162E+003	2.3708764E-001	-2.7037326E+002
3	0	1.780997603794531E+003	2.3688617E-001	-2.7036972E+002
3	0	1.781497603781900E+003	2.3671153E-001	-2.7036972E+002
3	0	1.781997603769269E+003	2.3656181E-001	-2.7038742E+002
3	0	1.782497603756638E+003	2.3640177E-001	-2.7038385E+002
3	0	1.782997603744006E+003	2.3624471E-001	-2.7035913E+002
3	0	1.783497603731375E+003	2.3608585E-001	-2.7036972E+002
3	0	1.783997603718744E+003	2.3592515E-001	-2.7037677E+002
3	0	1.784497603706113E+003	2.3575042E-001	-2.7039093E+002
3	0	1.784997603693482E+003	2.3555934E-001	-2.7041568E+002
3	0	1.785497603680851E+003	2.3540099E-001	-2.7036972E+002
3	0	1.785997603668220E+003	2.3525907E-001	-2.7038385E+002
3	0	1.786497603655589E+003	2.3511130E-001	-2.7037677E+002
3	0	1.786997603642958E+003	2.3496370E-001	-2.7039093E+002
3	0	1.787497603630327E+003	2.3481673E-001	-2.7037677E+002
3	0	1.787997603617696E+003	2.3467071E-001	-2.7035205E+002
3	0	1.788497603605065E+003	2.3450451E-001	-2.7036972E+002
3	0	1.788997603592434E+003	2.3432371E-001	-2.7036972E+002
3	0	1.789497603579803E+003	2.3417681E-001	-2.7037677E+002
3	0	1.789997603567172E+003	2.3404993E-001	-2.7037326E+002
3	0	1.790497603554541E+003	2.3391503E-001	-2.7040155E+002
3	0	1.790997603541909E+003	2.3378108E-001	-2.7039093E+002
3	0	1.791497603529278E+003	2.3364960E-001	-2.7037677E+002
3	0	1.791997603516647E+003	2.3352320E-001	-2.7039447E+002
3	0	1.792497603504016E+003	2.3337276E-001	-2.7039447E+002
3	0	1.792997603491385E+003	2.3320638E-001	-2.7040506E+002
3	0	1.793497603478754E+003	2.3307411E-001	-2.7037677E+002
3	0	1.793997603466123E+003	2.3295753E-001	-2.7036267E+002
3	0	1.794497603453492E+003	2.3283625E-001	-2.7037677E+002
3	0	1.794997603440861E+003	2.3271713E-001	-2.7039093E+002
3	0	1.795497603428230E+003	2.3259300E-001	-2.7038385E+002
3	0	1.795522203427608E+003	2.3252468E-001	-2.7040155E+002