EC-Lab ASCII FILE
Nb header lines : 55                          

Open Circuit Voltage

Run on channel : 1 (SN 81504)
User : 
CE vs. WE compliance from -10 V to 10 V
Electrode connection : standard
Potential control : Ewe
Ewe ctrl range : min = -2.50 V, max = 2.50 V
Safety Limits :
	Do not start on E overload
Acquisition started on : 05/07/2026 19:49:57.838
Loaded Setting File :  C:\PEM-WE_measurements\2026\372_IV_IV IrOx, 5 min Pt, 30 min C, etched cathode\new station\Loopeis new\1,46 V different time gaps open cell\Loopeis 1,46V_90s_5_PEIS from 65Hz to 10Hz.mps
Saved on :
	File : L_20_Loopeis 1,46V_90s_5_PEIS from 65Hz to 10Hz_14_OCV_C01.mpr
	Directory : C:\PEM-WE_measurements\2026\372_IV_IV IrOx, 5 min Pt, 30 min C, etched cathode\new station\Loopeis new\1,46 V different time gaps open cell\
	Host : 192.168.0.2
Device : SP-150e (SN .005491)
Address : 192.168.0.91
EC-LAB for windows v11.71 (software)
Internet server v28.00 (firmware)
Command interpretor v14.01 (firmware)
Electrode material : 
Initial state : 
Electrolyte : 
Comments : 
Current amplifier : SP-150eB-20A
Electrode surface area : 0.001 cm²
Characteristic mass : 0.001 g
Equivalent Weight : 0.000 g/eq.
Density : 0.000 g/cm3
Volume (V) : 0.001 cm³
Record Analogic IN 1
Text export
   Mode : Standard
   Time format : Elapsed
Cycle Definition : Charge/Discharge alternance
External device configuration :
   device type : Temperature Probe
   device name : Other
   Analog IN 1 : 
      unit : T/Â°C
      max : 100.000 at 2.000 V
      min : 0.000 at 1.460 V
tR (h:m:s)          0:01:30.0000        
dER/dt (mV/h)       1.0                 
record              <Ewe>               
dER (mV)            10.00               
dtR (s)             0.5000              
E range min (V)     -2.500              
E range max (V)     2.500               

mode	error	time/s	<Ewe/V>	Analog IN 1/V	
3	0	1.297739209215652E+003	1.2623152E+000	-2.7038742E+002
3	0	1.298239209203020E+003	1.2427883E+000	-2.7037677E+002
3	0	1.298739209190389E+003	1.1598600E+000	-2.7036618E+002
3	0	1.299239209177758E+003	8.9950436E-001	-2.7038742E+002
3	0	1.299739209165127E+003	4.5764372E-001	-2.7034851E+002
3	0	1.300239209152496E+003	3.3933437E-001	-2.7035913E+002
3	0	1.300739209139865E+003	3.2475796E-001	-2.7037677E+002
3	0	1.301239209127234E+003	3.1663540E-001	-2.7038385E+002
3	0	1.301739209114603E+003	3.1003568E-001	-2.7038385E+002
3	0	1.302239209101972E+003	3.0499214E-001	-2.7037677E+002
3	0	1.302739209089341E+003	3.0114931E-001	-2.7039093E+002
3	0	1.303239209076710E+003	2.9816550E-001	-2.7037677E+002
3	0	1.303739209064079E+003	2.9578695E-001	-2.7038031E+002
3	0	1.304239209051448E+003	2.9384404E-001	-2.7039093E+002
3	0	1.304739209038817E+003	2.9218996E-001	-2.7037326E+002
3	0	1.305239209026186E+003	2.9074496E-001	-2.7036618E+002
3	0	1.305739209013555E+003	2.8949916E-001	-2.7038031E+002
3	0	1.306239209000923E+003	2.8841138E-001	-2.7038742E+002
3	0	1.306739208988292E+003	2.8743058E-001	-2.7038742E+002
3	0	1.307239208975661E+003	2.8653002E-001	-2.7036972E+002
3	0	1.307739208963030E+003	2.8569204E-001	-2.7038742E+002
3	0	1.308239208950399E+003	2.8489876E-001	-2.7038385E+002
3	0	1.308739208937768E+003	2.8412926E-001	-2.7035205E+002
3	0	1.309239208925137E+003	2.8336945E-001	-2.7038031E+002
3	0	1.309739208912506E+003	2.8266484E-001	-2.7038385E+002
3	0	1.310239208899875E+003	2.8200451E-001	-2.7037326E+002
3	0	1.310739208887244E+003	2.8137347E-001	-2.7036972E+002
3	0	1.311239208874613E+003	2.8076008E-001	-2.7040860E+002
3	0	1.311739208861982E+003	2.8015104E-001	-2.7040506E+002
3	0	1.312239208849351E+003	2.7955312E-001	-2.7036618E+002
3	0	1.312739208836720E+003	2.7895057E-001	-2.7036972E+002
3	0	1.313239208824089E+003	2.7833614E-001	-2.7038742E+002
3	0	1.313739208811458E+003	2.7775109E-001	-2.7039801E+002
3	0	1.314239208798826E+003	2.7719072E-001	-2.7036972E+002
3	0	1.314739208786195E+003	2.7664271E-001	-2.7036972E+002
3	0	1.315239208773564E+003	2.7609146E-001	-2.7037326E+002
3	0	1.315739208760933E+003	2.7555382E-001	-2.7037677E+002
3	0	1.316239208748302E+003	2.7502126E-001	-2.7039447E+002
3	0	1.316739208735671E+003	2.7447945E-001	-2.7038385E+002
3	0	1.317239208723040E+003	2.7392182E-001	-2.7037677E+002
3	0	1.317739208710409E+003	2.7338818E-001	-2.7038742E+002
3	0	1.318239208697778E+003	2.7287787E-001	-2.7035205E+002
3	0	1.318739208685147E+003	2.7238414E-001	-2.7038385E+002
3	0	1.319239208672516E+003	2.7188179E-001	-2.7038385E+002
3	0	1.319739208659885E+003	2.7138659E-001	-2.7039447E+002
3	0	1.320239208647254E+003	2.7089280E-001	-2.7036972E+002
3	0	1.320739208634623E+003	2.7038181E-001	-2.7039447E+002
3	0	1.321239208621992E+003	2.6985684E-001	-2.7036267E+002
3	0	1.321739208609361E+003	2.6937371E-001	-2.7040155E+002
3	0	1.322239208596729E+003	2.6889893E-001	-2.7036618E+002
3	0	1.322739208584098E+003	2.6843369E-001	-2.7038742E+002
3	0	1.323239208571467E+003	2.6796460E-001	-2.7038385E+002
3	0	1.323739208558836E+003	2.6750353E-001	-2.7036618E+002
3	0	1.324239208546205E+003	2.6703760E-001	-2.7038031E+002
3	0	1.324739208533574E+003	2.6656190E-001	-2.7037677E+002
3	0	1.325239208520943E+003	2.6607040E-001	-2.7037677E+002
3	0	1.325739208508312E+003	2.6560906E-001	-2.7036267E+002
3	0	1.326239208495681E+003	2.6516929E-001	-2.7036972E+002
3	0	1.326739208483050E+003	2.6473626E-001	-2.7038742E+002
3	0	1.327239208470419E+003	2.6430270E-001	-2.7035559E+002
3	0	1.327739208457788E+003	2.6387808E-001	-2.7034851E+002
3	0	1.328239208445157E+003	2.6344690E-001	-2.7039447E+002
3	0	1.328739208432526E+003	2.6300314E-001	-2.7038742E+002
3	0	1.329239208419895E+003	2.6254705E-001	-2.7037326E+002
3	0	1.329739208407264E+003	2.6211962E-001	-2.7038742E+002
3	0	1.330239208394632E+003	2.6171780E-001	-2.7039093E+002
3	0	1.330739208382001E+003	2.6131684E-001	-2.7036618E+002
3	0	1.331239208369370E+003	2.6091838E-001	-2.7038031E+002
3	0	1.331739208356739E+003	2.6052114E-001	-2.7037326E+002
3	0	1.332239208344108E+003	2.6011825E-001	-2.7041214E+002
3	0	1.332739208331477E+003	2.5970727E-001	-2.7038031E+002
3	0	1.333239208318846E+003	2.5928560E-001	-2.7036972E+002
3	0	1.333739208306215E+003	2.5888655E-001	-2.7035913E+002
3	0	1.334239208293584E+003	2.5851017E-001	-2.7036972E+002
3	0	1.334739208280953E+003	2.5813848E-001	-2.7037326E+002
3	0	1.335239208268322E+003	2.5777262E-001	-2.7035559E+002
3	0	1.335739208255691E+003	2.5740033E-001	-2.7035913E+002
3	0	1.336239208243060E+003	2.5702584E-001	-2.7036972E+002
3	0	1.336739208230429E+003	2.5664541E-001	-2.7038385E+002
3	0	1.337239208217798E+003	2.5625783E-001	-2.7039093E+002
3	0	1.337739208205167E+003	2.5588775E-001	-2.7036267E+002
3	0	1.338239208192535E+003	2.5553563E-001	-2.7039801E+002
3	0	1.338739208179904E+003	2.5519210E-001	-2.7035913E+002
3	0	1.339239208167273E+003	2.5485462E-001	-2.7036618E+002
3	0	1.339739208154642E+003	2.5452000E-001	-2.7035913E+002
3	0	1.340239208142011E+003	2.5418276E-001	-2.7036972E+002
3	0	1.340739208129380E+003	2.5382155E-001	-2.7038031E+002
3	0	1.341239208116749E+003	2.5345883E-001	-2.7037326E+002
3	0	1.341739208104118E+003	2.5311533E-001	-2.7037326E+002
3	0	1.342239208091487E+003	2.5280493E-001	-2.7038031E+002
3	0	1.342739208078856E+003	2.5248963E-001	-2.7039447E+002
3	0	1.343239208066225E+003	2.5217101E-001	-2.7038385E+002
3	0	1.343739208053594E+003	2.5186506E-001	-2.7036618E+002
3	0	1.344239208040963E+003	2.5155273E-001	-2.7036267E+002
3	0	1.344739208028332E+003	2.5121903E-001	-2.7036972E+002
3	0	1.345239208015701E+003	2.5087407E-001	-2.7038385E+002
3	0	1.345739208003070E+003	2.5056338E-001	-2.7038031E+002
3	0	1.346239207990438E+003	2.5027901E-001	-2.7039447E+002
3	0	1.346739207977807E+003	2.4999435E-001	-2.7038031E+002
3	0	1.347239207965176E+003	2.4971496E-001	-2.7037326E+002
3	0	1.347739207952545E+003	2.4943228E-001	-2.7039447E+002
3	0	1.348239207939914E+003	2.4915202E-001	-2.7037677E+002
3	0	1.348739207927283E+003	2.4885106E-001	-2.7040155E+002
3	0	1.349239207914652E+003	2.4853568E-001	-2.7036267E+002
3	0	1.349739207902021E+003	2.4825142E-001	-2.7038385E+002
3	0	1.350239207889390E+003	2.4799301E-001	-2.7038031E+002
3	0	1.350739207876759E+003	2.4773426E-001	-2.7037677E+002
3	0	1.351239207864128E+003	2.4747765E-001	-2.7038031E+002
3	0	1.351739207851497E+003	2.4721967E-001	-2.7036972E+002
3	0	1.352239207838866E+003	2.4695511E-001	-2.7038742E+002
3	0	1.352739207826235E+003	2.4667609E-001	-2.7039447E+002
3	0	1.353239207813604E+003	2.4639049E-001	-2.7035913E+002
3	0	1.353739207800973E+003	2.4612686E-001	-2.7037326E+002
3	0	1.354239207788341E+003	2.4589242E-001	-2.7038385E+002
3	0	1.354739207775710E+003	2.4565792E-001	-2.7036618E+002
3	0	1.355239207763079E+003	2.4542291E-001	-2.7038742E+002
3	0	1.355739207750448E+003	2.4519576E-001	-2.7038031E+002
3	0	1.356239207737817E+003	2.4495126E-001	-2.7036972E+002
3	0	1.356739207725186E+003	2.4468988E-001	-2.7039447E+002
3	0	1.357239207712555E+003	2.4442220E-001	-2.7039801E+002
3	0	1.357739207699924E+003	2.4418260E-001	-2.7038742E+002
3	0	1.358239207687293E+003	2.4396734E-001	-2.7037326E+002
3	0	1.358739207674662E+003	2.4375196E-001	-2.7036267E+002
3	0	1.359239207662031E+003	2.4353543E-001	-2.7037677E+002
3	0	1.359739207649400E+003	2.4331966E-001	-2.7036267E+002
3	0	1.360239207636769E+003	2.4310879E-001	-2.7036267E+002
3	0	1.360739207624138E+003	2.4287425E-001	-2.7039093E+002
3	0	1.361239207611507E+003	2.4262506E-001	-2.7035913E+002
3	0	1.361739207598876E+003	2.4239691E-001	-2.7037326E+002
3	0	1.362239207586244E+003	2.4220170E-001	-2.7037677E+002
3	0	1.362739207573613E+003	2.4200660E-001	-2.7036972E+002
3	0	1.363239207560982E+003	2.4181233E-001	-2.7036618E+002
3	0	1.363739207548351E+003	2.4160910E-001	-2.7037677E+002
3	0	1.364239207535720E+003	2.4140508E-001	-2.7036972E+002
3	0	1.364739207523089E+003	2.4118377E-001	-2.7039801E+002
3	0	1.365239207510458E+003	2.4094859E-001	-2.7041568E+002
3	0	1.365739207497827E+003	2.4074368E-001	-2.7036618E+002
3	0	1.366239207485196E+003	2.4056458E-001	-2.7036972E+002
3	0	1.366739207472565E+003	2.4038497E-001	-2.7037677E+002
3	0	1.367239207459934E+003	2.4021429E-001	-2.7034851E+002
3	0	1.367739207447303E+003	2.4004237E-001	-2.7037677E+002
3	0	1.368239207434672E+003	2.3985189E-001	-2.7035559E+002
3	0	1.368739207422041E+003	2.3965062E-001	-2.7037677E+002
3	0	1.369239207409410E+003	2.3943363E-001	-2.7038742E+002
3	0	1.369739207396779E+003	2.3925023E-001	-2.7035559E+002
3	0	1.370239207384147E+003	2.3908646E-001	-2.7037677E+002
3	0	1.370739207371516E+003	2.3892662E-001	-2.7037677E+002
3	0	1.371239207358885E+003	2.3876458E-001	-2.7036267E+002
3	0	1.371739207346254E+003	2.3859879E-001	-2.7039093E+002
3	0	1.372239207333623E+003	2.3843102E-001	-2.7037677E+002
3	0	1.372739207320992E+003	2.3824777E-001	-2.7038385E+002
3	0	1.373239207308361E+003	2.3804796E-001	-2.7036972E+002
3	0	1.373739207295730E+003	2.3787577E-001	-2.7038385E+002
3	0	1.374239207283099E+003	2.3772791E-001	-2.7036618E+002
3	0	1.374739207270468E+003	2.3758127E-001	-2.7036618E+002
3	0	1.375239207257837E+003	2.3742685E-001	-2.7039093E+002
3	0	1.375739207245206E+003	2.3727298E-001	-2.7038031E+002
3	0	1.376239207232575E+003	2.3711754E-001	-2.7040506E+002
3	0	1.376739207219944E+003	2.3694977E-001	-2.7038385E+002
3	0	1.377239207207313E+003	2.3676048E-001	-2.7040155E+002
3	0	1.377739207194682E+003	2.3660342E-001	-2.7039093E+002
3	0	1.378239207182050E+003	2.3646238E-001	-2.7040155E+002
3	0	1.378739207169419E+003	2.3632666E-001	-2.7036972E+002
3	0	1.379239207156788E+003	2.3619649E-001	-2.7039801E+002
3	0	1.379739207144157E+003	2.3606031E-001	-2.7038742E+002
3	0	1.380239207131526E+003	2.3591669E-001	-2.7041568E+002
3	0	1.380739207118895E+003	2.3575450E-001	-2.7038031E+002
3	0	1.381239207106264E+003	2.3557790E-001	-2.7037677E+002
3	0	1.381739207093633E+003	2.3543070E-001	-2.7037326E+002
3	0	1.382239207081002E+003	2.3530780E-001	-2.7039447E+002
3	0	1.382739207068371E+003	2.3517996E-001	-2.7039801E+002
3	0	1.383239207055740E+003	2.3505613E-001	-2.7038742E+002
3	0	1.383739207043109E+003	2.3492081E-001	-2.7039447E+002
3	0	1.384239207030478E+003	2.3478544E-001	-2.7037677E+002
3	0	1.384739207017847E+003	2.3462994E-001	-2.7038385E+002
3	0	1.385239207005216E+003	2.3445895E-001	-2.7039447E+002
3	0	1.385739206992585E+003	2.3432423E-001	-2.7036972E+002
3	0	1.386239206979953E+003	2.3420870E-001	-2.7036267E+002
3	0	1.386739206967322E+003	2.3409754E-001	-2.7038742E+002
3	0	1.387239206954691E+003	2.3397718E-001	-2.7039447E+002
3	0	1.387239606954681E+003	2.3393777E-001	-2.7039093E+002