EC-Lab ASCII FILE
Nb header lines : 55                          

Open Circuit Voltage

Run on channel : 1 (SN 81504)
User : 
CE vs. WE compliance from -10 V to 10 V
Electrode connection : standard
Potential control : Ewe
Ewe ctrl range : min = -2.50 V, max = 2.50 V
Safety Limits :
	Do not start on E overload
Acquisition started on : 05/07/2026 19:49:57.838
Loaded Setting File :  C:\PEM-WE_measurements\2026\372_IV_IV IrOx, 5 min Pt, 30 min C, etched cathode\new station\Loopeis new\1,46 V different time gaps open cell\Loopeis 1,46V_90s_5_PEIS from 65Hz to 10Hz.mps
Saved on :
	File : L_20_Loopeis 1,46V_90s_5_PEIS from 65Hz to 10Hz_02_OCV_C01.mpr
	Directory : C:\PEM-WE_measurements\2026\372_IV_IV IrOx, 5 min Pt, 30 min C, etched cathode\new station\Loopeis new\1,46 V different time gaps open cell\
	Host : 192.168.0.2
Device : SP-150e (SN .005491)
Address : 192.168.0.91
EC-LAB for windows v11.71 (software)
Internet server v28.00 (firmware)
Command interpretor v14.01 (firmware)
Electrode material : 
Initial state : 
Electrolyte : 
Comments : 
Current amplifier : SP-150eB-20A
Electrode surface area : 0.001 cm²
Characteristic mass : 0.001 g
Equivalent Weight : 0.000 g/eq.
Density : 0.000 g/cm3
Volume (V) : 0.001 cm³
Record Analogic IN 1
Text export
   Mode : Standard
   Time format : Elapsed
Cycle Definition : Charge/Discharge alternance
External device configuration :
   device type : Temperature Probe
   device name : Other
   Analog IN 1 : 
      unit : T/Â°C
      max : 100.000 at 2.000 V
      min : 0.000 at 1.460 V
tR (h:m:s)          0:01:30.0000        
dER/dt (mV/h)       1.0                 
record              <Ewe>               
dER (mV)            10.00               
dtR (s)             0.5000              
E range min (V)     -2.500              
E range max (V)     2.500               

mode	error	time/s	<Ewe/V>	Analog IN 1/V	
3	0	4.549979885057837E+001	1.2612097E+000	-2.7040506E+002
3	0	4.599979883794731E+001	1.2417872E+000	-2.7037677E+002
3	0	4.649979882531625E+001	1.1588986E+000	-2.7040155E+002
3	0	4.699979881268519E+001	9.0262759E-001	-2.7038385E+002
3	0	4.749979880005412E+001	4.6038523E-001	-2.7037326E+002
3	0	4.799979878742306E+001	3.3875722E-001	-2.7036618E+002
3	0	4.849979877479200E+001	3.2367593E-001	-2.7037326E+002
3	0	4.899979876216094E+001	3.1564236E-001	-2.7036972E+002
3	0	4.949979874952987E+001	3.0904886E-001	-2.7036972E+002
3	0	4.999979873689881E+001	3.0394870E-001	-2.7035913E+002
3	0	5.049979872426775E+001	3.0003938E-001	-2.7036618E+002
3	0	5.099979871163669E+001	2.9701817E-001	-2.7036267E+002
3	0	5.149979869900562E+001	2.9460427E-001	-2.7038742E+002
3	0	5.199979868637456E+001	2.9263166E-001	-2.7036267E+002
3	0	5.249979867374350E+001	2.9096612E-001	-2.7037677E+002
3	0	5.299979866111244E+001	2.8954318E-001	-2.7037677E+002
3	0	5.349979864848137E+001	2.8828454E-001	-2.7039093E+002
3	0	5.399979863585031E+001	2.8713557E-001	-2.7038031E+002
3	0	5.449979862321925E+001	2.8610900E-001	-2.7036618E+002
3	0	5.499979861058819E+001	2.8518862E-001	-2.7036972E+002
3	0	5.549979859795712E+001	2.8434139E-001	-2.7038031E+002
3	0	5.599979858532606E+001	2.8352866E-001	-2.7039093E+002
3	0	5.649979857269500E+001	2.8276825E-001	-2.7041568E+002
3	0	5.699979856006394E+001	2.8204718E-001	-2.7038385E+002
3	0	5.749979854743287E+001	2.8132841E-001	-2.7035913E+002
3	0	5.799979853480181E+001	2.8061727E-001	-2.7036972E+002
3	0	5.849979852217075E+001	2.7994168E-001	-2.7038385E+002
3	0	5.899979850953969E+001	2.7931803E-001	-2.7037677E+002
3	0	5.949979849690862E+001	2.7870944E-001	-2.7036972E+002
3	0	5.999979848427756E+001	2.7810973E-001	-2.7035913E+002
3	0	6.049979847164650E+001	2.7751911E-001	-2.7036618E+002
3	0	6.099979845901544E+001	2.7693337E-001	-2.7037326E+002
3	0	6.149979844638438E+001	2.7634054E-001	-2.7036972E+002
3	0	6.199979843375331E+001	2.7574140E-001	-2.7035913E+002
3	0	6.249979842112225E+001	2.7515694E-001	-2.7038031E+002
3	0	6.299979840849119E+001	2.7462614E-001	-2.7039093E+002
3	0	6.349979839586013E+001	2.7408993E-001	-2.7037677E+002
3	0	6.399979838322906E+001	2.7355695E-001	-2.7035913E+002
3	0	6.449979837059800E+001	2.7302414E-001	-2.7040155E+002
3	0	6.499979835796694E+001	2.7250442E-001	-2.7038385E+002
3	0	6.549979834533588E+001	2.7197716E-001	-2.7037677E+002
3	0	6.599979833270481E+001	2.7142167E-001	-2.7036267E+002
3	0	6.649979832007375E+001	2.7088645E-001	-2.7039801E+002
3	0	6.699979830744269E+001	2.7038723E-001	-2.7038031E+002
3	0	6.749979829481163E+001	2.6988846E-001	-2.7036972E+002
3	0	6.799979828218056E+001	2.6939958E-001	-2.7037326E+002
3	0	6.849979826954950E+001	2.6890871E-001	-2.7037677E+002
3	0	6.899979825691844E+001	2.6841670E-001	-2.7038385E+002
3	0	6.949979824428738E+001	2.6792294E-001	-2.7037677E+002
3	0	6.999979823165631E+001	2.6740626E-001	-2.7038742E+002
3	0	7.049979821902525E+001	2.6690748E-001	-2.7037677E+002
3	0	7.099979820639419E+001	2.6644069E-001	-2.7038385E+002
3	0	7.149979819376313E+001	2.6598221E-001	-2.7039093E+002
3	0	7.199979818113206E+001	2.6552546E-001	-2.7036972E+002
3	0	7.249979816850100E+001	2.6506624E-001	-2.7038742E+002
3	0	7.299979815586994E+001	2.6461795E-001	-2.7037326E+002
3	0	7.349979814323888E+001	2.6414916E-001	-2.7039801E+002
3	0	7.399979813060781E+001	2.6366746E-001	-2.7035559E+002
3	0	7.449979811797675E+001	2.6320186E-001	-2.7037326E+002
3	0	7.499979810534569E+001	2.6276889E-001	-2.7038385E+002
3	0	7.549979809271463E+001	2.6234019E-001	-2.7036972E+002
3	0	7.599979808008356E+001	2.6190656E-001	-2.7037326E+002
3	0	7.649979806745250E+001	2.6147968E-001	-2.7037677E+002
3	0	7.699979805482144E+001	2.6105607E-001	-2.7037677E+002
3	0	7.749979804219038E+001	2.6062438E-001	-2.7039447E+002
3	0	7.799979802955932E+001	2.6016986E-001	-2.7036972E+002
3	0	7.849979801692825E+001	2.5974154E-001	-2.7038031E+002
3	0	7.899979800429719E+001	2.5934884E-001	-2.7038031E+002
3	0	7.949979799166613E+001	2.5895193E-001	-2.7037326E+002
3	0	7.999979797903507E+001	2.5855792E-001	-2.7036972E+002
3	0	8.049979796640400E+001	2.5816357E-001	-2.7035559E+002
3	0	8.099979795377294E+001	2.5777400E-001	-2.7038742E+002
3	0	8.149979794114188E+001	2.5736788E-001	-2.7035913E+002
3	0	8.199979792851082E+001	2.5694719E-001	-2.7039447E+002
3	0	8.249979791587975E+001	2.5655091E-001	-2.7038031E+002
3	0	8.299979790324869E+001	2.5618833E-001	-2.7039093E+002
3	0	8.349979789061763E+001	2.5582671E-001	-2.7037326E+002
3	0	8.399979787798657E+001	2.5546500E-001	-2.7037677E+002
3	0	8.449979786535550E+001	2.5510576E-001	-2.7039447E+002
3	0	8.499979785272444E+001	2.5474957E-001	-2.7037326E+002
3	0	8.549979784009338E+001	2.5438362E-001	-2.7037326E+002
3	0	8.599979782746232E+001	2.5399485E-001	-2.7037326E+002
3	0	8.649979781483125E+001	2.5362805E-001	-2.7037326E+002
3	0	8.699979780220019E+001	2.5329265E-001	-2.7036972E+002
3	0	8.749979778956913E+001	2.5296274E-001	-2.7036267E+002
3	0	8.799979777693807E+001	2.5262162E-001	-2.7039801E+002
3	0	8.849979776430700E+001	2.5229672E-001	-2.7039093E+002
3	0	8.899979775167594E+001	2.5196278E-001	-2.7037677E+002
3	0	8.949979773904488E+001	2.5161901E-001	-2.7036618E+002
3	0	8.999979772641382E+001	2.5125402E-001	-2.7035913E+002
3	0	9.049979771378275E+001	2.5091723E-001	-2.7038385E+002
3	0	9.099979770115169E+001	2.5061396E-001	-2.7035913E+002
3	0	9.149979768852063E+001	2.5031158E-001	-2.7034851E+002
3	0	9.199979767588957E+001	2.5000724E-001	-2.7037326E+002
3	0	9.249979766325851E+001	2.4970812E-001	-2.7036618E+002
3	0	9.299979765062744E+001	2.4940331E-001	-2.7038031E+002
3	0	9.349979763799638E+001	2.4909523E-001	-2.7037326E+002
3	0	9.399979762536532E+001	2.4875619E-001	-2.7039093E+002
3	0	9.449979761273426E+001	2.4843885E-001	-2.7036618E+002
3	0	9.499979760010319E+001	2.4816051E-001	-2.7040155E+002
3	0	9.549979758747213E+001	2.4788424E-001	-2.7036618E+002
3	0	9.599979757484107E+001	2.4759988E-001	-2.7039447E+002
3	0	9.649979756221001E+001	2.4731563E-001	-2.7038031E+002
3	0	9.699979754957894E+001	2.4703033E-001	-2.7037677E+002
3	0	9.749979753694788E+001	2.4673571E-001	-2.7039801E+002
3	0	9.799979752431682E+001	2.4642426E-001	-2.7035205E+002
3	0	9.849979751168576E+001	2.4613653E-001	-2.7037326E+002
3	0	9.899979749905469E+001	2.4588321E-001	-2.7039447E+002
3	0	9.949979748642363E+001	2.4563131E-001	-2.7038742E+002
3	0	9.999979747379257E+001	2.4537235E-001	-2.7036972E+002
3	0	1.004997974611615E+002	2.4511701E-001	-2.7036972E+002
3	0	1.009997974485304E+002	2.4485795E-001	-2.7036972E+002
3	0	1.014997974358994E+002	2.4458560E-001	-2.7036972E+002
3	0	1.019997974232683E+002	2.4430467E-001	-2.7038385E+002
3	0	1.024997974106373E+002	2.4403797E-001	-2.7036267E+002
3	0	1.029997973980062E+002	2.4381219E-001	-2.7038031E+002
3	0	1.034997973853751E+002	2.4358097E-001	-2.7038031E+002
3	0	1.039997973727441E+002	2.4334654E-001	-2.7038031E+002
3	0	1.044997973601130E+002	2.4311908E-001	-2.7039093E+002
3	0	1.049997973474819E+002	2.4288645E-001	-2.7036267E+002
3	0	1.054997973348509E+002	2.4263550E-001	-2.7038742E+002
3	0	1.059997973222198E+002	2.4237274E-001	-2.7037677E+002
3	0	1.064997973095888E+002	2.4212709E-001	-2.7039447E+002
3	0	1.069997972969577E+002	2.4192341E-001	-2.7036972E+002
3	0	1.074997972843266E+002	2.4171227E-001	-2.7036972E+002
3	0	1.079997972716956E+002	2.4150367E-001	-2.7037677E+002
3	0	1.084997972590645E+002	2.4129252E-001	-2.7039801E+002
3	0	1.089997972464334E+002	2.4107647E-001	-2.7037326E+002
3	0	1.094997972338024E+002	2.4085055E-001	-2.7036267E+002
3	0	1.099997972211713E+002	2.4060963E-001	-2.7038742E+002
3	0	1.104997972085403E+002	2.4038197E-001	-2.7036618E+002
3	0	1.109997971959092E+002	2.4019226E-001	-2.7039801E+002
3	0	1.114997971832781E+002	2.3999913E-001	-2.7035913E+002
3	0	1.119997971706471E+002	2.3980892E-001	-2.7038385E+002
3	0	1.124997971580160E+002	2.3962137E-001	-2.7039447E+002
3	0	1.129997971453849E+002	2.3942859E-001	-2.7038385E+002
3	0	1.134997971327539E+002	2.3921314E-001	-2.7038031E+002
3	0	1.139997971201228E+002	2.3899068E-001	-2.7040155E+002
3	0	1.144997971074918E+002	2.3878069E-001	-2.7037677E+002
3	0	1.149997970948607E+002	2.3860294E-001	-2.7034497E+002
3	0	1.154997970822296E+002	2.3843065E-001	-2.7037677E+002
3	0	1.159997970695986E+002	2.3825194E-001	-2.7039093E+002
3	0	1.164997970569675E+002	2.3806745E-001	-2.7036267E+002
3	0	1.169997970443364E+002	2.3788549E-001	-2.7038031E+002
3	0	1.174997970317054E+002	2.3768878E-001	-2.7037677E+002
3	0	1.179997970190743E+002	2.3746696E-001	-2.7036972E+002
3	0	1.184997970064433E+002	2.3726737E-001	-2.7033789E+002
3	0	1.189997969938122E+002	2.3710689E-001	-2.7037326E+002
3	0	1.194997969811811E+002	2.3695120E-001	-2.7037326E+002
3	0	1.199997969685501E+002	2.3679154E-001	-2.7041568E+002
3	0	1.204997969559190E+002	2.3663183E-001	-2.7038385E+002
3	0	1.209997969432879E+002	2.3647247E-001	-2.7036972E+002
3	0	1.214997969306569E+002	2.3628886E-001	-2.7036267E+002
3	0	1.219997969180258E+002	2.3608710E-001	-2.7039093E+002
3	0	1.224997969053948E+002	2.3590846E-001	-2.7038031E+002
3	0	1.229997968927637E+002	2.3576385E-001	-2.7038031E+002
3	0	1.234997968801326E+002	2.3562759E-001	-2.7038031E+002
3	0	1.239997968675016E+002	2.3548375E-001	-2.7038031E+002
3	0	1.244997968548705E+002	2.3534252E-001	-2.7035559E+002
3	0	1.249997968422394E+002	2.3519589E-001	-2.7037326E+002
3	0	1.254997968296084E+002	2.3502101E-001	-2.7036972E+002
3	0	1.259997968169773E+002	2.3483175E-001	-2.7036972E+002
3	0	1.264997968043463E+002	2.3466502E-001	-2.7038385E+002
3	0	1.269997967917152E+002	2.3453039E-001	-2.7038742E+002
3	0	1.274997967790841E+002	2.3440102E-001	-2.7039801E+002
3	0	1.279997967664531E+002	2.3426376E-001	-2.7039801E+002
3	0	1.284997967538220E+002	2.3412374E-001	-2.7038742E+002
3	0	1.289997967411909E+002	2.3398453E-001	-2.7036618E+002
3	0	1.294997967285599E+002	2.3382719E-001	-2.7039447E+002
3	0	1.299997967159288E+002	2.3364428E-001	-2.7040506E+002
3	0	1.304997967032978E+002	2.3348536E-001	-2.7038031E+002
3	0	1.309997966906667E+002	2.3335612E-001	-2.7039093E+002
3	0	1.314997966780356E+002	2.3323497E-001	-2.7037326E+002
3	0	1.319997966654046E+002	2.3310862E-001	-2.7037326E+002
3	0	1.324997966527735E+002	2.3297714E-001	-2.7039801E+002
3	0	1.329997966401424E+002	2.3284046E-001	-2.7041568E+002
3	0	1.334997966275114E+002	2.3268878E-001	-2.7038031E+002
3	0	1.339997966148803E+002	2.3251766E-001	-2.7040155E+002
3	0	1.344997966022493E+002	2.3237169E-001	-2.7036267E+002
3	0	1.349997965896182E+002	2.3225501E-001	-2.7038031E+002
3	0	1.350001965896081E+002	2.3213434E-001	-2.7038742E+002