EC-Lab ASCII FILE
Nb header lines : 55                          

Open Circuit Voltage

Run on channel : 1 (SN 81504)
User : 
CE vs. WE compliance from -10 V to 10 V
Electrode connection : standard
Potential control : Ewe
Ewe ctrl range : min = -2.50 V, max = 2.50 V
Safety Limits :
	Do not start on E overload
Acquisition started on : 05/07/2026 19:49:57.838
Loaded Setting File :  C:\PEM-WE_measurements\2026\372_IV_IV IrOx, 5 min Pt, 30 min C, etched cathode\new station\Loopeis new\1,46 V different time gaps open cell\Loopeis 1,46V_90s_5_PEIS from 65Hz to 10Hz.mps
Saved on :
	File : L_20_Loopeis 1,46V_90s_5_PEIS from 65Hz to 10Hz_12_OCV_C01.mpr
	Directory : C:\PEM-WE_measurements\2026\372_IV_IV IrOx, 5 min Pt, 30 min C, etched cathode\new station\Loopeis new\1,46 V different time gaps open cell\
	Host : 192.168.0.2
Device : SP-150e (SN .005491)
Address : 192.168.0.91
EC-LAB for windows v11.71 (software)
Internet server v28.00 (firmware)
Command interpretor v14.01 (firmware)
Electrode material : 
Initial state : 
Electrolyte : 
Comments : 
Current amplifier : SP-150eB-20A
Electrode surface area : 0.001 cm²
Characteristic mass : 0.001 g
Equivalent Weight : 0.000 g/eq.
Density : 0.000 g/cm3
Volume (V) : 0.001 cm³
Record Analogic IN 1
Text export
   Mode : Standard
   Time format : Elapsed
Cycle Definition : Charge/Discharge alternance
External device configuration :
   device type : Temperature Probe
   device name : Other
   Analog IN 1 : 
      unit : T/Â°C
      max : 100.000 at 2.000 V
      min : 0.000 at 1.460 V
tR (h:m:s)          0:01:30.0000        
dER/dt (mV/h)       1.0                 
record              <Ewe>               
dER (mV)            10.00               
dtR (s)             0.5000              
E range min (V)     -2.500              
E range max (V)     2.500               

mode	error	time/s	<Ewe/V>	Analog IN 1/V	
3	0	1.162714012626675E+003	1.2642010E+000	-2.7038385E+002
3	0	1.163214012614044E+003	1.2477853E+000	-2.7036618E+002
3	0	1.163714012601413E+003	1.1715297E+000	-2.7036618E+002
3	0	1.164214012588782E+003	9.5229679E-001	-2.7036972E+002
3	0	1.164714012576151E+003	4.8828518E-001	-2.7037677E+002
3	0	1.165214012563520E+003	3.4296137E-001	-2.7037326E+002
3	0	1.165714012550889E+003	3.2518902E-001	-2.7036618E+002
3	0	1.166214012538258E+003	3.1697401E-001	-2.7038031E+002
3	0	1.166714012525626E+003	3.1025034E-001	-2.7036972E+002
3	0	1.167214012512995E+003	3.0506688E-001	-2.7036972E+002
3	0	1.167714012500364E+003	3.0111891E-001	-2.7037326E+002
3	0	1.168214012487733E+003	2.9806840E-001	-2.7039093E+002
3	0	1.168714012475102E+003	2.9563022E-001	-2.7036618E+002
3	0	1.169214012462471E+003	2.9362312E-001	-2.7038031E+002
3	0	1.169714012449840E+003	2.9195687E-001	-2.7036267E+002
3	0	1.170214012437209E+003	2.9055277E-001	-2.7036267E+002
3	0	1.170714012424578E+003	2.8933382E-001	-2.7037677E+002
3	0	1.171214012411947E+003	2.8824967E-001	-2.7036972E+002
3	0	1.171714012399316E+003	2.8726235E-001	-2.7038742E+002
3	0	1.172214012386685E+003	2.8635055E-001	-2.7035913E+002
3	0	1.172714012374054E+003	2.8549233E-001	-2.7039801E+002
3	0	1.173214012361423E+003	2.8466886E-001	-2.7039801E+002
3	0	1.173714012348792E+003	2.8390259E-001	-2.7039447E+002
3	0	1.174214012336161E+003	2.8319138E-001	-2.7038742E+002
3	0	1.174714012323529E+003	2.8252158E-001	-2.7039447E+002
3	0	1.175214012310898E+003	2.8186840E-001	-2.7037677E+002
3	0	1.175714012298267E+003	2.8122815E-001	-2.7039447E+002
3	0	1.176214012285636E+003	2.8061071E-001	-2.7039093E+002
3	0	1.176714012273005E+003	2.7997637E-001	-2.7035913E+002
3	0	1.177214012260374E+003	2.7934653E-001	-2.7036618E+002
3	0	1.177714012247743E+003	2.7874517E-001	-2.7036618E+002
3	0	1.178214012235112E+003	2.7817747E-001	-2.7038385E+002
3	0	1.178714012222481E+003	2.7761510E-001	-2.7038742E+002
3	0	1.179214012209850E+003	2.7706009E-001	-2.7037326E+002
3	0	1.179714012197219E+003	2.7651104E-001	-2.7038742E+002
3	0	1.180214012184588E+003	2.7596462E-001	-2.7037677E+002
3	0	1.180714012171957E+003	2.7540690E-001	-2.7039801E+002
3	0	1.181214012159326E+003	2.7483624E-001	-2.7038031E+002
3	0	1.181714012146695E+003	2.7429324E-001	-2.7038385E+002
3	0	1.182214012134064E+003	2.7377945E-001	-2.7036972E+002
3	0	1.182714012121432E+003	2.7326530E-001	-2.7038742E+002
3	0	1.183214012108801E+003	2.7275464E-001	-2.7038385E+002
3	0	1.183714012096170E+003	2.7225679E-001	-2.7037326E+002
3	0	1.184214012083539E+003	2.7175304E-001	-2.7037326E+002
3	0	1.184714012070908E+003	2.7122837E-001	-2.7035913E+002
3	0	1.185214012058277E+003	2.7069888E-001	-2.7038031E+002
3	0	1.185714012045646E+003	2.7018678E-001	-2.7038742E+002
3	0	1.186214012033015E+003	2.6971117E-001	-2.7036267E+002
3	0	1.186714012020384E+003	2.6924732E-001	-2.7038031E+002
3	0	1.187214012007753E+003	2.6877162E-001	-2.7035913E+002
3	0	1.187714011995122E+003	2.6830173E-001	-2.7038385E+002
3	0	1.188214011982491E+003	2.6782930E-001	-2.7039801E+002
3	0	1.188714011969860E+003	2.6734322E-001	-2.7035205E+002
3	0	1.189214011957229E+003	2.6684505E-001	-2.7037677E+002
3	0	1.189714011944598E+003	2.6637182E-001	-2.7035913E+002
3	0	1.190214011931967E+003	2.6592556E-001	-2.7034851E+002
3	0	1.190714011919335E+003	2.6548421E-001	-2.7038385E+002
3	0	1.191214011906704E+003	2.6504067E-001	-2.7037677E+002
3	0	1.191714011894073E+003	2.6460770E-001	-2.7038742E+002
3	0	1.192214011881442E+003	2.6416969E-001	-2.7038742E+002
3	0	1.192714011868811E+003	2.6371923E-001	-2.7037677E+002
3	0	1.193214011856180E+003	2.6325819E-001	-2.7037677E+002
3	0	1.193714011843549E+003	2.6281366E-001	-2.7038031E+002
3	0	1.194214011830918E+003	2.6240435E-001	-2.7037677E+002
3	0	1.194714011818287E+003	2.6198989E-001	-2.7040506E+002
3	0	1.195214011805656E+003	2.6157448E-001	-2.7038031E+002
3	0	1.195714011793025E+003	2.6116773E-001	-2.7037326E+002
3	0	1.196214011780394E+003	2.6075771E-001	-2.7036972E+002
3	0	1.196714011767763E+003	2.6033509E-001	-2.7039801E+002
3	0	1.197214011755132E+003	2.5990179E-001	-2.7037677E+002
3	0	1.197714011742501E+003	2.5949275E-001	-2.7035559E+002
3	0	1.198214011729870E+003	2.5911850E-001	-2.7038742E+002
3	0	1.198714011717238E+003	2.5873792E-001	-2.7038031E+002
3	0	1.199214011704607E+003	2.5836095E-001	-2.7037326E+002
3	0	1.199714011691976E+003	2.5798738E-001	-2.7036618E+002
3	0	1.200214011679345E+003	2.5760627E-001	-2.7038385E+002
3	0	1.200714011666714E+003	2.5721273E-001	-2.7040155E+002
3	0	1.201214011654083E+003	2.5680625E-001	-2.7036972E+002
3	0	1.201714011641452E+003	2.5642690E-001	-2.7039093E+002
3	0	1.202214011628821E+003	2.5608048E-001	-2.7037326E+002
3	0	1.202714011616190E+003	2.5573215E-001	-2.7035205E+002
3	0	1.203214011603559E+003	2.5538248E-001	-2.7036267E+002
3	0	1.203714011590928E+003	2.5503632E-001	-2.7038385E+002
3	0	1.204214011578297E+003	2.5469241E-001	-2.7039801E+002
3	0	1.204714011565666E+003	2.5433958E-001	-2.7038031E+002
3	0	1.205214011553035E+003	2.5396645E-001	-2.7035913E+002
3	0	1.205714011540404E+003	2.5361937E-001	-2.7036618E+002
3	0	1.206214011527773E+003	2.5329855E-001	-2.7039447E+002
3	0	1.206714011515141E+003	2.5298363E-001	-2.7038031E+002
3	0	1.207214011502510E+003	2.5266507E-001	-2.7036972E+002
3	0	1.207714011489879E+003	2.5235164E-001	-2.7038385E+002
3	0	1.208214011477248E+003	2.5202689E-001	-2.7036972E+002
3	0	1.208714011464617E+003	2.5169277E-001	-2.7039093E+002
3	0	1.209214011451986E+003	2.5134629E-001	-2.7036267E+002
3	0	1.209714011439355E+003	2.5102711E-001	-2.7037677E+002
3	0	1.210214011426724E+003	2.5073290E-001	-2.7038385E+002
3	0	1.210714011414093E+003	2.5044933E-001	-2.7037677E+002
3	0	1.211214011401462E+003	2.5015834E-001	-2.7039447E+002
3	0	1.211714011388831E+003	2.4987175E-001	-2.7038742E+002
3	0	1.212214011376200E+003	2.4958447E-001	-2.7039093E+002
3	0	1.212714011363569E+003	2.4927811E-001	-2.7038385E+002
3	0	1.213214011350938E+003	2.4895358E-001	-2.7035913E+002
3	0	1.213714011338307E+003	2.4865697E-001	-2.7039093E+002
3	0	1.214214011325676E+003	2.4838775E-001	-2.7039801E+002
3	0	1.214714011313044E+003	2.4812706E-001	-2.7038742E+002
3	0	1.215214011300413E+003	2.4785820E-001	-2.7036618E+002
3	0	1.215714011287782E+003	2.4759789E-001	-2.7038385E+002
3	0	1.216214011275151E+003	2.4732691E-001	-2.7034497E+002
3	0	1.216714011262520E+003	2.4704598E-001	-2.7036618E+002
3	0	1.217214011249889E+003	2.4674673E-001	-2.7034851E+002
3	0	1.217714011237258E+003	2.4647708E-001	-2.7037326E+002
3	0	1.218214011224627E+003	2.4623285E-001	-2.7033084E+002
3	0	1.218714011211996E+003	2.4599867E-001	-2.7039801E+002
3	0	1.219214011199365E+003	2.4575800E-001	-2.7038385E+002
3	0	1.219714011186734E+003	2.4551685E-001	-2.7038385E+002
3	0	1.220214011174103E+003	2.4527301E-001	-2.7037326E+002
3	0	1.220714011161472E+003	2.4500892E-001	-2.7038385E+002
3	0	1.221214011148841E+003	2.4472889E-001	-2.7037326E+002
3	0	1.221714011136210E+003	2.4447642E-001	-2.7038385E+002
3	0	1.222214011123579E+003	2.4425672E-001	-2.7038385E+002
3	0	1.222714011110947E+003	2.4403284E-001	-2.7036267E+002
3	0	1.223214011098316E+003	2.4380995E-001	-2.7035205E+002
3	0	1.223714011085685E+003	2.4359094E-001	-2.7037677E+002
3	0	1.224214011073054E+003	2.4336393E-001	-2.7037326E+002
3	0	1.224714011060423E+003	2.4312457E-001	-2.7037326E+002
3	0	1.225214011047792E+003	2.4286766E-001	-2.7038742E+002
3	0	1.225714011035161E+003	2.4263725E-001	-2.7036267E+002
3	0	1.226214011022530E+003	2.4243219E-001	-2.7039093E+002
3	0	1.226714011009899E+003	2.4222939E-001	-2.7038385E+002
3	0	1.227214010997268E+003	2.4203199E-001	-2.7036267E+002
3	0	1.227714010984637E+003	2.4183224E-001	-2.7035913E+002
3	0	1.228214010972006E+003	2.4163277E-001	-2.7038031E+002
3	0	1.228714010959375E+003	2.4141410E-001	-2.7037326E+002
3	0	1.229214010946744E+003	2.4117613E-001	-2.7038385E+002
3	0	1.229714010934113E+003	2.4096437E-001	-2.7037677E+002
3	0	1.230214010921482E+003	2.4078314E-001	-2.7039801E+002
3	0	1.230714010908850E+003	2.4060214E-001	-2.7035559E+002
3	0	1.231214010896219E+003	2.4041623E-001	-2.7038385E+002
3	0	1.231714010883588E+003	2.4023427E-001	-2.7038742E+002
3	0	1.232214010870957E+003	2.4005343E-001	-2.7038031E+002
3	0	1.232714010858326E+003	2.3984867E-001	-2.7038031E+002
3	0	1.233214010845695E+003	2.3962680E-001	-2.7036972E+002
3	0	1.233714010833064E+003	2.3942164E-001	-2.7036972E+002
3	0	1.234214010820433E+003	2.3925970E-001	-2.7039093E+002
3	0	1.234714010807802E+003	2.3909217E-001	-2.7038385E+002
3	0	1.235214010795171E+003	2.3892650E-001	-2.7036267E+002
3	0	1.235714010782540E+003	2.3876195E-001	-2.7039093E+002
3	0	1.236214010769909E+003	2.3857957E-001	-2.7037326E+002
3	0	1.236714010757278E+003	2.3838951E-001	-2.7038385E+002
3	0	1.237214010744647E+003	2.3818563E-001	-2.7038385E+002
3	0	1.237714010732016E+003	2.3800209E-001	-2.7038031E+002
3	0	1.238214010719385E+003	2.3785126E-001	-2.7036618E+002
3	0	1.238714010706753E+003	2.3770171E-001	-2.7037677E+002
3	0	1.239214010694122E+003	2.3754266E-001	-2.7036972E+002
3	0	1.239714010681491E+003	2.3738827E-001	-2.7035559E+002
3	0	1.240214010668860E+003	2.3723449E-001	-2.7038031E+002
3	0	1.240714010656229E+003	2.3706159E-001	-2.7040860E+002
3	0	1.241214010643598E+003	2.3686774E-001	-2.7040506E+002
3	0	1.241714010630967E+003	2.3670067E-001	-2.7034143E+002
3	0	1.242214010618336E+003	2.3656207E-001	-2.7035913E+002
3	0	1.242714010605705E+003	2.3642306E-001	-2.7039093E+002
3	0	1.243214010593074E+003	2.3627542E-001	-2.7036618E+002
3	0	1.243714010580443E+003	2.3612952E-001	-2.7038385E+002
3	0	1.244214010567812E+003	2.3598315E-001	-2.7041919E+002
3	0	1.244714010555181E+003	2.3582064E-001	-2.7039447E+002
3	0	1.245214010542550E+003	2.3564678E-001	-2.7036972E+002
3	0	1.245714010529919E+003	2.3548770E-001	-2.7037326E+002
3	0	1.246214010517288E+003	2.3537049E-001	-2.7040155E+002
3	0	1.246714010504656E+003	2.3524591E-001	-2.7037326E+002
3	0	1.247214010492025E+003	2.3511922E-001	-2.7037677E+002
3	0	1.247714010479394E+003	2.3499268E-001	-2.7038385E+002
3	0	1.248214010466763E+003	2.3485638E-001	-2.7037677E+002
3	0	1.248714010454132E+003	2.3470944E-001	-2.7037677E+002
3	0	1.249214010441501E+003	2.3454221E-001	-2.7038385E+002
3	0	1.249714010428870E+003	2.3439613E-001	-2.7038031E+002
3	0	1.250214010416239E+003	2.3428805E-001	-2.7035205E+002
3	0	1.250714010403608E+003	2.3418041E-001	-2.7038742E+002
3	0	1.251214010390977E+003	2.3405902E-001	-2.7036972E+002
3	0	1.251714010378346E+003	2.3393902E-001	-2.7039447E+002
3	0	1.252214010365715E+003	2.3381954E-001	-2.7037326E+002
3	0	1.252238610365093E+003	2.3374155E-001	-2.7036618E+002