EC-Lab ASCII FILE
Nb header lines : 48                          

Open Circuit Voltage

Run on channel : 1 (SN 81504)
User : 
CE vs. WE compliance from -10 V to 10 V
Electrode connection : standard
Potential control : Ewe
Ewe ctrl range : min = -2.50 V, max = 2.50 V
Safety Limits :
	Do not start on E overload
Acquisition started on : 05/07/2026 20:50:15.926
Loaded Setting File :  C:\PEM-WE_measurements\2026\372_IV_IV IrOx, 5 min Pt, 30 min C, etched cathode\new station\Loopeis new\1,46 V different time gaps open cell\Loopeis 1,46V_120s_2_PEIS from 65kHz to 10kHz.mps
Saved on :
	File : L_22_Loopeis 1,46V_120s_2_PEIS from 65kHz to 10kHz_18_OCV_C01.mpr
	Directory : C:\PEM-WE_measurements\2026\372_IV_IV IrOx, 5 min Pt, 30 min C, etched cathode\new station\Loopeis new\1,46 V different time gaps open cell\
	Host : 192.168.0.2
Device : SP-150e (SN .005491)
Address : 192.168.0.91
EC-LAB for windows v11.71 (software)
Internet server v28.00 (firmware)
Command interpretor v14.01 (firmware)
Electrode material : 
Initial state : 
Electrolyte : 
Comments : 
Current amplifier : SP-150eB-20A
Electrode surface area : 0.001 cm²
Characteristic mass : 0.001 g
Equivalent Weight : 0.000 g/eq.
Density : 0.000 g/cm3
Volume (V) : 0.001 cm³
Record Analogic IN 1
Text export
   Mode : Standard
   Time format : Elapsed
Cycle Definition : Charge/Discharge alternance
tR (h:m:s)          0:02:0.0000         
dER/dt (mV/h)       1.0                 
record              <Ewe>               
dER (mV)            10.00               
dtR (s)             0.5000              
E range min (V)     -2.500              
E range max (V)     2.500               

mode	error	time/s	<Ewe/V>	Analog IN 1/V	
3	0	1.367450978693450E+003	1.2313995E+000	-3.4306191E-005
3	0	1.367950978680819E+003	1.1919558E+000	-1.5220648E-005
3	0	1.368450978668188E+003	9.1504604E-001	3.8648941E-006
3	0	1.368950978655557E+003	4.6281946E-001	-5.3391734E-005
3	0	1.369450978642926E+003	3.4863544E-001	-1.5220648E-005
3	0	1.369950978630295E+003	3.3348581E-001	4.2035979E-005
3	0	1.370450978617664E+003	3.2539740E-001	-1.1064836E-004
3	0	1.370950978605033E+003	3.1892204E-001	-5.3391734E-005
3	0	1.371450978592402E+003	3.1398314E-001	-1.2973390E-004
3	0	1.371950978579771E+003	3.1021163E-001	6.1121522E-005
3	0	1.372450978567140E+003	3.0725464E-001	-7.2477276E-005
3	0	1.372950978554509E+003	3.0487359E-001	-9.1562819E-005
3	0	1.373450978541878E+003	3.0291039E-001	-7.2477276E-005
3	0	1.373950978529247E+003	3.0124003E-001	-9.1562819E-005
3	0	1.374450978516616E+003	2.9978386E-001	2.2950437E-005
3	0	1.374950978503985E+003	2.9850331E-001	-1.8699054E-004
3	0	1.375450978491353E+003	2.9738301E-001	-5.3391734E-005
3	0	1.375950978478722E+003	2.9637209E-001	-1.2973390E-004
3	0	1.376450978466091E+003	2.9543936E-001	-1.5220648E-005
3	0	1.376950978453460E+003	2.9457968E-001	-9.1562819E-005
3	0	1.377450978440829E+003	2.9376721E-001	-5.3391734E-005
3	0	1.377950978428198E+003	2.9299659E-001	1.5654923E-004
3	0	1.378450978415567E+003	2.9223129E-001	3.8648941E-006
3	0	1.378950978402936E+003	2.9148954E-001	-3.4306191E-005
3	0	1.379450978390305E+003	2.9080969E-001	2.2950437E-005
3	0	1.379950978377674E+003	2.9016221E-001	4.2035979E-005
3	0	1.380450978365043E+003	2.8953236E-001	-7.2477276E-005
3	0	1.380950978352412E+003	2.8891581E-001	-7.2477276E-005
3	0	1.381450978339781E+003	2.8831062E-001	-1.2973390E-004
3	0	1.381950978327150E+003	2.8770387E-001	-1.5220648E-005
3	0	1.382450978314519E+003	2.8708929E-001	-5.3391734E-005
3	0	1.382950978301888E+003	2.8647646E-001	-3.4306191E-005
3	0	1.383450978289256E+003	2.8591132E-001	-5.3391734E-005
3	0	1.383950978276625E+003	2.8535908E-001	-1.2973390E-004
3	0	1.384450978263994E+003	2.8481218E-001	6.1121522E-005
3	0	1.384950978251363E+003	2.8427500E-001	-9.1562819E-005
3	0	1.385450978238732E+003	2.8373858E-001	-1.5220648E-005
3	0	1.385950978226101E+003	2.8319758E-001	-5.3391734E-005
3	0	1.386450978213470E+003	2.8263962E-001	-7.2477276E-005
3	0	1.386950978200839E+003	2.8209546E-001	1.3746369E-004
3	0	1.387450978188208E+003	2.8158170E-001	-1.4881945E-004
3	0	1.387950978175577E+003	2.8107658E-001	-1.2973390E-004
3	0	1.388450978162946E+003	2.8058222E-001	-1.1064836E-004
3	0	1.388950978150315E+003	2.8008264E-001	3.8648941E-006
3	0	1.389450978137684E+003	2.7959371E-001	-1.8699054E-004
3	0	1.389950978125053E+003	2.7910131E-001	4.2035979E-005
3	0	1.390450978112422E+003	2.7859074E-001	-3.4306191E-005
3	0	1.390950978099791E+003	2.7808017E-001	-1.2973390E-004
3	0	1.391450978087159E+003	2.7761200E-001	-3.4306191E-005
3	0	1.391950978074528E+003	2.7715349E-001	-1.2973390E-004
3	0	1.392450978061897E+003	2.7669853E-001	-7.2477276E-005
3	0	1.392950978049266E+003	2.7623668E-001	9.9292607E-005
3	0	1.393450978036635E+003	2.7578625E-001	-1.5220648E-005
3	0	1.393950978024004E+003	2.7532014E-001	-7.2477276E-005
3	0	1.394450978011373E+003	2.7485293E-001	-5.3391734E-005
3	0	1.394950977998742E+003	2.7438682E-001	8.0207064E-005
3	0	1.395450977986111E+003	2.7395815E-001	2.2950437E-005
3	0	1.395950977973480E+003	2.7354074E-001	4.2035979E-005
3	0	1.396450977960849E+003	2.7311930E-001	-1.2973390E-004
3	0	1.396950977948218E+003	2.7269828E-001	-9.1562819E-005
3	0	1.397450977935587E+003	2.7228588E-001	-3.4306191E-005
3	0	1.397950977922956E+003	2.7186164E-001	-9.1562819E-005
3	0	1.398450977910325E+003	2.7141869E-001	-3.4306191E-005
3	0	1.398950977897694E+003	2.7098280E-001	-3.4306191E-005
3	0	1.399450977885062E+003	2.7058697E-001	-9.1562819E-005
3	0	1.399950977872431E+003	2.7019319E-001	-7.2477276E-005
3	0	1.400450977859800E+003	2.6980540E-001	-5.3391734E-005
3	0	1.400950977847169E+003	2.6942313E-001	-5.3391734E-005
3	0	1.401450977834538E+003	2.6904210E-001	-1.2973390E-004
3	0	1.401950977821907E+003	2.6864690E-001	-3.4306191E-005
3	0	1.402450977809276E+003	2.6824054E-001	3.8648941E-006
3	0	1.402950977796645E+003	2.6783612E-001	2.2950437E-005
3	0	1.403450977784014E+003	2.6747003E-001	-1.5220648E-005
3	0	1.403950977771383E+003	2.6711926E-001	-1.4881945E-004
3	0	1.404450977758752E+003	2.6675755E-001	3.8648941E-006
3	0	1.404950977746121E+003	2.6639542E-001	-1.5220648E-005
3	0	1.405450977733490E+003	2.6604125E-001	-1.5220648E-005
3	0	1.405950977720859E+003	2.6568398E-001	-3.4306191E-005
3	0	1.406450977708228E+003	2.6529807E-001	-7.2477276E-005
3	0	1.406950977695597E+003	2.6491657E-001	-1.4881945E-004
3	0	1.407450977682965E+003	2.6458821E-001	2.2950437E-005
3	0	1.407950977670334E+003	2.6426315E-001	3.8648941E-006
3	0	1.408450977657703E+003	2.6393494E-001	6.1121522E-005
3	0	1.408950977645072E+003	2.6360476E-001	-1.2973390E-004
3	0	1.409450977632441E+003	2.6328373E-001	8.0207064E-005
3	0	1.409950977619810E+003	2.6294795E-001	3.8648941E-006
3	0	1.410450977607179E+003	2.6259387E-001	2.1380586E-004
3	0	1.410950977594548E+003	2.6224235E-001	-1.1064836E-004
3	0	1.411450977581917E+003	2.6193935E-001	2.2950437E-005
3	0	1.411950977569286E+003	2.6163891E-001	3.8648941E-006
3	0	1.412450977556655E+003	2.6133457E-001	-9.1562819E-005
3	0	1.412950977544024E+003	2.6103982E-001	3.8648941E-006
3	0	1.413450977531393E+003	2.6074538E-001	-1.5220648E-005
3	0	1.413950977518762E+003	2.6044357E-001	-1.5220648E-005
3	0	1.414450977506131E+003	2.6011848E-001	-3.4306191E-005
3	0	1.414950977493500E+003	2.5980306E-001	-1.5220648E-005
3	0	1.415450977480868E+003	2.5952560E-001	-1.2973390E-004
3	0	1.415950977468237E+003	2.5925595E-001	4.2035979E-005
3	0	1.416450977455606E+003	2.5898963E-001	-5.3391734E-005
3	0	1.416950977442975E+003	2.5872061E-001	1.5654923E-004
3	0	1.417450977430344E+003	2.5844947E-001	-1.5220648E-005
3	0	1.417950977417713E+003	2.5816882E-001	4.2035979E-005
3	0	1.418450977405082E+003	2.5787383E-001	-3.4306191E-005
3	0	1.418950977392451E+003	2.5758019E-001	-5.3391734E-005
3	0	1.419450977379820E+003	2.5732231E-001	-9.1562819E-005
3	0	1.419950977367189E+003	2.5707731E-001	-7.2477276E-005
3	0	1.420450977354558E+003	2.5683561E-001	-1.1064836E-004
3	0	1.420950977341927E+003	2.5658745E-001	-7.2477276E-005
3	0	1.421450977329296E+003	2.5634310E-001	-3.4306191E-005
3	0	1.421950977316665E+003	2.5608903E-001	-3.4306191E-005
3	0	1.422450977304034E+003	2.5581059E-001	-1.1064836E-004
3	0	1.422950977291403E+003	2.5554320E-001	-7.2477276E-005
3	0	1.423450977278771E+003	2.5531057E-001	2.2950437E-005
3	0	1.423950977266140E+003	2.5508481E-001	4.2035979E-005
3	0	1.424450977253509E+003	2.5486630E-001	-2.4424717E-004
3	0	1.424950977240878E+003	2.5464192E-001	-7.2477276E-005
3	0	1.425450977228247E+003	2.5442481E-001	-1.1064836E-004
3	0	1.425950977215616E+003	2.5419825E-001	-7.2477276E-005
3	0	1.426450977202985E+003	2.5393614E-001	-1.5220648E-005
3	0	1.426950977190354E+003	2.5368831E-001	-1.1064836E-004
3	0	1.427450977177723E+003	2.5347385E-001	3.8648941E-006
3	0	1.427950977165092E+003	2.5326192E-001	4.2035979E-005
3	0	1.428450977152461E+003	2.5305498E-001	-5.3391734E-005
3	0	1.428950977139830E+003	2.5284791E-001	-5.3391734E-005
3	0	1.429450977127199E+003	2.5263810E-001	-9.1562819E-005
3	0	1.429950977114568E+003	2.5242162E-001	-1.2973390E-004
3	0	1.430450977101937E+003	2.5217953E-001	-1.6790499E-004
3	0	1.430950977089306E+003	2.5194690E-001	-1.5220648E-005
3	0	1.431450977076674E+003	2.5175345E-001	-1.1064836E-004
3	0	1.431950977064043E+003	2.5157052E-001	3.8648941E-006
3	0	1.432450977051412E+003	2.5138229E-001	-5.3391734E-005
3	0	1.432950977038781E+003	2.5119990E-001	3.8648941E-006
3	0	1.433450977026150E+003	2.5101256E-001	-3.4306191E-005
3	0	1.433950977013519E+003	2.5081363E-001	4.2035979E-005
3	0	1.434450977000888E+003	2.5059098E-001	-1.2973390E-004
3	0	1.434950976988257E+003	2.5037572E-001	3.8648941E-006
3	0	1.435450976975626E+003	2.5020149E-001	2.2950437E-005
3	0	1.435950976962995E+003	2.5003341E-001	2.2950437E-005
3	0	1.436450976950364E+003	2.4986593E-001	8.0207064E-005
3	0	1.436950976937733E+003	2.4969549E-001	-3.4306191E-005
3	0	1.437450976925102E+003	2.4952379E-001	-1.5220648E-005
3	0	1.437950976912471E+003	2.4934301E-001	-1.5220648E-005
3	0	1.438450976899840E+003	2.4914254E-001	2.2950437E-005
3	0	1.438950976887209E+003	2.4893802E-001	1.1837815E-004
3	0	1.439450976874577E+003	2.4877967E-001	-1.2973390E-004
3	0	1.439950976861946E+003	2.4862769E-001	-1.1064836E-004
3	0	1.440450976849315E+003	2.4846779E-001	3.8648941E-006
3	0	1.440950976836684E+003	2.4830231E-001	-1.2973390E-004
3	0	1.441450976824053E+003	2.4814220E-001	3.8648941E-006
3	0	1.441950976811422E+003	2.4797335E-001	3.8648941E-006
3	0	1.442450976798791E+003	2.4777955E-001	-1.5220648E-005
3	0	1.442950976786160E+003	2.4757855E-001	-7.2477276E-005
3	0	1.443450976773529E+003	2.4742901E-001	-5.3391734E-005
3	0	1.443950976760898E+003	2.4728125E-001	9.9292607E-005
3	0	1.444450976748267E+003	2.4713469E-001	9.9292607E-005
3	0	1.444950976735636E+003	2.4698702E-001	4.2035979E-005
3	0	1.445450976723005E+003	2.4683568E-001	-3.4306191E-005
3	0	1.445950976710374E+003	2.4667759E-001	-7.2477276E-005
3	0	1.446450976697743E+003	2.4648874E-001	-5.3391734E-005
3	0	1.446950976685112E+003	2.4631378E-001	-1.4881945E-004
3	0	1.447450976672480E+003	2.4616832E-001	3.8648941E-006
3	0	1.447950976659849E+003	2.4603117E-001	-1.5220648E-005
3	0	1.448450976647218E+003	2.4589449E-001	-1.1064836E-004
3	0	1.448950976634587E+003	2.4575208E-001	-7.2477276E-005
3	0	1.449450976621956E+003	2.4561447E-001	-9.1562819E-005
3	0	1.449950976609325E+003	2.4545804E-001	-1.5220648E-005
3	0	1.450450976596694E+003	2.4528444E-001	-9.1562819E-005
3	0	1.450950976584063E+003	2.4510823E-001	-1.5220648E-005
3	0	1.451450976571432E+003	2.4498309E-001	-3.4306191E-005
3	0	1.451950976558801E+003	2.4485566E-001	-7.2477276E-005
3	0	1.452450976546170E+003	2.4472725E-001	-3.4306191E-005
3	0	1.452950976533539E+003	2.4459894E-001	4.2035979E-005
3	0	1.453450976520908E+003	2.4447562E-001	-5.3391734E-005
3	0	1.453950976508277E+003	2.4433327E-001	-1.4881945E-004
3	0	1.454450976495646E+003	2.4417081E-001	4.2035979E-005
3	0	1.454950976483015E+003	2.4400954E-001	-7.2477276E-005
3	0	1.455450976470383E+003	2.4389444E-001	-1.1064836E-004
3	0	1.455950976457752E+003	2.4378189E-001	4.2035979E-005
3	0	1.456450976445121E+003	2.4366830E-001	-7.2477276E-005
3	0	1.456950976432490E+003	2.4354881E-001	2.2950437E-005
3	0	1.457450976419859E+003	2.4343435E-001	-3.4306191E-005
3	0	1.457950976407228E+003	2.4330451E-001	8.0207064E-005
3	0	1.458450976394597E+003	2.4315509E-001	-1.4881945E-004
3	0	1.458950976381966E+003	2.4300393E-001	-1.1064836E-004
3	0	1.459450976369335E+003	2.4289823E-001	-5.3391734E-005
3	0	1.459950976356704E+003	2.4279425E-001	-1.1064836E-004
3	0	1.460450976344073E+003	2.4268560E-001	-5.3391734E-005
3	0	1.460950976331442E+003	2.4257943E-001	-5.3391734E-005
3	0	1.461450976318811E+003	2.4246956E-001	-1.1064836E-004
3	0	1.461950976306180E+003	2.4234444E-001	-9.1562819E-005
3	0	1.462450976293549E+003	2.4219652E-001	2.2950437E-005
3	0	1.462950976280918E+003	2.4205248E-001	-1.5220648E-005
3	0	1.463450976268286E+003	2.4195145E-001	-9.1562819E-005
3	0	1.463950976255655E+003	2.4185541E-001	-1.5220648E-005
3	0	1.464450976243024E+003	2.4175553E-001	-3.4306191E-005
3	0	1.464950976230393E+003	2.4165477E-001	-1.2973390E-004
3	0	1.465450976217762E+003	2.4155423E-001	-1.2973390E-004
3	0	1.465950976205131E+003	2.4143869E-001	-1.1064836E-004
3	0	1.466450976192500E+003	2.4130102E-001	8.0207064E-005
3	0	1.466950976179869E+003	2.4115559E-001	-9.1562819E-005
3	0	1.467450976167238E+003	2.4105890E-001	2.2950437E-005
3	0	1.467950976154607E+003	2.4096449E-001	3.8648941E-006
3	0	1.468450976141976E+003	2.4087404E-001	-3.4306191E-005
3	0	1.468950976129345E+003	2.4077694E-001	-1.6790499E-004
3	0	1.469450976116714E+003	2.4068043E-001	-1.6790499E-004
3	0	1.469950976104083E+003	2.4056584E-001	-9.1562819E-005
3	0	1.470450976091452E+003	2.4042816E-001	-1.2973390E-004
3	0	1.470950976078821E+003	2.4028917E-001	4.2035979E-005
3	0	1.471450976066189E+003	2.4020152E-001	2.2950437E-005
3	0	1.471950976053558E+003	2.4011397E-001	-9.1562819E-005
3	0	1.472450976040927E+003	2.4002667E-001	-1.5220648E-005
3	0	1.472950976028296E+003	2.3993436E-001	-3.4306191E-005
3	0	1.473450976015665E+003	2.3984666E-001	-1.2973390E-004
3	0	1.473950976003034E+003	2.3974921E-001	-3.4306191E-005
3	0	1.474450975990403E+003	2.3962310E-001	-7.2477276E-005
3	0	1.474950975977772E+003	2.3949562E-001	-7.2477276E-005
3	0	1.475450975965141E+003	2.3940881E-001	3.8648941E-006
3	0	1.475950975952510E+003	2.3931947E-001	-5.3391734E-005
3	0	1.476450975939879E+003	2.3923163E-001	-9.1562819E-005
3	0	1.476950975927248E+003	2.3914178E-001	3.8648941E-006
3	0	1.477450975914617E+003	2.3905362E-001	-1.2973390E-004
3	0	1.477950975901986E+003	2.3896210E-001	-7.2477276E-005
3	0	1.478450975889355E+003	2.3884073E-001	-5.3391734E-005
3	0	1.478950975876724E+003	2.3872377E-001	-1.5220648E-005
3	0	1.479450975864092E+003	2.3864473E-001	-1.1064836E-004
3	0	1.479950975851461E+003	2.3857147E-001	-1.1064836E-004
3	0	1.480450975838830E+003	2.3849520E-001	-7.2477276E-005
3	0	1.480950975826199E+003	2.3841944E-001	3.8648941E-006
3	0	1.481450975813568E+003	2.3833489E-001	-1.2973390E-004
3	0	1.481950975800937E+003	2.3824853E-001	3.8648941E-006
3	0	1.482450975788306E+003	2.3813117E-001	1.7563478E-004
3	0	1.482950975775675E+003	2.3802283E-001	6.1121522E-005
3	0	1.483450975763044E+003	2.3794869E-001	2.2950437E-005
3	0	1.483950975750413E+003	2.3787564E-001	-1.2973390E-004
3	0	1.484450975737782E+003	2.3780420E-001	-1.5220648E-005
3	0	1.484950975725151E+003	2.3773123E-001	-1.1064836E-004
3	0	1.485450975712520E+003	2.3765685E-001	-5.3391734E-005
3	0	1.485950975699889E+003	2.3756991E-001	-7.2477276E-005
3	0	1.486450975687258E+003	2.3745511E-001	-3.4306191E-005
3	0	1.486950975674627E+003	2.3734184E-001	3.8648941E-006
3	0	1.486951375674616E+003	2.3734424E-001	-2.4424717E-004