EC-Lab ASCII FILE
Nb header lines : 48                          

Open Circuit Voltage

Run on channel : 1 (SN 81504)
User : 
CE vs. WE compliance from -10 V to 10 V
Electrode connection : standard
Potential control : Ewe
Ewe ctrl range : min = -2.50 V, max = 2.50 V
Safety Limits :
	Do not start on E overload
Acquisition started on : 05/07/2026 20:50:15.926
Loaded Setting File :  C:\PEM-WE_measurements\2026\372_IV_IV IrOx, 5 min Pt, 30 min C, etched cathode\new station\Loopeis new\1,46 V different time gaps open cell\Loopeis 1,46V_120s_2_PEIS from 65kHz to 10kHz.mps
Saved on :
	File : L_22_Loopeis 1,46V_120s_2_PEIS from 65kHz to 10kHz_06_OCV_C01.mpr
	Directory : C:\PEM-WE_measurements\2026\372_IV_IV IrOx, 5 min Pt, 30 min C, etched cathode\new station\Loopeis new\1,46 V different time gaps open cell\
	Host : 192.168.0.2
Device : SP-150e (SN .005491)
Address : 192.168.0.91
EC-LAB for windows v11.71 (software)
Internet server v28.00 (firmware)
Command interpretor v14.01 (firmware)
Electrode material : 
Initial state : 
Electrolyte : 
Comments : 
Current amplifier : SP-150eB-20A
Electrode surface area : 0.001 cm²
Characteristic mass : 0.001 g
Equivalent Weight : 0.000 g/eq.
Density : 0.000 g/cm3
Volume (V) : 0.001 cm³
Record Analogic IN 1
Text export
   Mode : Standard
   Time format : Elapsed
Cycle Definition : Charge/Discharge alternance
tR (h:m:s)          0:02:0.0000         
dER/dt (mV/h)       1.0                 
record              <Ewe>               
dER (mV)            10.00               
dtR (s)             0.5000              
E range min (V)     -2.500              
E range max (V)     2.500               

mode	error	time/s	<Ewe/V>	Analog IN 1/V	
3	0	3.760625938148587E+002	1.2396417E+000	3.8648941E-006
3	0	3.765625938022276E+002	1.2069992E+000	3.8648941E-006
3	0	3.770625937895966E+002	1.0037937E+000	-9.1562819E-005
3	0	3.775625937769655E+002	5.1637876E-001	-3.4306191E-005
3	0	3.780625937643345E+002	3.5500523E-001	-3.4306191E-005
3	0	3.785625937517034E+002	3.3371162E-001	-9.1562819E-005
3	0	3.790625937390723E+002	3.2532746E-001	3.8648941E-006
3	0	3.795625937264413E+002	3.1850493E-001	-1.1064836E-004
3	0	3.800625937138102E+002	3.1325817E-001	-9.1562819E-005
3	0	3.805625937011791E+002	3.0926463E-001	-7.2477276E-005
3	0	3.810625936885481E+002	3.0616638E-001	-1.5220648E-005
3	0	3.815625936759170E+002	3.0369744E-001	-3.4306191E-005
3	0	3.820625936632860E+002	3.0168104E-001	-7.2477276E-005
3	0	3.825625936506549E+002	2.9997525E-001	-9.1562819E-005
3	0	3.830625936380238E+002	2.9850158E-001	2.2950437E-005
3	0	3.835625936253928E+002	2.9718798E-001	-1.1064836E-004
3	0	3.840625936127617E+002	2.9604715E-001	2.2950437E-005
3	0	3.845625936001306E+002	2.9503551E-001	6.1121522E-005
3	0	3.850625935874996E+002	2.9410979E-001	3.8648941E-006
3	0	3.855625935748685E+002	2.9324794E-001	-9.1562819E-005
3	0	3.860625935622375E+002	2.9244238E-001	-9.1562819E-005
3	0	3.865625935496064E+002	2.9166943E-001	3.8648941E-006
3	0	3.870625935369753E+002	2.9090190E-001	-3.4306191E-005
3	0	3.875625935243443E+002	2.9015985E-001	2.2950437E-005
3	0	3.880625935117132E+002	2.8947198E-001	-1.5220648E-005
3	0	3.885625934990821E+002	2.8882533E-001	-1.4881945E-004
3	0	3.890625934864511E+002	2.8819579E-001	-7.2477276E-005
3	0	3.895625934738200E+002	2.8757179E-001	9.9292607E-005
3	0	3.900625934611890E+002	2.8696632E-001	-7.2477276E-005
3	0	3.905625934485579E+002	2.8635797E-001	-3.4306191E-005
3	0	3.910625934359268E+002	2.8573826E-001	-3.4306191E-005
3	0	3.915625934232958E+002	2.8511694E-001	-3.4306191E-005
3	0	3.920625934106647E+002	2.8453410E-001	6.1121522E-005
3	0	3.925625933980336E+002	2.8398061E-001	6.1121522E-005
3	0	3.930625933854026E+002	2.8342980E-001	-3.4306191E-005
3	0	3.935625933727715E+002	2.8288367E-001	8.0207064E-005
3	0	3.940625933601405E+002	2.8235060E-001	-1.4881945E-004
3	0	3.945625933475094E+002	2.8181162E-001	6.1121522E-005
3	0	3.950625933348783E+002	2.8125009E-001	-7.2477276E-005
3	0	3.955625933222473E+002	2.8069305E-001	-5.3391734E-005
3	0	3.960625933096162E+002	2.8016725E-001	-7.2477276E-005
3	0	3.965625932969851E+002	2.7966830E-001	3.8648941E-006
3	0	3.970625932843541E+002	2.7916551E-001	9.9292607E-005
3	0	3.975625932717230E+002	2.7866489E-001	-5.3391734E-005
3	0	3.980625932590920E+002	2.7816743E-001	-1.5220648E-005
3	0	3.985625932464609E+002	2.7765590E-001	-5.3391734E-005
3	0	3.990625932338298E+002	2.7713981E-001	-1.5220648E-005
3	0	3.995625932211988E+002	2.7661520E-001	-1.1064836E-004
3	0	4.000625932085677E+002	2.7612755E-001	-3.4306191E-005
3	0	4.005625931959366E+002	2.7565366E-001	-3.4306191E-005
3	0	4.010625931833056E+002	2.7518389E-001	-1.1064836E-004
3	0	4.015625931706745E+002	2.7472368E-001	-1.1064836E-004
3	0	4.020625931580435E+002	2.7427003E-001	3.8648941E-006
3	0	4.025625931454124E+002	2.7379933E-001	-1.5220648E-005
3	0	4.030625931327813E+002	2.7331132E-001	-1.1064836E-004
3	0	4.035625931201503E+002	2.7281868E-001	3.8648941E-006
3	0	4.040625931075192E+002	2.7236724E-001	-7.2477276E-005
3	0	4.045625930948881E+002	2.7193856E-001	-1.4881945E-004
3	0	4.050625930822571E+002	2.7149689E-001	-9.1562819E-005
3	0	4.055625930696260E+002	2.7106887E-001	-1.5220648E-005
3	0	4.060625930569950E+002	2.7064392E-001	-5.3391734E-005
3	0	4.065625930443639E+002	2.7020520E-001	-5.3391734E-005
3	0	4.070625930317328E+002	2.6976615E-001	6.1121522E-005
3	0	4.075625930191018E+002	2.6931784E-001	-3.4306191E-005
3	0	4.080625930064707E+002	2.6890293E-001	-5.3391734E-005
3	0	4.085625929938396E+002	2.6850811E-001	8.0207064E-005
3	0	4.090625929812086E+002	2.6810971E-001	-7.2477276E-005
3	0	4.095625929685775E+002	2.6770920E-001	-3.4306191E-005
3	0	4.100625929559465E+002	2.6731491E-001	-7.2477276E-005
3	0	4.105625929433154E+002	2.6691237E-001	-1.6790499E-004
3	0	4.110625929306843E+002	2.6649764E-001	3.8648941E-006
3	0	4.115625929180533E+002	2.6607355E-001	3.8648941E-006
3	0	4.120625929054222E+002	2.6568949E-001	2.2950437E-005
3	0	4.125625928927911E+002	2.6532292E-001	-1.5220648E-005
3	0	4.130625928801601E+002	2.6495016E-001	2.2950437E-005
3	0	4.135625928675290E+002	2.6459017E-001	-1.2973390E-004
3	0	4.140625928548980E+002	2.6422739E-001	4.2035979E-005
3	0	4.145625928422669E+002	2.6386213E-001	-5.3391734E-005
3	0	4.150625928296358E+002	2.6347488E-001	3.8648941E-006
3	0	4.155625928170048E+002	2.6308298E-001	8.0207064E-005
3	0	4.160625928043737E+002	2.6273456E-001	-1.2973390E-004
3	0	4.165625927917426E+002	2.6239413E-001	2.2950437E-005
3	0	4.170625927791116E+002	2.6206222E-001	-3.4306191E-005
3	0	4.175625927664805E+002	2.6172525E-001	-1.4881945E-004
3	0	4.180625927538495E+002	2.6138586E-001	3.8648941E-006
3	0	4.185625927412184E+002	2.6105082E-001	6.1121522E-005
3	0	4.190625927285873E+002	2.6069060E-001	-5.3391734E-005
3	0	4.195625927159563E+002	2.6033527E-001	2.2950437E-005
3	0	4.200625927033252E+002	2.6000643E-001	6.1121522E-005
3	0	4.205625926906941E+002	2.5970340E-001	8.0207064E-005
3	0	4.210625926780631E+002	2.5939897E-001	4.2035979E-005
3	0	4.215625926654320E+002	2.5909188E-001	3.8648941E-006
3	0	4.220625926528010E+002	2.5878361E-001	-7.2477276E-005
3	0	4.225625926401699E+002	2.5846887E-001	-9.1562819E-005
3	0	4.230625926275388E+002	2.5814119E-001	-5.3391734E-005
3	0	4.235625926149078E+002	2.5780639E-001	3.8648941E-006
3	0	4.240625926022767E+002	2.5750673E-001	-7.2477276E-005
3	0	4.245625925896456E+002	2.5722611E-001	3.8648941E-006
3	0	4.250625925770146E+002	2.5694099E-001	-7.2477276E-005
3	0	4.255625925643835E+002	2.5666413E-001	-7.2477276E-005
3	0	4.260625925517525E+002	2.5638771E-001	-9.1562819E-005
3	0	4.265625925391214E+002	2.5610688E-001	-3.4306191E-005
3	0	4.270625925264903E+002	2.5580573E-001	-1.2973390E-004
3	0	4.275625925138593E+002	2.5549927E-001	-1.2973390E-004
3	0	4.280625925012282E+002	2.5522494E-001	-1.1064836E-004
3	0	4.285625924885971E+002	2.5497359E-001	3.8648941E-006
3	0	4.290625924759661E+002	2.5472301E-001	-7.2477276E-005
3	0	4.295625924633350E+002	2.5447038E-001	2.2950437E-005
3	0	4.300625924507040E+002	2.5422436E-001	-1.1064836E-004
3	0	4.305625924380729E+002	2.5396600E-001	2.2950437E-005
3	0	4.310625924254418E+002	2.5369507E-001	-1.2973390E-004
3	0	4.315625924128108E+002	2.5340721E-001	-1.6790499E-004
3	0	4.320625924001797E+002	2.5316316E-001	-1.1064836E-004
3	0	4.325625923875486E+002	2.5293058E-001	-1.4881945E-004
3	0	4.330625923749176E+002	2.5270075E-001	2.2950437E-005
3	0	4.335625923622865E+002	2.5246781E-001	3.8648941E-006
3	0	4.340625923496555E+002	2.5223762E-001	-5.3391734E-005
3	0	4.345625923370244E+002	2.5199568E-001	-3.4306191E-005
3	0	4.350625923243933E+002	2.5174332E-001	-1.1064836E-004
3	0	4.355625923117623E+002	2.5147581E-001	4.2035979E-005
3	0	4.360625922991312E+002	2.5124842E-001	-1.1064836E-004
3	0	4.365625922865001E+002	2.5104102E-001	4.2035979E-005
3	0	4.370625922738691E+002	2.5083300E-001	6.1121522E-005
3	0	4.375625922612380E+002	2.5062141E-001	-1.4881945E-004
3	0	4.380625922486070E+002	2.5041223E-001	-1.1064836E-004
3	0	4.385625922359759E+002	2.5018996E-001	-1.5220648E-005
3	0	4.390625922233448E+002	2.4995302E-001	-1.8699054E-004
3	0	4.395625922107138E+002	2.4970353E-001	-7.2477276E-005
3	0	4.400625921980827E+002	2.4949752E-001	-5.3391734E-005
3	0	4.405625921854516E+002	2.4930878E-001	-9.1562819E-005
3	0	4.410625921728206E+002	2.4911921E-001	-7.2477276E-005
3	0	4.415625921601895E+002	2.4891822E-001	-7.2477276E-005
3	0	4.420625921475585E+002	2.4872652E-001	-5.3391734E-005
3	0	4.425625921349274E+002	2.4852176E-001	-1.1064836E-004
3	0	4.430625921222963E+002	2.4829681E-001	-1.2973390E-004
3	0	4.435625921096653E+002	2.4806170E-001	2.2950437E-005
3	0	4.440625920970342E+002	2.4787568E-001	-7.2477276E-005
3	0	4.445625920844032E+002	2.4769507E-001	3.8648941E-006
3	0	4.450625920717721E+002	2.4751800E-001	-1.2973390E-004
3	0	4.455625920591410E+002	2.4733849E-001	-3.4306191E-005
3	0	4.460625920465100E+002	2.4716017E-001	4.2035979E-005
3	0	4.465625920338789E+002	2.4696946E-001	3.8648941E-006
3	0	4.470625920212478E+002	2.4677318E-001	-1.5220648E-005
3	0	4.475625920086168E+002	2.4656224E-001	-1.4881945E-004
3	0	4.480625919959857E+002	2.4638690E-001	-1.5220648E-005
3	0	4.485625919833547E+002	2.4622388E-001	2.2950437E-005
3	0	4.490625919707236E+002	2.4605186E-001	1.9472031E-004
3	0	4.495625919580925E+002	2.4588630E-001	-3.4306191E-005
3	0	4.500625919454615E+002	2.4571769E-001	-3.4306191E-005
3	0	4.505625919328304E+002	2.4554498E-001	3.8648941E-006
3	0	4.510625919201993E+002	2.4534976E-001	2.2950437E-005
3	0	4.515625919075683E+002	2.4515353E-001	2.2950437E-005
3	0	4.520625918949372E+002	2.4499373E-001	-5.3391734E-005
3	0	4.525625918823062E+002	2.4484566E-001	-5.3391734E-005
3	0	4.530625918696751E+002	2.4469711E-001	-9.1562819E-005
3	0	4.535625918570440E+002	2.4454196E-001	4.2035979E-005
3	0	4.540625918444130E+002	2.4439634E-001	-3.4306191E-005
3	0	4.545625918317819E+002	2.4424274E-001	-7.2477276E-005
3	0	4.550625918191508E+002	2.4406524E-001	-9.1562819E-005
3	0	4.555625918065198E+002	2.4388278E-001	-5.3391734E-005
3	0	4.560625917938887E+002	2.4373563E-001	-3.4306191E-005
3	0	4.565625917812577E+002	2.4359933E-001	-5.3391734E-005
3	0	4.570625917686266E+002	2.4345863E-001	-1.5220648E-005
3	0	4.575625917559955E+002	2.4331783E-001	-3.4306191E-005
3	0	4.580625917433645E+002	2.4318103E-001	4.2035979E-005
3	0	4.585625917307334E+002	2.4304041E-001	1.1837815E-004
3	0	4.590625917181023E+002	2.4287306E-001	-5.3391734E-005
3	0	4.595625917054713E+002	2.4270228E-001	6.1121522E-005
3	0	4.600625916928402E+002	2.4256805E-001	-9.1562819E-005
3	0	4.605625916802092E+002	2.4244571E-001	-1.6790499E-004
3	0	4.610625916675781E+002	2.4231307E-001	-3.4306191E-005
3	0	4.615625916549470E+002	2.4218602E-001	3.8648941E-006
3	0	4.620625916423160E+002	2.4205844E-001	8.0207064E-005
3	0	4.625625916296849E+002	2.4192430E-001	3.8648941E-006
3	0	4.630625916170538E+002	2.4176157E-001	-1.5220648E-005
3	0	4.635625916044228E+002	2.4159552E-001	-9.1562819E-005
3	0	4.640625915917917E+002	2.4146818E-001	-7.2477276E-005
3	0	4.645625915791607E+002	2.4134661E-001	-1.6790499E-004
3	0	4.650625915665296E+002	2.4122006E-001	-7.2477276E-005
3	0	4.655625915538985E+002	2.4109665E-001	2.2950437E-005
3	0	4.660625915412675E+002	2.4097791E-001	-1.5220648E-005
3	0	4.665625915286364E+002	2.4084616E-001	-1.1064836E-004
3	0	4.670625915160053E+002	2.4070035E-001	-5.3391734E-005
3	0	4.675625915033743E+002	2.4054427E-001	2.2950437E-005
3	0	4.680625914907432E+002	2.4043001E-001	2.2950437E-005
3	0	4.685625914781122E+002	2.4032156E-001	-1.1064836E-004
3	0	4.690625914654811E+002	2.4021401E-001	-5.3391734E-005
3	0	4.695625914528500E+002	2.4010579E-001	6.1121522E-005
3	0	4.700625914402190E+002	2.4000093E-001	3.8648941E-006
3	0	4.705625914275879E+002	2.3988238E-001	-1.5220648E-005
3	0	4.710625914149568E+002	2.3974381E-001	2.2950437E-005
3	0	4.715625914023258E+002	2.3960248E-001	1.7563478E-004
3	0	4.720625913896947E+002	2.3949884E-001	-1.5220648E-005
3	0	4.725625913770637E+002	2.3940028E-001	6.1121522E-005
3	0	4.730625913644326E+002	2.3929359E-001	-1.5220648E-005
3	0	4.735625913518015E+002	2.3919527E-001	-5.3391734E-005
3	0	4.740625913391705E+002	2.3909357E-001	6.1121522E-005
3	0	4.745625913265394E+002	2.3898688E-001	6.1121522E-005
3	0	4.750625913139083E+002	2.3885116E-001	-1.8699054E-004
3	0	4.755625913012773E+002	2.3871176E-001	-5.3391734E-005
3	0	4.760625912886462E+002	2.3860733E-001	-3.4306191E-005
3	0	4.765625912760152E+002	2.3851368E-001	-1.2973390E-004
3	0	4.770625912633841E+002	2.3841661E-001	-1.4881945E-004
3	0	4.775625912507530E+002	2.3832174E-001	2.2950437E-005
3	0	4.780625912381220E+002	2.3822758E-001	-7.2477276E-005
3	0	4.785625912254909E+002	2.3812765E-001	4.2035979E-005
3	0	4.790625912128598E+002	2.3800248E-001	1.1837815E-004
3	0	4.795625912002288E+002	2.3786512E-001	8.0207064E-005
3	0	4.800625911875977E+002	2.3777674E-001	8.0207064E-005
3	0	4.805625911749667E+002	2.3768651E-001	2.2950437E-005
3	0	4.810625911623356E+002	2.3760274E-001	2.2950437E-005
3	0	4.815625911497045E+002	2.3750517E-001	-3.4306191E-005
3	0	4.820625911370735E+002	2.3741356E-001	8.0207064E-005
3	0	4.825625911244424E+002	2.3731045E-001	-1.5220648E-005
3	0	4.830625911118113E+002	2.3718654E-001	1.3746369E-004
3	0	4.835625910991803E+002	2.3705238E-001	-3.4306191E-005
3	0	4.840625910865492E+002	2.3696087E-001	-1.6790499E-004
3	0	4.845625910739182E+002	2.3687376E-001	6.1121522E-005
3	0	4.850625910612871E+002	2.3678790E-001	2.2950437E-005
3	0	4.855625910486560E+002	2.3669653E-001	-3.4306191E-005
3	0	4.860625910360250E+002	2.3661444E-001	-5.3391734E-005
3	0	4.865625910233939E+002	2.3652264E-001	2.2950437E-005
3	0	4.870625910107628E+002	2.3640180E-001	-9.1562819E-005
3	0	4.875625909981318E+002	2.3627415E-001	2.2950437E-005
3	0	4.880625909855007E+002	2.3618959E-001	-5.3391734E-005
3	0	4.885625909728697E+002	2.3611055E-001	-1.4881945E-004
3	0	4.890625909602386E+002	2.3602824E-001	-5.3391734E-005
3	0	4.895625909476075E+002	2.3594755E-001	-1.2973390E-004
3	0	4.900625909349765E+002	2.3587540E-001	-7.2477276E-005
3	0	4.905625909223454E+002	2.3579417E-001	-1.5220648E-005
3	0	4.910625909097143E+002	2.3568957E-001	-1.5220648E-005
3	0	4.915625908970833E+002	2.3557121E-001	-3.4306191E-005
3	0	4.920625908844522E+002	2.3549487E-001	-3.4306191E-005
3	0	4.925625908718212E+002	2.3542386E-001	-3.4306191E-005
3	0	4.930625908591901E+002	2.3534574E-001	-9.1562819E-005
3	0	4.935625908465590E+002	2.3526879E-001	-1.5220648E-005
3	0	4.940625908339280E+002	2.3519742E-001	-3.4306191E-005
3	0	4.945625908212969E+002	2.3511219E-001	-1.1064836E-004
3	0	4.950625908086658E+002	2.3500617E-001	4.2035979E-005
3	0	4.955625907960348E+002	2.3488796E-001	-7.2477276E-005
3	0	4.955629907960247E+002	2.3482516E-001	-7.2477276E-005