EC-Lab ASCII FILE
Nb header lines : 48                          

Open Circuit Voltage

Run on channel : 1 (SN 81504)
User : 
CE vs. WE compliance from -10 V to 10 V
Electrode connection : standard
Potential control : Ewe
Ewe ctrl range : min = -2.50 V, max = 2.50 V
Safety Limits :
	Do not start on E overload
Acquisition started on : 05/07/2026 20:50:15.926
Loaded Setting File :  C:\PEM-WE_measurements\2026\372_IV_IV IrOx, 5 min Pt, 30 min C, etched cathode\new station\Loopeis new\1,46 V different time gaps open cell\Loopeis 1,46V_120s_2_PEIS from 65kHz to 10kHz.mps
Saved on :
	File : L_22_Loopeis 1,46V_120s_2_PEIS from 65kHz to 10kHz_08_OCV_C01.mpr
	Directory : C:\PEM-WE_measurements\2026\372_IV_IV IrOx, 5 min Pt, 30 min C, etched cathode\new station\Loopeis new\1,46 V different time gaps open cell\
	Host : 192.168.0.2
Device : SP-150e (SN .005491)
Address : 192.168.0.91
EC-LAB for windows v11.71 (software)
Internet server v28.00 (firmware)
Command interpretor v14.01 (firmware)
Electrode material : 
Initial state : 
Electrolyte : 
Comments : 
Current amplifier : SP-150eB-20A
Electrode surface area : 0.001 cm²
Characteristic mass : 0.001 g
Equivalent Weight : 0.000 g/eq.
Density : 0.000 g/cm3
Volume (V) : 0.001 cm³
Record Analogic IN 1
Text export
   Mode : Standard
   Time format : Elapsed
Cycle Definition : Charge/Discharge alternance
tR (h:m:s)          0:02:0.0000         
dER/dt (mV/h)       1.0                 
record              <Ewe>               
dER (mV)            10.00               
dtR (s)             0.5000              
E range min (V)     -2.500              
E range max (V)     2.500               

mode	error	time/s	<Ewe/V>	Analog IN 1/V	
3	0	5.414211929402518E+002	9.6580011E-001	-1.5220648E-005
3	0	5.419211929276207E+002	1.1601435E+000	-1.5220648E-005
3	0	5.424211929149897E+002	9.2932385E-001	-7.2477276E-005
3	0	5.429211929023586E+002	4.6908236E-001	-1.5220648E-005
3	0	5.434211928897275E+002	3.2496312E-001	-5.3391734E-005
3	0	5.439211928770965E+002	3.0889481E-001	-1.1064836E-004
3	0	5.444211928644654E+002	3.0212164E-001	-7.2477276E-005
3	0	5.449211928518343E+002	2.9621801E-001	-7.2477276E-005
3	0	5.454211928392033E+002	2.9149827E-001	-1.5220648E-005
3	0	5.459211928265722E+002	2.8782853E-001	-3.4306191E-005
3	0	5.464211928139412E+002	2.8494158E-001	-7.2477276E-005
3	0	5.469211928013101E+002	2.8261647E-001	-3.4306191E-005
3	0	5.474211927886790E+002	2.8069866E-001	-3.4306191E-005
3	0	5.479211927760480E+002	2.7912799E-001	-5.3391734E-005
3	0	5.484211927634169E+002	2.7779272E-001	-5.3391734E-005
3	0	5.489211927507858E+002	2.7661973E-001	3.8648941E-006
3	0	5.494211927381548E+002	2.7558354E-001	-1.5220648E-005
3	0	5.499211927255237E+002	2.7465254E-001	-5.3391734E-005
3	0	5.504211927128927E+002	2.7378696E-001	4.2035979E-005
3	0	5.509211927002616E+002	2.7296564E-001	-5.3391734E-005
3	0	5.514211926876305E+002	2.7218905E-001	-1.5220648E-005
3	0	5.519211926749995E+002	2.7148160E-001	-5.3391734E-005
3	0	5.524211926623684E+002	2.7080759E-001	-1.5220648E-005
3	0	5.529211926497374E+002	2.7016699E-001	4.2035979E-005
3	0	5.534211926371063E+002	2.6956213E-001	-9.1562819E-005
3	0	5.539211926244752E+002	2.6896849E-001	-5.3391734E-005
3	0	5.544211926118442E+002	2.6837072E-001	8.0207064E-005
3	0	5.549211925992131E+002	2.6777354E-001	3.8648941E-006
3	0	5.554211925865820E+002	2.6717296E-001	-7.2477276E-005
3	0	5.559211925739510E+002	2.6661888E-001	-7.2477276E-005
3	0	5.564211925613199E+002	2.6607662E-001	-5.3391734E-005
3	0	5.569211925486889E+002	2.6554322E-001	2.2950437E-005
3	0	5.574211925360578E+002	2.6501769E-001	-9.1562819E-005
3	0	5.579211925234267E+002	2.6450330E-001	6.1121522E-005
3	0	5.584211925107957E+002	2.6395535E-001	-5.3391734E-005
3	0	5.589211924981646E+002	2.6340857E-001	-1.1064836E-004
3	0	5.594211924855335E+002	2.6287913E-001	1.7563478E-004
3	0	5.599211924729025E+002	2.6238686E-001	8.0207064E-005
3	0	5.604211924602714E+002	2.6190862E-001	-1.2973390E-004
3	0	5.609211924476404E+002	2.6143357E-001	-5.3391734E-005
3	0	5.614211924350093E+002	2.6095849E-001	-5.3391734E-005
3	0	5.619211924223782E+002	2.6049340E-001	-1.6790499E-004
3	0	5.624211924097472E+002	2.6000649E-001	-3.4306191E-005
3	0	5.629211923971161E+002	2.5950921E-001	4.2035979E-005
3	0	5.634211923844850E+002	2.5900540E-001	2.2950437E-005
3	0	5.639211923718540E+002	2.5853595E-001	4.2035979E-005
3	0	5.644211923592229E+002	2.5808614E-001	-5.3391734E-005
3	0	5.649211923465919E+002	2.5763237E-001	-1.2973390E-004
3	0	5.654211923339608E+002	2.5717455E-001	3.8648941E-006
3	0	5.659211923213297E+002	2.5673133E-001	-5.3391734E-005
3	0	5.664211923086987E+002	2.5627965E-001	-1.2973390E-004
3	0	5.669211922960676E+002	2.5581333E-001	-5.3391734E-005
3	0	5.674211922834365E+002	2.5534678E-001	-1.1064836E-004
3	0	5.679211922708055E+002	2.5491253E-001	3.8648941E-006
3	0	5.684211922581744E+002	2.5450239E-001	-5.3391734E-005
3	0	5.689211922455434E+002	2.5409281E-001	-1.1064836E-004
3	0	5.694211922329123E+002	2.5367531E-001	-3.4306191E-005
3	0	5.699211922202812E+002	2.5326183E-001	3.8648941E-006
3	0	5.704211922076502E+002	2.5284240E-001	2.2950437E-005
3	0	5.709211921950191E+002	2.5240180E-001	3.8648941E-006
3	0	5.714211921823880E+002	2.5195816E-001	-1.4881945E-004
3	0	5.719211921697570E+002	2.5156367E-001	-1.2973390E-004
3	0	5.724211921571259E+002	2.5117749E-001	-5.3391734E-005
3	0	5.729211921444949E+002	2.5078788E-001	-1.2973390E-004
3	0	5.734211921318638E+002	2.5039983E-001	2.2950437E-005
3	0	5.739211921192327E+002	2.5001991E-001	-1.5220648E-005
3	0	5.744211921066017E+002	2.4963476E-001	-9.1562819E-005
3	0	5.749211920939706E+002	2.4922696E-001	3.8648941E-006
3	0	5.754211920813395E+002	2.4881305E-001	-7.2477276E-005
3	0	5.759211920687085E+002	2.4844100E-001	-5.3391734E-005
3	0	5.764211920560774E+002	2.4808636E-001	-5.3391734E-005
3	0	5.769211920434464E+002	2.4772887E-001	4.2035979E-005
3	0	5.774211920308153E+002	2.4737023E-001	-3.4306191E-005
3	0	5.779211920181842E+002	2.4701206E-001	6.1121522E-005
3	0	5.784211920055532E+002	2.4664967E-001	-3.4306191E-005
3	0	5.789211919929221E+002	2.4626683E-001	-1.5220648E-005
3	0	5.794211919802910E+002	2.4588385E-001	-1.5220648E-005
3	0	5.799211919676600E+002	2.4555340E-001	3.8648941E-006
3	0	5.804211919550289E+002	2.4523182E-001	-1.5220648E-005
3	0	5.809211919423979E+002	2.4489926E-001	-1.5220648E-005
3	0	5.814211919297668E+002	2.4456549E-001	2.2950437E-005
3	0	5.819211919171357E+002	2.4424781E-001	-5.3391734E-005
3	0	5.824211919045047E+002	2.4390414E-001	-1.8699054E-004
3	0	5.829211918918736E+002	2.4354826E-001	-1.5220648E-005
3	0	5.834211918792425E+002	2.4319135E-001	2.2950437E-005
3	0	5.839211918666115E+002	2.4287662E-001	2.2950437E-005
3	0	5.844211918539804E+002	2.4257691E-001	-3.4306191E-005
3	0	5.849211918413494E+002	2.4227288E-001	4.2035979E-005
3	0	5.854211918287183E+002	2.4197496E-001	-1.1064836E-004
3	0	5.859211918160872E+002	2.4167596E-001	-5.3391734E-005
3	0	5.864211918034562E+002	2.4137191E-001	9.9292607E-005
3	0	5.869211917908251E+002	2.4104135E-001	-7.2477276E-005
3	0	5.874211917781940E+002	2.4071476E-001	2.2950437E-005
3	0	5.879211917655630E+002	2.4042743E-001	-1.6790499E-004
3	0	5.884211917529319E+002	2.4015974E-001	-1.5220648E-005
3	0	5.889211917403009E+002	2.3989232E-001	3.8648941E-006
3	0	5.894211917276698E+002	2.3961610E-001	-1.5220648E-005
3	0	5.899211917150387E+002	2.3934297E-001	4.2035979E-005
3	0	5.904211917024077E+002	2.3906173E-001	-1.1064836E-004
3	0	5.909211916897766E+002	2.3876195E-001	4.2035979E-005
3	0	5.914211916771455E+002	2.3845230E-001	-1.2973390E-004
3	0	5.919211916645145E+002	2.3819408E-001	-9.1562819E-005
3	0	5.924211916518834E+002	2.3794864E-001	-1.1064836E-004
3	0	5.929211916392524E+002	2.3770814E-001	-7.2477276E-005
3	0	5.934211916266213E+002	2.3745562E-001	4.2035979E-005
3	0	5.939211916139902E+002	2.3720998E-001	-5.3391734E-005
3	0	5.944211916013592E+002	2.3694795E-001	3.8648941E-006
3	0	5.949211915887281E+002	2.3667274E-001	-1.6790499E-004
3	0	5.954211915760970E+002	2.3638685E-001	-1.8699054E-004
3	0	5.959211915634660E+002	2.3614970E-001	-7.2477276E-005
3	0	5.964211915508349E+002	2.3592503E-001	8.0207064E-005
3	0	5.969211915382039E+002	2.3570235E-001	2.2950437E-005
3	0	5.974211915255728E+002	2.3547786E-001	-9.1562819E-005
3	0	5.979211915129417E+002	2.3526226E-001	-3.4306191E-005
3	0	5.984211915003107E+002	2.3502147E-001	2.2950437E-005
3	0	5.989211914876796E+002	2.3476444E-001	-1.1064836E-004
3	0	5.994211914750485E+002	2.3450167E-001	-7.2477276E-005
3	0	5.999211914624175E+002	2.3428515E-001	-1.5220648E-005
3	0	6.004211914497864E+002	2.3408502E-001	4.2035979E-005
3	0	6.009211914371554E+002	2.3387279E-001	-7.2477276E-005
3	0	6.014211914245243E+002	2.3366363E-001	-1.1064836E-004
3	0	6.019211914118932E+002	2.3345067E-001	3.8648941E-006
3	0	6.024211913992622E+002	2.3323639E-001	3.8648941E-006
3	0	6.029211913866311E+002	2.3300062E-001	-1.2973390E-004
3	0	6.034211913740000E+002	2.3275629E-001	2.2950437E-005
3	0	6.039211913613690E+002	2.3254775E-001	-1.1064836E-004
3	0	6.044211913487379E+002	2.3236063E-001	-7.2477276E-005
3	0	6.049211913361069E+002	2.3216866E-001	-1.5220648E-005
3	0	6.054211913234758E+002	2.3197523E-001	-1.5220648E-005
3	0	6.059211913108447E+002	2.3178555E-001	-9.1562819E-005
3	0	6.064211912982137E+002	2.3157822E-001	-1.4881945E-004
3	0	6.069211912855826E+002	2.3134364E-001	3.8648941E-006
3	0	6.074211912729515E+002	2.3111190E-001	4.2035979E-005
3	0	6.079211912603205E+002	2.3092411E-001	2.2950437E-005
3	0	6.084211912476894E+002	2.3075005E-001	-1.1064836E-004
3	0	6.089211912350584E+002	2.3057489E-001	-7.2477276E-005
3	0	6.094211912224273E+002	2.3039930E-001	8.0207064E-005
3	0	6.099211912097962E+002	2.3022367E-001	-5.3391734E-005
3	0	6.104211911971652E+002	2.3003644E-001	8.0207064E-005
3	0	6.109211911845341E+002	2.2982980E-001	-5.3391734E-005
3	0	6.114211911719030E+002	2.2961637E-001	4.2035979E-005
3	0	6.119211911592720E+002	2.2944908E-001	6.1121522E-005
3	0	6.124211911466409E+002	2.2929358E-001	-7.2477276E-005
3	0	6.129211911340099E+002	2.2913250E-001	-7.2477276E-005
3	0	6.134211911213788E+002	2.2897084E-001	2.2950437E-005
3	0	6.139211911087477E+002	2.2881156E-001	3.8648941E-006
3	0	6.144211910961167E+002	2.2863317E-001	-9.1562819E-005
3	0	6.149211910834856E+002	2.2844620E-001	2.2950437E-005
3	0	6.154211910708545E+002	2.2825268E-001	-1.4881945E-004
3	0	6.159211910582235E+002	2.2809564E-001	9.9292607E-005
3	0	6.164211910455924E+002	2.2795612E-001	4.2035979E-005
3	0	6.169211910329614E+002	2.2781308E-001	2.2950437E-005
3	0	6.174211910203303E+002	2.2766279E-001	-1.4881945E-004
3	0	6.179211910076992E+002	2.2751920E-001	9.9292607E-005
3	0	6.184211909950682E+002	2.2735597E-001	3.8648941E-006
3	0	6.189211909824371E+002	2.2716978E-001	2.2950437E-005
3	0	6.194211909698060E+002	2.2698519E-001	-1.2973390E-004
3	0	6.199211909571750E+002	2.2684368E-001	-3.4306191E-005
3	0	6.204211909445439E+002	2.2671714E-001	3.8648941E-006
3	0	6.209211909319129E+002	2.2657901E-001	-9.1562819E-005
3	0	6.214211909192818E+002	2.2644444E-001	-1.5220648E-005
3	0	6.219211909066507E+002	2.2630973E-001	2.2950437E-005
3	0	6.224211908940197E+002	2.2616132E-001	-3.4306191E-005
3	0	6.229211908813886E+002	2.2599129E-001	-5.3391734E-005
3	0	6.234211908687575E+002	2.2581285E-001	-3.4306191E-005
3	0	6.239211908561265E+002	2.2568145E-001	-1.1064836E-004
3	0	6.244211908434954E+002	2.2556363E-001	4.2035979E-005
3	0	6.249211908308644E+002	2.2544344E-001	-9.1562819E-005
3	0	6.254211908182333E+002	2.2531103E-001	-7.2477276E-005
3	0	6.259211908056022E+002	2.2517809E-001	6.1121522E-005
3	0	6.264211907929712E+002	2.2503971E-001	2.2950437E-005
3	0	6.269211907803401E+002	2.2488238E-001	-5.3391734E-005
3	0	6.274211907677090E+002	2.2472148E-001	-3.4306191E-005
3	0	6.279211907550780E+002	2.2459757E-001	4.2035979E-005
3	0	6.284211907424469E+002	2.2449158E-001	2.2950437E-005
3	0	6.289211907298159E+002	2.2437742E-001	-9.1562819E-005
3	0	6.294211907171848E+002	2.2426265E-001	-1.5220648E-005
3	0	6.299211907045537E+002	2.2414918E-001	-7.2477276E-005
3	0	6.304211906919227E+002	2.2401224E-001	-2.2516162E-004
3	0	6.309211906792916E+002	2.2385995E-001	-1.1064836E-004
3	0	6.314211906666606E+002	2.2370438E-001	-1.5220648E-005
3	0	6.319211906540295E+002	2.2359586E-001	-9.1562819E-005
3	0	6.324211906413984E+002	2.2349791E-001	-7.2477276E-005
3	0	6.329211906287674E+002	2.2338617E-001	-1.2973390E-004
3	0	6.334211906161363E+002	2.2328053E-001	-2.8241824E-004
3	0	6.339211906035052E+002	2.2317286E-001	2.2950437E-005
3	0	6.344211905908742E+002	2.2305645E-001	-9.1562819E-005
3	0	6.349211905782431E+002	2.2291388E-001	-7.2477276E-005
3	0	6.354211905656121E+002	2.2276586E-001	3.8648941E-006
3	0	6.359211905529810E+002	2.2265887E-001	-9.1562819E-005
3	0	6.364211905403499E+002	2.2256908E-001	-1.1064836E-004
3	0	6.369211905277189E+002	2.2247252E-001	-1.2973390E-004
3	0	6.374211905150878E+002	2.2237040E-001	3.8648941E-006
3	0	6.379211905024567E+002	2.2227211E-001	6.1121522E-005
3	0	6.384211904898257E+002	2.2216071E-001	-3.4306191E-005
3	0	6.389211904771946E+002	2.2202967E-001	-1.4881945E-004
3	0	6.394211904645636E+002	2.2189425E-001	2.2950437E-005
3	0	6.399211904519325E+002	2.2179510E-001	1.1837815E-004
3	0	6.404211904393014E+002	2.2171007E-001	8.0207064E-005
3	0	6.409211904266704E+002	2.2161956E-001	-1.1064836E-004
3	0	6.414211904140393E+002	2.2152443E-001	4.2035979E-005
3	0	6.419211904014082E+002	2.2143213E-001	-5.3391734E-005
3	0	6.424211903887772E+002	2.2132260E-001	3.8648941E-006
3	0	6.429211903761461E+002	2.2119525E-001	3.8648941E-006
3	0	6.434211903635151E+002	2.2106148E-001	-3.4306191E-005
3	0	6.439211903508840E+002	2.2096881E-001	1.3746369E-004
3	0	6.444211903382529E+002	2.2088388E-001	-3.4306191E-005
3	0	6.449211903256219E+002	2.2079591E-001	-3.4306191E-005
3	0	6.454211903129908E+002	2.2070131E-001	-5.3391734E-005
3	0	6.459211903003597E+002	2.2061273E-001	2.2950437E-005
3	0	6.464211902877287E+002	2.2051701E-001	-5.3391734E-005
3	0	6.469211902750976E+002	2.2039542E-001	-1.5220648E-005
3	0	6.474211902624666E+002	2.2026604E-001	-5.3391734E-005
3	0	6.479211902498355E+002	2.2017990E-001	-1.2973390E-004
3	0	6.484211902372044E+002	2.2010334E-001	-9.1562819E-005
3	0	6.489211902245734E+002	2.2002257E-001	-5.3391734E-005
3	0	6.494211902119423E+002	2.1994142E-001	-5.3391734E-005
3	0	6.499211901993112E+002	2.1985614E-001	6.1121522E-005
3	0	6.504211901866802E+002	2.1976353E-001	8.0207064E-005
3	0	6.509211901740491E+002	2.1965121E-001	-1.2973390E-004
3	0	6.514211901614181E+002	2.1952833E-001	-1.2973390E-004
3	0	6.519211901487870E+002	2.1945383E-001	-7.2477276E-005
3	0	6.524211901361559E+002	2.1938443E-001	-9.1562819E-005
3	0	6.529211901235249E+002	2.1930929E-001	-9.1562819E-005
3	0	6.534211901108938E+002	2.1923429E-001	-1.5220648E-005
3	0	6.539211900982627E+002	2.1915838E-001	-3.4306191E-005
3	0	6.544211900856317E+002	2.1907176E-001	-1.8699054E-004
3	0	6.549211900730006E+002	2.1895990E-001	-9.1562819E-005
3	0	6.554211900603696E+002	2.1884356E-001	-7.2477276E-005
3	0	6.559211900477385E+002	2.1877059E-001	2.2950437E-005
3	0	6.564211900351074E+002	2.1870638E-001	3.8648941E-006
3	0	6.569211900224764E+002	2.1863735E-001	-1.5220648E-005
3	0	6.574211900098453E+002	2.1856500E-001	-3.4306191E-005
3	0	6.579211899972142E+002	2.1849698E-001	6.1121522E-005
3	0	6.584211899845832E+002	2.1841474E-001	-3.4306191E-005
3	0	6.589211899719521E+002	2.1830867E-001	-1.5220648E-005
3	0	6.594211899593211E+002	2.1819191E-001	-5.3391734E-005
3	0	6.599211899466900E+002	2.1812598E-001	-1.5220648E-005
3	0	6.604211899340589E+002	2.1806441E-001	-3.4306191E-005
3	0	6.609211899214279E+002	2.1799709E-001	-1.5220648E-005
3	0	6.609557899205538E+002	2.1796495E-001	-1.4881945E-004