EC-Lab ASCII FILE
Nb header lines : 48                          

Open Circuit Voltage

Run on channel : 1 (SN 81504)
User : 
CE vs. WE compliance from -10 V to 10 V
Electrode connection : standard
Potential control : Ewe
Ewe ctrl range : min = -2.50 V, max = 2.50 V
Safety Limits :
	Do not start on E overload
Acquisition started on : 05/07/2026 20:50:15.926
Loaded Setting File :  C:\PEM-WE_measurements\2026\372_IV_IV IrOx, 5 min Pt, 30 min C, etched cathode\new station\Loopeis new\1,46 V different time gaps open cell\Loopeis 1,46V_120s_2_PEIS from 65kHz to 10kHz.mps
Saved on :
	File : L_22_Loopeis 1,46V_120s_2_PEIS from 65kHz to 10kHz_02_OCV_C01.mpr
	Directory : C:\PEM-WE_measurements\2026\372_IV_IV IrOx, 5 min Pt, 30 min C, etched cathode\new station\Loopeis new\1,46 V different time gaps open cell\
	Host : 192.168.0.2
Device : SP-150e (SN .005491)
Address : 192.168.0.91
EC-LAB for windows v11.71 (software)
Internet server v28.00 (firmware)
Command interpretor v14.01 (firmware)
Electrode material : 
Initial state : 
Electrolyte : 
Comments : 
Current amplifier : SP-150eB-20A
Electrode surface area : 0.001 cm²
Characteristic mass : 0.001 g
Equivalent Weight : 0.000 g/eq.
Density : 0.000 g/cm3
Volume (V) : 0.001 cm³
Record Analogic IN 1
Text export
   Mode : Standard
   Time format : Elapsed
Cycle Definition : Charge/Discharge alternance
tR (h:m:s)          0:02:0.0000         
dER/dt (mV/h)       1.0                 
record              <Ewe>               
dER (mV)            10.00               
dtR (s)             0.5000              
E range min (V)     -2.500              
E range max (V)     2.500               

mode	error	time/s	<Ewe/V>	Analog IN 1/V	
3	0	4.549979885057837E+001	1.2464374E+000	3.8648941E-006
3	0	4.599979883794731E+001	1.2171934E+000	-1.1064836E-004
3	0	4.649979882531625E+001	1.0606676E+000	-3.4306191E-005
3	0	4.699979881268519E+001	5.8187681E-001	2.2950437E-005
3	0	4.749979880005412E+001	3.6388808E-001	-3.4306191E-005
3	0	4.799979878742306E+001	3.3349666E-001	-7.2477276E-005
3	0	4.849979877479200E+001	3.2467863E-001	-5.3391734E-005
3	0	4.899979876216094E+001	3.1761158E-001	-5.3391734E-005
3	0	4.949979874952987E+001	3.1213680E-001	-5.3391734E-005
3	0	4.999979873689881E+001	3.0797067E-001	3.8648941E-006
3	0	5.049979872426775E+001	3.0475324E-001	-7.2477276E-005
3	0	5.099979871163669E+001	3.0220309E-001	-5.3391734E-005
3	0	5.149979869900562E+001	3.0010712E-001	-1.1064836E-004
3	0	5.199979868637456E+001	2.9836798E-001	-7.2477276E-005
3	0	5.249979867374350E+001	2.9690784E-001	-9.1562819E-005
3	0	5.299979866111244E+001	2.9564503E-001	-1.6790499E-004
3	0	5.349979864848137E+001	2.9451945E-001	-7.2477276E-005
3	0	5.399979863585031E+001	2.9350793E-001	-7.2477276E-005
3	0	5.449979862321925E+001	2.9257810E-001	-5.3391734E-005
3	0	5.499979861058819E+001	2.9169846E-001	-7.2477276E-005
3	0	5.549979859795712E+001	2.9084042E-001	-3.4306191E-005
3	0	5.599979858532606E+001	2.9003924E-001	-1.2973390E-004
3	0	5.649979857269500E+001	2.8930765E-001	-1.1064836E-004
3	0	5.699979856006394E+001	2.8861859E-001	2.2950437E-005
3	0	5.749979854743287E+001	2.8794754E-001	-7.2477276E-005
3	0	5.799979853480181E+001	2.8730294E-001	-5.3391734E-005
3	0	5.849979852217075E+001	2.8667262E-001	-1.5220648E-005
3	0	5.899979850953969E+001	2.8604209E-001	8.0207064E-005
3	0	5.949979849690862E+001	2.8539991E-001	-7.2477276E-005
3	0	5.999979848427756E+001	2.8476715E-001	6.1121522E-005
3	0	6.049979847164650E+001	2.8418452E-001	-1.5220648E-005
3	0	6.099979845901544E+001	2.8360659E-001	-1.5220648E-005
3	0	6.149979844638438E+001	2.8303379E-001	-3.4306191E-005
3	0	6.199979843375331E+001	2.8247216E-001	4.2035979E-005
3	0	6.249979842112225E+001	2.8192416E-001	-1.5220648E-005
3	0	6.299979840849119E+001	2.8135395E-001	-1.2973390E-004
3	0	6.349979839586013E+001	2.8077680E-001	4.2035979E-005
3	0	6.399979838322906E+001	2.8020385E-001	-1.4881945E-004
3	0	6.449979837059800E+001	2.7968082E-001	-7.2477276E-005
3	0	6.499979835796694E+001	2.7916837E-001	2.2950437E-005
3	0	6.549979834533588E+001	2.7866346E-001	-5.3391734E-005
3	0	6.599979833270481E+001	2.7815029E-001	-9.1562819E-005
3	0	6.649979832007375E+001	2.7764136E-001	2.2950437E-005
3	0	6.699979830744269E+001	2.7712426E-001	-5.3391734E-005
3	0	6.749979829481163E+001	2.7658835E-001	-7.2477276E-005
3	0	6.799979828218056E+001	2.7605757E-001	2.2950437E-005
3	0	6.849979826954950E+001	2.7557400E-001	2.2950437E-005
3	0	6.899979825691844E+001	2.7509001E-001	2.2950437E-005
3	0	6.949979824428738E+001	2.7461776E-001	-1.5220648E-005
3	0	6.999979823165631E+001	2.7415150E-001	-1.5220648E-005
3	0	7.049979821902525E+001	2.7367714E-001	3.8648941E-006
3	0	7.099979820639419E+001	2.7319521E-001	9.9292607E-005
3	0	7.149979819376313E+001	2.7269393E-001	-1.5220648E-005
3	0	7.199979818113206E+001	2.7221334E-001	-7.2477276E-005
3	0	7.249979816850100E+001	2.7176186E-001	-5.3391734E-005
3	0	7.299979815586994E+001	2.7131364E-001	1.5654923E-004
3	0	7.349979814323888E+001	2.7086714E-001	-1.5220648E-005
3	0	7.399979813060781E+001	2.7042758E-001	-2.2516162E-004
3	0	7.449979811797675E+001	2.6998189E-001	-9.1562819E-005
3	0	7.499979810534569E+001	2.6953572E-001	-9.1562819E-005
3	0	7.549979809271463E+001	2.6907155E-001	-1.5220648E-005
3	0	7.599979808008356E+001	2.6861399E-001	-9.1562819E-005
3	0	7.649979806745250E+001	2.6819995E-001	-7.2477276E-005
3	0	7.699979805482144E+001	2.6778710E-001	-5.3391734E-005
3	0	7.749979804219038E+001	2.6737764E-001	-3.4306191E-005
3	0	7.799979802955932E+001	2.6697028E-001	-1.8699054E-004
3	0	7.849979801692825E+001	2.6656219E-001	2.2950437E-005
3	0	7.899979800429719E+001	2.6613912E-001	-7.2477276E-005
3	0	7.949979799166613E+001	2.6570895E-001	-9.1562819E-005
3	0	7.999979797903507E+001	2.6528361E-001	8.0207064E-005
3	0	8.049979796640400E+001	2.6489523E-001	-5.3391734E-005
3	0	8.099979795377294E+001	2.6452312E-001	-7.2477276E-005
3	0	8.149979794114188E+001	2.6414171E-001	-9.1562819E-005
3	0	8.199979792851082E+001	2.6376593E-001	-5.3391734E-005
3	0	8.249979791587975E+001	2.6339248E-001	-1.5220648E-005
3	0	8.299979790324869E+001	2.6299983E-001	-1.1064836E-004
3	0	8.349979789061763E+001	2.6259968E-001	3.8648941E-006
3	0	8.399979787798657E+001	2.6220739E-001	-1.1064836E-004
3	0	8.449979786535550E+001	2.6185930E-001	3.8648941E-006
3	0	8.499979785272444E+001	2.6150697E-001	-1.5220648E-005
3	0	8.549979784009338E+001	2.6116535E-001	2.2950437E-005
3	0	8.599979782746232E+001	2.6081720E-001	-1.5220648E-005
3	0	8.649979781483125E+001	2.6046878E-001	9.9292607E-005
3	0	8.699979780220019E+001	2.6011056E-001	3.8648941E-006
3	0	8.749979778956913E+001	2.5974247E-001	-5.3391734E-005
3	0	8.799979777693807E+001	2.5939044E-001	-5.3391734E-005
3	0	8.849979776430700E+001	2.5907484E-001	-9.1562819E-005
3	0	8.899979775167594E+001	2.5875589E-001	6.1121522E-005
3	0	8.949979773904488E+001	2.5844046E-001	-5.3391734E-005
3	0	8.999979772641382E+001	2.5812650E-001	1.1837815E-004
3	0	9.049979771378275E+001	2.5781682E-001	-1.6790499E-004
3	0	9.099979770115169E+001	2.5748381E-001	2.2950437E-005
3	0	9.149979768852063E+001	2.5713766E-001	-5.3391734E-005
3	0	9.199979767588957E+001	2.5680345E-001	-7.2477276E-005
3	0	9.249979766325851E+001	2.5651288E-001	2.2950437E-005
3	0	9.299979765062744E+001	2.5622952E-001	-1.4881945E-004
3	0	9.349979763799638E+001	2.5593832E-001	2.2950437E-005
3	0	9.399979762536532E+001	2.5564748E-001	8.0207064E-005
3	0	9.449979761273426E+001	2.5535917E-001	-1.4881945E-004
3	0	9.499979760010319E+001	2.5506219E-001	2.2950437E-005
3	0	9.549979758747213E+001	2.5474933E-001	4.2035979E-005
3	0	9.599979757484107E+001	2.5445059E-001	-5.3391734E-005
3	0	9.649979756221001E+001	2.5418967E-001	1.5654923E-004
3	0	9.699979754957894E+001	2.5392604E-001	-5.3391734E-005
3	0	9.749979753694788E+001	2.5366065E-001	3.8648941E-006
3	0	9.799979752431682E+001	2.5340229E-001	-1.1064836E-004
3	0	9.849979751168576E+001	2.5313580E-001	-3.4306191E-005
3	0	9.899979749905469E+001	2.5286180E-001	-5.3391734E-005
3	0	9.949979748642363E+001	2.5256202E-001	-1.1064836E-004
3	0	9.999979747379257E+001	2.5227758E-001	-3.4306191E-005
3	0	1.004997974611615E+002	2.5203276E-001	-1.5220648E-005
3	0	1.009997974485304E+002	2.5179622E-001	-9.1562819E-005
3	0	1.014997974358994E+002	2.5155598E-001	-7.2477276E-005
3	0	1.019997974232683E+002	2.5130960E-001	-1.5220648E-005
3	0	1.024997974106373E+002	2.5107101E-001	2.2950437E-005
3	0	1.029997973980062E+002	2.5081211E-001	1.3746369E-004
3	0	1.034997973853751E+002	2.5053957E-001	-1.1064836E-004
3	0	1.039997973727441E+002	2.5027958E-001	3.8648941E-006
3	0	1.044997973601130E+002	2.5005591E-001	4.2035979E-005
3	0	1.049997973474819E+002	2.4984598E-001	-1.5220648E-005
3	0	1.054997973348509E+002	2.4963048E-001	3.8648941E-006
3	0	1.059997973222198E+002	2.4941674E-001	-3.4306191E-005
3	0	1.064997973095888E+002	2.4919952E-001	8.0207064E-005
3	0	1.069997972969577E+002	2.4897026E-001	-7.2477276E-005
3	0	1.074997972843266E+002	2.4871962E-001	-3.4306191E-005
3	0	1.079997972716956E+002	2.4847738E-001	-7.2477276E-005
3	0	1.084997972590645E+002	2.4827640E-001	-9.1562819E-005
3	0	1.089997972464334E+002	2.4808338E-001	-1.6790499E-004
3	0	1.094997972338024E+002	2.4788673E-001	4.2035979E-005
3	0	1.099997972211713E+002	2.4768749E-001	-3.4306191E-005
3	0	1.104997972085403E+002	2.4748334E-001	4.2035979E-005
3	0	1.109997971959092E+002	2.4726924E-001	-1.5220648E-005
3	0	1.114997971832781E+002	2.4703255E-001	-1.1064836E-004
3	0	1.119997971706471E+002	2.4680845E-001	-1.8699054E-004
3	0	1.124997971580160E+002	2.4662577E-001	-5.3391734E-005
3	0	1.129997971453849E+002	2.4644659E-001	4.2035979E-005
3	0	1.134997971327539E+002	2.4625607E-001	-1.5220648E-005
3	0	1.139997971201228E+002	2.4606310E-001	-7.2477276E-005
3	0	1.144997971074918E+002	2.4587855E-001	9.9292607E-005
3	0	1.149997970948607E+002	2.4568319E-001	-9.1562819E-005
3	0	1.154997970822296E+002	2.4546751E-001	-1.1064836E-004
3	0	1.159997970695986E+002	2.4527006E-001	-7.2477276E-005
3	0	1.164997970569675E+002	2.4510279E-001	3.8648941E-006
3	0	1.169997970443364E+002	2.4493754E-001	4.2035979E-005
3	0	1.174997970317054E+002	2.4476808E-001	-7.2477276E-005
3	0	1.179997970190743E+002	2.4460013E-001	-7.2477276E-005
3	0	1.184997970064433E+002	2.4443400E-001	2.2950437E-005
3	0	1.189997969938122E+002	2.4425243E-001	-7.2477276E-005
3	0	1.194997969811811E+002	2.4404366E-001	-9.1562819E-005
3	0	1.199997969685501E+002	2.4385040E-001	-7.2477276E-005
3	0	1.204997969559190E+002	2.4369650E-001	1.3746369E-004
3	0	1.209997969432879E+002	2.4354266E-001	4.2035979E-005
3	0	1.214997969306569E+002	2.4338758E-001	-1.5220648E-005
3	0	1.219997969180258E+002	2.4323337E-001	3.8648941E-006
3	0	1.224997969053948E+002	2.4308178E-001	-1.4881945E-004
3	0	1.229997968927637E+002	2.4290936E-001	-1.2973390E-004
3	0	1.234997968801326E+002	2.4272005E-001	-7.2477276E-005
3	0	1.239997968675016E+002	2.4253801E-001	-7.2477276E-005
3	0	1.244997968548705E+002	2.4239020E-001	-1.5220648E-005
3	0	1.249997968422394E+002	2.4225304E-001	-1.4881945E-004
3	0	1.254997968296084E+002	2.4211180E-001	-9.1562819E-005
3	0	1.259997968169773E+002	2.4197540E-001	-5.3391734E-005
3	0	1.264997968043463E+002	2.4183534E-001	-1.1064836E-004
3	0	1.269997967917152E+002	2.4167313E-001	4.2035979E-005
3	0	1.274997967790841E+002	2.4149434E-001	-1.4881945E-004
3	0	1.279997967664531E+002	2.4133322E-001	-1.1064836E-004
3	0	1.284997967538220E+002	2.4120285E-001	-1.5220648E-005
3	0	1.289997967411909E+002	2.4107462E-001	-1.4881945E-004
3	0	1.294997967285599E+002	2.4094954E-001	-7.2477276E-005
3	0	1.299997967159288E+002	2.4081534E-001	-1.4881945E-004
3	0	1.304997967032978E+002	2.4067663E-001	-5.3391734E-005
3	0	1.309997966906667E+002	2.4053062E-001	3.8648941E-006
3	0	1.314997966780356E+002	2.4036495E-001	-5.3391734E-005
3	0	1.319997966654046E+002	2.4021780E-001	-7.2477276E-005
3	0	1.324997966527735E+002	2.4010949E-001	1.1837815E-004
3	0	1.329997966401424E+002	2.3998868E-001	-9.1562819E-005
3	0	1.334997966275114E+002	2.3986681E-001	-9.1562819E-005
3	0	1.339997966148803E+002	2.3974486E-001	-9.1562819E-005
3	0	1.344997966022493E+002	2.3963173E-001	-7.2477276E-005
3	0	1.349997965896182E+002	2.3949535E-001	-3.4306191E-005
3	0	1.354997965769871E+002	2.3933685E-001	2.2950437E-005
3	0	1.359997965643561E+002	2.3919168E-001	-1.1064836E-004
3	0	1.364997965517250E+002	2.3908976E-001	-1.5220648E-005
3	0	1.369997965390940E+002	2.3897640E-001	3.8648941E-006
3	0	1.374997965264629E+002	2.3886688E-001	-9.1562819E-005
3	0	1.379997965138318E+002	2.3875460E-001	2.2950437E-005
3	0	1.384997965012008E+002	2.3863758E-001	-9.1562819E-005
3	0	1.389997964885697E+002	2.3850954E-001	-5.3391734E-005
3	0	1.394997964759386E+002	2.3836070E-001	-2.0607607E-004
3	0	1.399997964633076E+002	2.3822127E-001	2.2950437E-005
3	0	1.404997964506765E+002	2.3812477E-001	-1.5220648E-005
3	0	1.409997964380455E+002	2.3801297E-001	-3.4306191E-005
3	0	1.414997964254144E+002	2.3789977E-001	4.2035979E-005
3	0	1.419997964127833E+002	2.3779044E-001	-5.3391734E-005
3	0	1.424997964001523E+002	2.3768465E-001	-1.1064836E-004
3	0	1.429997963875212E+002	2.3755829E-001	-3.4306191E-005
3	0	1.434997963748901E+002	2.3740953E-001	-3.4306191E-005
3	0	1.439997963622591E+002	2.3727962E-001	-1.2973390E-004
3	0	1.444997963496280E+002	2.3718768E-001	3.8648941E-006
3	0	1.449997963369970E+002	2.3708677E-001	-3.4306191E-005
3	0	1.454997963243659E+002	2.3698314E-001	4.2035979E-005
3	0	1.459997963117348E+002	2.3688248E-001	-9.1562819E-005
3	0	1.464997962991038E+002	2.3677929E-001	3.8648941E-006
3	0	1.469997962864727E+002	2.3665836E-001	-2.0607607E-004
3	0	1.474997962738416E+002	2.3653170E-001	-3.4306191E-005
3	0	1.479997962612106E+002	2.3640613E-001	-3.4306191E-005
3	0	1.484997962485795E+002	2.3632413E-001	2.2950437E-005
3	0	1.489997962359485E+002	2.3622467E-001	3.8648941E-006
3	0	1.494997962233174E+002	2.3613472E-001	4.2035979E-005
3	0	1.499997962106863E+002	2.3604105E-001	-7.2477276E-005
3	0	1.504997961980553E+002	2.3595150E-001	-1.6790499E-004
3	0	1.509997961854242E+002	2.3584223E-001	6.1121522E-005
3	0	1.514997961727931E+002	2.3571591E-001	1.1837815E-004
3	0	1.519997961601621E+002	2.3560315E-001	-3.4306191E-005
3	0	1.524997961475310E+002	2.3552328E-001	-3.4306191E-005
3	0	1.529997961349000E+002	2.3543961E-001	-3.4306191E-005
3	0	1.534997961222689E+002	2.3535246E-001	-5.3391734E-005
3	0	1.539997961096378E+002	2.3526715E-001	3.8648941E-006
3	0	1.544997960970068E+002	2.3518534E-001	-1.8699054E-004
3	0	1.549997960843757E+002	2.3508243E-001	-5.3391734E-005
3	0	1.554997960717446E+002	2.3495844E-001	-1.5220648E-005
3	0	1.559997960591136E+002	2.3484610E-001	-3.4306191E-005
3	0	1.564997960464825E+002	2.3476864E-001	-7.2477276E-005
3	0	1.569997960338515E+002	2.3468475E-001	3.8648941E-006
3	0	1.574997960212204E+002	2.3459989E-001	3.8648941E-006
3	0	1.579997960085893E+002	2.3451675E-001	-9.1562819E-005
3	0	1.584997959959583E+002	2.3443756E-001	6.1121522E-005
3	0	1.589997959833272E+002	2.3433895E-001	-3.4306191E-005
3	0	1.594997959706961E+002	2.3422447E-001	3.8648941E-006
3	0	1.599997959580651E+002	2.3411834E-001	2.2950437E-005
3	0	1.604997959454340E+002	2.3405084E-001	2.2950437E-005
3	0	1.609997959328030E+002	2.3397195E-001	-1.2973390E-004
3	0	1.614997959201719E+002	2.3389037E-001	-1.4881945E-004
3	0	1.619997959075408E+002	2.3381607E-001	-3.4306191E-005
3	0	1.624997958949098E+002	2.3373407E-001	-1.4881945E-004
3	0	1.629997958822787E+002	2.3363817E-001	-5.3391734E-005
3	0	1.634997958696476E+002	2.3352478E-001	-1.6790499E-004
3	0	1.639997958570166E+002	2.3342142E-001	2.2950437E-005
3	0	1.644997958443855E+002	2.3335800E-001	-5.3391734E-005
3	0	1.649997958317545E+002	2.3328193E-001	2.2950437E-005
3	0	1.650001958317444E+002	2.3320304E-001	-2.0607607E-004