EC-Lab ASCII FILE
Nb header lines : 48                          

Open Circuit Voltage

Run on channel : 1 (SN 81504)
User : 
CE vs. WE compliance from -10 V to 10 V
Electrode connection : standard
Potential control : Ewe
Ewe ctrl range : min = -2.50 V, max = 2.50 V
Safety Limits :
	Do not start on E overload
Acquisition started on : 05/07/2026 20:50:15.926
Loaded Setting File :  C:\PEM-WE_measurements\2026\372_IV_IV IrOx, 5 min Pt, 30 min C, etched cathode\new station\Loopeis new\1,46 V different time gaps open cell\Loopeis 1,46V_120s_2_PEIS from 65kHz to 10kHz.mps
Saved on :
	File : L_22_Loopeis 1,46V_120s_2_PEIS from 65kHz to 10kHz_10_OCV_C01.mpr
	Directory : C:\PEM-WE_measurements\2026\372_IV_IV IrOx, 5 min Pt, 30 min C, etched cathode\new station\Loopeis new\1,46 V different time gaps open cell\
	Host : 192.168.0.2
Device : SP-150e (SN .005491)
Address : 192.168.0.91
EC-LAB for windows v11.71 (software)
Internet server v28.00 (firmware)
Command interpretor v14.01 (firmware)
Electrode material : 
Initial state : 
Electrolyte : 
Comments : 
Current amplifier : SP-150eB-20A
Electrode surface area : 0.001 cm²
Characteristic mass : 0.001 g
Equivalent Weight : 0.000 g/eq.
Density : 0.000 g/cm3
Volume (V) : 0.001 cm³
Record Analogic IN 1
Text export
   Mode : Standard
   Time format : Elapsed
Cycle Definition : Charge/Discharge alternance
tR (h:m:s)          0:02:0.0000         
dER/dt (mV/h)       1.0                 
record              <Ewe>               
dER (mV)            10.00               
dtR (s)             0.5000              
E range min (V)     -2.500              
E range max (V)     2.500               

mode	error	time/s	<Ewe/V>	Analog IN 1/V	
3	0	7.064563887711120E+002	1.2339891E+000	-5.3391734E-005
3	0	7.069563887584809E+002	1.1978979E+000	-3.2058934E-004
3	0	7.074563887458498E+002	9.5377761E-001	-1.5220648E-005
3	0	7.079563887332188E+002	4.8344439E-001	-5.3391734E-005
3	0	7.084563887205877E+002	3.5146573E-001	-3.4306191E-005
3	0	7.089563887079566E+002	3.3399180E-001	8.0207064E-005
3	0	7.094563886953256E+002	3.2575929E-001	-3.4306191E-005
3	0	7.099563886826945E+002	3.1910872E-001	-7.2477276E-005
3	0	7.104563886700635E+002	3.1401330E-001	3.8648941E-006
3	0	7.109563886574324E+002	3.1010920E-001	3.8648941E-006
3	0	7.114563886448013E+002	3.0705759E-001	-1.5220648E-005
3	0	7.119563886321703E+002	3.0463529E-001	-3.4306191E-005
3	0	7.124563886195392E+002	3.0265412E-001	-7.2477276E-005
3	0	7.129563886069081E+002	3.0098245E-001	-7.2477276E-005
3	0	7.134563885942771E+002	2.9954907E-001	-3.4306191E-005
3	0	7.139563885816460E+002	2.9829445E-001	-1.5220648E-005
3	0	7.144563885690150E+002	2.9715744E-001	3.8648941E-006
3	0	7.149563885563839E+002	2.9609877E-001	-3.4306191E-005
3	0	7.154563885437528E+002	2.9512575E-001	-7.2477276E-005
3	0	7.159563885311218E+002	2.9425484E-001	8.0207064E-005
3	0	7.164563885184907E+002	2.9344749E-001	-5.3391734E-005
3	0	7.169563885058597E+002	2.9268017E-001	-9.1562819E-005
3	0	7.174563884932286E+002	2.9194131E-001	4.2035979E-005
3	0	7.179563884805975E+002	2.9123437E-001	-1.6790499E-004
3	0	7.184563884679665E+002	2.9053944E-001	3.8648941E-006
3	0	7.189563884553354E+002	2.8984421E-001	-1.5220648E-005
3	0	7.194563884427043E+002	2.8917211E-001	-1.2973390E-004
3	0	7.199563884300733E+002	2.8855014E-001	1.3746369E-004
3	0	7.204563884174422E+002	2.8794134E-001	-7.2477276E-005
3	0	7.209563884048112E+002	2.8734377E-001	-7.2477276E-005
3	0	7.214563883921801E+002	2.8676102E-001	8.0207064E-005
3	0	7.219563883795490E+002	2.8618488E-001	-2.0607607E-004
3	0	7.224563883669180E+002	2.8560433E-001	-3.4306191E-005
3	0	7.229563883542869E+002	2.8501123E-001	-3.4306191E-005
3	0	7.234563883416558E+002	2.8442365E-001	1.9472031E-004
3	0	7.239563883290248E+002	2.8387251E-001	9.9292607E-005
3	0	7.244563883163937E+002	2.8333637E-001	-5.3391734E-005
3	0	7.249563883037627E+002	2.8280109E-001	2.2950437E-005
3	0	7.254563882911316E+002	2.8228360E-001	-1.6790499E-004
3	0	7.259563882785005E+002	2.8176308E-001	-7.2477276E-005
3	0	7.264563882658695E+002	2.8123468E-001	-1.5220648E-005
3	0	7.269563882532384E+002	2.8069735E-001	-1.5220648E-005
3	0	7.274563882406073E+002	2.8015429E-001	-9.1562819E-005
3	0	7.279563882279763E+002	2.7965668E-001	-3.4306191E-005
3	0	7.284563882153452E+002	2.7917030E-001	-1.2973390E-004
3	0	7.289563882027142E+002	2.7868289E-001	-7.2477276E-005
3	0	7.294563881900831E+002	2.7820235E-001	-7.2477276E-005
3	0	7.299563881774520E+002	2.7772358E-001	-1.6790499E-004
3	0	7.304563881648210E+002	2.7724323E-001	-1.1064836E-004
3	0	7.309563881521899E+002	2.7674088E-001	-1.5220648E-005
3	0	7.314563881395588E+002	2.7624270E-001	3.8648941E-006
3	0	7.319563881269278E+002	2.7578428E-001	-9.1562819E-005
3	0	7.324563881142967E+002	2.7533031E-001	-9.1562819E-005
3	0	7.329563881016657E+002	2.7487946E-001	-9.1562819E-005
3	0	7.334563880890346E+002	2.7444091E-001	6.1121522E-005
3	0	7.339563880764035E+002	2.7400148E-001	3.8648941E-006
3	0	7.344563880637725E+002	2.7355546E-001	-1.5220648E-005
3	0	7.349563880511414E+002	2.7308708E-001	-3.4306191E-005
3	0	7.354563880385103E+002	2.7262142E-001	-7.2477276E-005
3	0	7.359563880258793E+002	2.7220574E-001	-1.2973390E-004
3	0	7.364563880132482E+002	2.7179515E-001	-1.5220648E-005
3	0	7.369563880006172E+002	2.7137703E-001	-5.3391734E-005
3	0	7.374563879879861E+002	2.7096853E-001	-7.2477276E-005
3	0	7.379563879753550E+002	2.7055934E-001	-1.5220648E-005
3	0	7.384563879627240E+002	2.7013326E-001	6.1121522E-005
3	0	7.389563879500929E+002	2.6971021E-001	-7.2477276E-005
3	0	7.394563879374618E+002	2.6928228E-001	4.2035979E-005
3	0	7.399563879248308E+002	2.6889119E-001	6.1121522E-005
3	0	7.404563879121997E+002	2.6850671E-001	-1.1064836E-004
3	0	7.409563878995687E+002	2.6812893E-001	-2.2516162E-004
3	0	7.414563878869376E+002	2.6774710E-001	-5.3391734E-005
3	0	7.419563878743065E+002	2.6737085E-001	-1.6790499E-004
3	0	7.424563878616755E+002	2.6698479E-001	-1.5220648E-005
3	0	7.429563878490444E+002	2.6658440E-001	3.8648941E-006
3	0	7.434563878364133E+002	2.6618379E-001	6.1121522E-005
3	0	7.439563878237823E+002	2.6582885E-001	-1.5220648E-005
3	0	7.444563878111512E+002	2.6547101E-001	-1.1064836E-004
3	0	7.449563877985202E+002	2.6511744E-001	-3.4306191E-005
3	0	7.454563877858891E+002	2.6476827E-001	-5.3391734E-005
3	0	7.459563877732580E+002	2.6442891E-001	-7.2477276E-005
3	0	7.464563877606270E+002	2.6407132E-001	4.2035979E-005
3	0	7.469563877479959E+002	2.6369983E-001	-9.1562819E-005
3	0	7.474563877353648E+002	2.6332605E-001	9.9292607E-005
3	0	7.479563877227338E+002	2.6300168E-001	3.8648941E-006
3	0	7.484563877101027E+002	2.6268002E-001	-5.3391734E-005
3	0	7.489563876974717E+002	2.6235917E-001	-9.1562819E-005
3	0	7.494563876848406E+002	2.6204187E-001	3.8648941E-006
3	0	7.499563876722095E+002	2.6172644E-001	3.8648941E-006
3	0	7.504563876595785E+002	2.6139933E-001	2.2950437E-005
3	0	7.509563876469474E+002	2.6105577E-001	4.2035979E-005
3	0	7.514563876343163E+002	2.6072091E-001	3.8648941E-006
3	0	7.519563876216853E+002	2.6042113E-001	-1.1064836E-004
3	0	7.524563876090542E+002	2.6012835E-001	-9.1562819E-005
3	0	7.529563875964232E+002	2.5983378E-001	3.8648941E-006
3	0	7.534563875837921E+002	2.5954744E-001	3.8648941E-006
3	0	7.539563875711610E+002	2.5926024E-001	2.2950437E-005
3	0	7.544563875585300E+002	2.5896716E-001	-3.4306191E-005
3	0	7.549563875458989E+002	2.5864792E-001	2.2950437E-005
3	0	7.554563875332678E+002	2.5833806E-001	-5.3391734E-005
3	0	7.559563875206368E+002	2.5806993E-001	-9.1562819E-005
3	0	7.564563875080057E+002	2.5780120E-001	-1.5220648E-005
3	0	7.569563874953747E+002	2.5753626E-001	-5.3391734E-005
3	0	7.574563874827436E+002	2.5727221E-001	-1.4881945E-004
3	0	7.579563874701125E+002	2.5700617E-001	-1.2973390E-004
3	0	7.584563874574815E+002	2.5673467E-001	8.0207064E-005
3	0	7.589563874448504E+002	2.5643957E-001	4.2035979E-005
3	0	7.594563874322193E+002	2.5615206E-001	-3.4306191E-005
3	0	7.599563874195883E+002	2.5589934E-001	4.2035979E-005
3	0	7.604563874069572E+002	2.5566015E-001	-3.4306191E-005
3	0	7.609563873943262E+002	2.5542539E-001	3.8648941E-006
3	0	7.614563873816951E+002	2.5518185E-001	3.8648941E-006
3	0	7.619563873690640E+002	2.5493866E-001	-1.5220648E-005
3	0	7.624563873564330E+002	2.5469062E-001	4.2035979E-005
3	0	7.629563873438019E+002	2.5441682E-001	-1.1064836E-004
3	0	7.634563873311708E+002	2.5414863E-001	-1.2973390E-004
3	0	7.639563873185398E+002	2.5391170E-001	2.2950437E-005
3	0	7.644563873059087E+002	2.5369436E-001	-9.1562819E-005
3	0	7.649563872932777E+002	2.5347045E-001	-2.2516162E-004
3	0	7.654563872806466E+002	2.5324193E-001	2.2950437E-005
3	0	7.659563872680155E+002	2.5302252E-001	-9.1562819E-005
3	0	7.664563872553845E+002	2.5278866E-001	-3.4306191E-005
3	0	7.669563872427534E+002	2.5253391E-001	-1.1064836E-004
3	0	7.674563872301223E+002	2.5228235E-001	8.0207064E-005
3	0	7.679563872174913E+002	2.5206953E-001	-1.5220648E-005
3	0	7.684563872048602E+002	2.5186813E-001	6.1121522E-005
3	0	7.689563871922292E+002	2.5165811E-001	1.3746369E-004
3	0	7.694563871795981E+002	2.5145212E-001	-1.5220648E-005
3	0	7.699563871669670E+002	2.5124624E-001	3.8648941E-006
3	0	7.704563871543360E+002	2.5103018E-001	2.2950437E-005
3	0	7.709563871417049E+002	2.5079793E-001	-1.2973390E-004
3	0	7.714563871290738E+002	2.5056475E-001	-1.5220648E-005
3	0	7.719563871164428E+002	2.5037104E-001	-1.5220648E-005
3	0	7.724563871038117E+002	2.5018698E-001	-3.4306191E-005
3	0	7.729563870911807E+002	2.5000396E-001	-1.2973390E-004
3	0	7.734563870785496E+002	2.4982069E-001	2.2950437E-005
3	0	7.739563870659185E+002	2.4963267E-001	-1.5220648E-005
3	0	7.744563870532875E+002	2.4943639E-001	6.1121522E-005
3	0	7.749563870406564E+002	2.4922499E-001	2.2950437E-005
3	0	7.754563870280253E+002	2.4900968E-001	2.2950437E-005
3	0	7.759563870153943E+002	2.4882835E-001	-5.3391734E-005
3	0	7.764563870027632E+002	2.4866751E-001	2.2950437E-005
3	0	7.769563869901322E+002	2.4849415E-001	-1.1064836E-004
3	0	7.774563869775011E+002	2.4832216E-001	-7.2477276E-005
3	0	7.779563869648700E+002	2.4815385E-001	-1.6790499E-004
3	0	7.784563869522390E+002	2.4796991E-001	-1.5220648E-005
3	0	7.789563869396079E+002	2.4776818E-001	-9.1562819E-005
3	0	7.794563869269768E+002	2.4756756E-001	-5.3391734E-005
3	0	7.799563869143458E+002	2.4740595E-001	3.8648941E-006
3	0	7.804563869017147E+002	2.4724454E-001	3.8648941E-006
3	0	7.809563868890837E+002	2.4708563E-001	-1.5220648E-005
3	0	7.814563868764526E+002	2.4692509E-001	9.9292607E-005
3	0	7.819563868638215E+002	2.4676822E-001	2.2950437E-005
3	0	7.824563868511905E+002	2.4659762E-001	6.1121522E-005
3	0	7.829563868385594E+002	2.4641085E-001	4.2035979E-005
3	0	7.834563868259283E+002	2.4621791E-001	-1.2973390E-004
3	0	7.839563868132973E+002	2.4606663E-001	-5.3391734E-005
3	0	7.844563868006662E+002	2.4591962E-001	-3.4306191E-005
3	0	7.849563867880352E+002	2.4577640E-001	-3.4306191E-005
3	0	7.854563867754041E+002	2.4563414E-001	-3.4306191E-005
3	0	7.859563867627730E+002	2.4548322E-001	2.2950437E-005
3	0	7.864563867501420E+002	2.4532181E-001	8.0207064E-005
3	0	7.869563867375109E+002	2.4513912E-001	4.2035979E-005
3	0	7.874563867248798E+002	2.4495636E-001	-1.5220648E-005
3	0	7.879563867122488E+002	2.4481854E-001	-1.5220648E-005
3	0	7.884563866996177E+002	2.4468140E-001	-5.3391734E-005
3	0	7.889563866869867E+002	2.4455018E-001	3.8648941E-006
3	0	7.894563866743556E+002	2.4441803E-001	-7.2477276E-005
3	0	7.899563866617245E+002	2.4428864E-001	9.9292607E-005
3	0	7.904563866490935E+002	2.4414267E-001	-1.2973390E-004
3	0	7.909563866364624E+002	2.4397208E-001	-1.4881945E-004
3	0	7.914563866238313E+002	2.4380580E-001	2.2950437E-005
3	0	7.919563866112003E+002	2.4367891E-001	9.9292607E-005
3	0	7.924563865985692E+002	2.4356127E-001	-3.4306191E-005
3	0	7.929563865859382E+002	2.4343863E-001	-3.4306191E-005
3	0	7.934563865733071E+002	2.4331737E-001	-9.1562819E-005
3	0	7.939563865606760E+002	2.4319643E-001	-3.4306191E-005
3	0	7.944563865480450E+002	2.4306110E-001	-5.3391734E-005
3	0	7.949563865354139E+002	2.4290213E-001	8.0207064E-005
3	0	7.954563865227829E+002	2.4274689E-001	-1.6790499E-004
3	0	7.959563865101518E+002	2.4263443E-001	-1.5220648E-005
3	0	7.964563864975207E+002	2.4252211E-001	-1.2973390E-004
3	0	7.969563864848897E+002	2.4240784E-001	-7.2477276E-005
3	0	7.974563864722586E+002	2.4229811E-001	6.1121522E-005
3	0	7.979563864596275E+002	2.4218166E-001	-5.3391734E-005
3	0	7.984563864469965E+002	2.4205451E-001	4.2035979E-005
3	0	7.989563864343654E+002	2.4190208E-001	3.8648941E-006
3	0	7.994563864217344E+002	2.4175346E-001	6.1121522E-005
3	0	7.999563864091033E+002	2.4164318E-001	-1.2973390E-004
3	0	8.004563863964722E+002	2.4154393E-001	2.2950437E-005
3	0	8.009563863838412E+002	2.4144325E-001	-9.1562819E-005
3	0	8.014563863712101E+002	2.4133739E-001	-3.4306191E-005
3	0	8.019563863585790E+002	2.4123046E-001	6.1121522E-005
3	0	8.024563863459480E+002	2.4110736E-001	-1.8699054E-004
3	0	8.029563863333169E+002	2.4096395E-001	-9.1562819E-005
3	0	8.034563863206859E+002	2.4082027E-001	-1.6790499E-004
3	0	8.039563863080548E+002	2.4071808E-001	-3.4306191E-005
3	0	8.044563862954237E+002	2.4062474E-001	-5.3391734E-005
3	0	8.049563862827927E+002	2.4051847E-001	-1.2973390E-004
3	0	8.054563862701616E+002	2.4041961E-001	-1.1064836E-004
3	0	8.059563862575305E+002	2.4031085E-001	-1.1064836E-004
3	0	8.064563862448995E+002	2.4019569E-001	2.2950437E-005
3	0	8.069563862322684E+002	2.4006055E-001	-1.2973390E-004
3	0	8.074563862196374E+002	2.3992039E-001	-1.6790499E-004
3	0	8.079563862070063E+002	2.3982114E-001	-1.4881945E-004
3	0	8.084563861943752E+002	2.3973070E-001	-9.1562819E-005
3	0	8.089563861817442E+002	2.3964262E-001	-7.2477276E-005
3	0	8.094563861691131E+002	2.3955363E-001	-1.2973390E-004
3	0	8.099563861564820E+002	2.3945451E-001	4.2035979E-005
3	0	8.104563861438510E+002	2.3934358E-001	6.1121522E-005
3	0	8.109563861312199E+002	2.3921400E-001	4.2035979E-005
3	0	8.114563861185889E+002	2.3908341E-001	-1.2973390E-004
3	0	8.119563861059578E+002	2.3900023E-001	3.8648941E-006
3	0	8.124563860933267E+002	2.3891976E-001	-1.1064836E-004
3	0	8.129563860806957E+002	2.3883748E-001	-1.6790499E-004
3	0	8.134563860680646E+002	2.3874997E-001	-1.2973390E-004
3	0	8.139563860554335E+002	2.3866561E-001	-2.4424717E-004
3	0	8.144563860428025E+002	2.3856495E-001	-3.4306191E-005
3	0	8.149563860301714E+002	2.3843864E-001	-3.4306191E-005
3	0	8.154563860175404E+002	2.3831806E-001	3.8648941E-006
3	0	8.159563860049093E+002	2.3823427E-001	2.2950437E-005
3	0	8.164563859922782E+002	2.3816046E-001	-9.1562819E-005
3	0	8.169563859796472E+002	2.3808627E-001	-9.1562819E-005
3	0	8.174563859670161E+002	2.3800555E-001	-5.3391734E-005
3	0	8.179563859543850E+002	2.3792374E-001	-5.3391734E-005
3	0	8.184563859417540E+002	2.3782875E-001	-1.1064836E-004
3	0	8.189563859291229E+002	2.3771356E-001	-1.1064836E-004
3	0	8.194563859164919E+002	2.3759578E-001	-3.4306191E-005
3	0	8.199563859038608E+002	2.3751104E-001	-1.8699054E-004
3	0	8.204563858912297E+002	2.3743840E-001	-9.1562819E-005
3	0	8.209563858785987E+002	2.3735906E-001	6.1121522E-005
3	0	8.214563858659676E+002	2.3728216E-001	-1.6790499E-004
3	0	8.219563858533365E+002	2.3720413E-001	-7.2477276E-005
3	0	8.224563858407055E+002	2.3710521E-001	8.0207064E-005
3	0	8.229563858280744E+002	2.3698917E-001	6.1121522E-005
3	0	8.234563858154434E+002	2.3687020E-001	-5.3391734E-005
3	0	8.239563858028123E+002	2.3678693E-001	4.2035979E-005
3	0	8.244563857901812E+002	2.3670602E-001	-1.4881945E-004
3	0	8.249563857775502E+002	2.3663180E-001	-3.4306191E-005
3	0	8.254563857649191E+002	2.3655084E-001	-1.6790499E-004
3	0	8.259563857522880E+002	2.3647037E-001	-1.2973390E-004
3	0	8.259567857522779E+002	2.3646638E-001	-9.1562819E-005