EC-Lab ASCII FILE
Nb header lines : 55                          

Open Circuit Voltage

Run on channel : 1 (SN 81504)
User : 
CE vs. WE compliance from -10 V to 10 V
Electrode connection : standard
Potential control : Ewe
Ewe ctrl range : min = -2.50 V, max = 2.50 V
Safety Limits :
	Do not start on E overload
Acquisition started on : 05/07/2026 21:17:54.184
Loaded Setting File :  C:\PEM-WE_measurements\2026\372_IV_IV IrOx, 5 min Pt, 30 min C, etched cathode\new station\Loopeis new\1,46 V different time gaps open cell\Loopeis 1,46V_120s_3_PEIS from 6500Hz to 1000Hz.mps
Saved on :
	File : L_23_Loopeis 1,46V_120s_3_PEIS from 6500Hz to 1000Hz_02_OCV_C01.mpr
	Directory : C:\PEM-WE_measurements\2026\372_IV_IV IrOx, 5 min Pt, 30 min C, etched cathode\new station\Loopeis new\1,46 V different time gaps open cell\
	Host : 192.168.0.2
Device : SP-150e (SN .005491)
Address : 192.168.0.91
EC-LAB for windows v11.71 (software)
Internet server v28.00 (firmware)
Command interpretor v14.01 (firmware)
Electrode material : 
Initial state : 
Electrolyte : 
Comments : 
Current amplifier : SP-150eB-20A
Electrode surface area : 0.001 cm²
Characteristic mass : 0.001 g
Equivalent Weight : 0.000 g/eq.
Density : 0.000 g/cm3
Volume (V) : 0.001 cm³
Record Analogic IN 1
Text export
   Mode : Standard
   Time format : Elapsed
Cycle Definition : Charge/Discharge alternance
External device configuration :
   device type : Temperature Probe
   device name : Other
   Analog IN 1 : 
      unit : T/Â°C
      max : 100.000 at 2.000 V
      min : 0.000 at 1.460 V
tR (h:m:s)          0:02:0.0000         
dER/dt (mV/h)       1.0                 
record              <Ewe>               
dER (mV)            10.00               
dtR (s)             0.5000              
E range min (V)     -2.500              
E range max (V)     2.500               

mode	error	time/s	<Ewe/V>	Analog IN 1/V	
3	0	4.549979885057837E+001	1.2298158E+000	-2.7039447E+002
3	0	4.599979883794731E+001	1.1892798E+000	-2.7036618E+002
3	0	4.649979882531625E+001	8.9759547E-001	-2.7037326E+002
3	0	4.699979881268519E+001	4.5544964E-001	-2.7038742E+002
3	0	4.749979880005412E+001	3.4843704E-001	-2.7037677E+002
3	0	4.799979878742306E+001	3.3392495E-001	-2.7037677E+002
3	0	4.849979877479200E+001	3.2587871E-001	-2.7036972E+002
3	0	4.899979876216094E+001	3.1944215E-001	-2.7039093E+002
3	0	4.949979874952987E+001	3.1451666E-001	-2.7038742E+002
3	0	4.999979873689881E+001	3.1077209E-001	-2.7037677E+002
3	0	5.049979872426775E+001	3.0784151E-001	-2.7040506E+002
3	0	5.099979871163669E+001	3.0547836E-001	-2.7033789E+002
3	0	5.149979869900562E+001	3.0352792E-001	-2.7037677E+002
3	0	5.199979868637456E+001	3.0187160E-001	-2.7038742E+002
3	0	5.249979867374350E+001	3.0042723E-001	-2.7038385E+002
3	0	5.299979866111244E+001	2.9913551E-001	-2.7037326E+002
3	0	5.349979864848137E+001	2.9797319E-001	-2.7037326E+002
3	0	5.399979863585031E+001	2.9694355E-001	-2.7039447E+002
3	0	5.449979862321925E+001	2.9600909E-001	-2.7039093E+002
3	0	5.499979861058819E+001	2.9514438E-001	-2.7036618E+002
3	0	5.549979859795712E+001	2.9433212E-001	-2.7038031E+002
3	0	5.599979858532606E+001	2.9357055E-001	-2.7038031E+002
3	0	5.649979857269500E+001	2.9282728E-001	-2.7037677E+002
3	0	5.699979856006394E+001	2.9209223E-001	-2.7037326E+002
3	0	5.749979854743287E+001	2.9136464E-001	-2.7038385E+002
3	0	5.799979853480181E+001	2.9070222E-001	-2.7037677E+002
3	0	5.849979852217075E+001	2.9007110E-001	-2.7035913E+002
3	0	5.899979850953969E+001	2.8945473E-001	-2.7036972E+002
3	0	5.949979849690862E+001	2.8885356E-001	-2.7035913E+002
3	0	5.999979848427756E+001	2.8826427E-001	-2.7035205E+002
3	0	6.049979847164650E+001	2.8766504E-001	-2.7038031E+002
3	0	6.099979845901544E+001	2.8706017E-001	-2.7039093E+002
3	0	6.149979844638438E+001	2.8645673E-001	-2.7038742E+002
3	0	6.199979843375331E+001	2.8589615E-001	-2.7039801E+002
3	0	6.249979842112225E+001	2.8535685E-001	-2.7038385E+002
3	0	6.299979840849119E+001	2.8481930E-001	-2.7036618E+002
3	0	6.349979839586013E+001	2.8428987E-001	-2.7038742E+002
3	0	6.399979838322906E+001	2.8376362E-001	-2.7038031E+002
3	0	6.449979837059800E+001	2.8322905E-001	-2.7038385E+002
3	0	6.499979835796694E+001	2.8267735E-001	-2.7038742E+002
3	0	6.549979834533588E+001	2.8213274E-001	-2.7039093E+002
3	0	6.599979833270481E+001	2.8162843E-001	-2.7037326E+002
3	0	6.649979832007375E+001	2.8112692E-001	-2.7035559E+002
3	0	6.699979830744269E+001	2.8063565E-001	-2.7037677E+002
3	0	6.749979829481163E+001	2.8014511E-001	-2.7038385E+002
3	0	6.799979828218056E+001	2.7966207E-001	-2.7037326E+002
3	0	6.849979826954950E+001	2.7917880E-001	-2.7036972E+002
3	0	6.899979825691844E+001	2.7867296E-001	-2.7038031E+002
3	0	6.949979824428738E+001	2.7816877E-001	-2.7038385E+002
3	0	6.999979823165631E+001	2.7770612E-001	-2.7037677E+002
3	0	7.049979821902525E+001	2.7725011E-001	-2.7037677E+002
3	0	7.099979820639419E+001	2.7679721E-001	-2.7035913E+002
3	0	7.149979819376313E+001	2.7634689E-001	-2.7038031E+002
3	0	7.199979818113206E+001	2.7590010E-001	-2.7034497E+002
3	0	7.249979816850100E+001	2.7544644E-001	-2.7036267E+002
3	0	7.299979815586994E+001	2.7497360E-001	-2.7035559E+002
3	0	7.349979814323888E+001	2.7451396E-001	-2.7036972E+002
3	0	7.399979813060781E+001	2.7408713E-001	-2.7037677E+002
3	0	7.449979811797675E+001	2.7366841E-001	-2.7036618E+002
3	0	7.499979810534569E+001	2.7325079E-001	-2.7039801E+002
3	0	7.549979809271463E+001	2.7283767E-001	-2.7035913E+002
3	0	7.599979808008356E+001	2.7242664E-001	-2.7038385E+002
3	0	7.649979806745250E+001	2.7201572E-001	-2.7037677E+002
3	0	7.699979805482144E+001	2.7157763E-001	-2.7036972E+002
3	0	7.749979804219038E+001	2.7114165E-001	-2.7036267E+002
3	0	7.799979802955932E+001	2.7075627E-001	-2.7038385E+002
3	0	7.849979801692825E+001	2.7037382E-001	-2.7038385E+002
3	0	7.899979800429719E+001	2.6998919E-001	-2.7038031E+002
3	0	7.949979799166613E+001	2.6961437E-001	-2.7038031E+002
3	0	7.999979797903507E+001	2.6924184E-001	-2.7036972E+002
3	0	8.049979796640400E+001	2.6885581E-001	-2.7038031E+002
3	0	8.099979795377294E+001	2.6845768E-001	-2.7036618E+002
3	0	8.149979794114188E+001	2.6805785E-001	-2.7038385E+002
3	0	8.199979792851082E+001	2.6770076E-001	-2.7039093E+002
3	0	8.249979791587975E+001	2.6734853E-001	-2.7036618E+002
3	0	8.299979790324869E+001	2.6699731E-001	-2.7038385E+002
3	0	8.349979789061763E+001	2.6664945E-001	-2.7039093E+002
3	0	8.399979787798657E+001	2.6629964E-001	-2.7039801E+002
3	0	8.449979786535550E+001	2.6594540E-001	-2.7038031E+002
3	0	8.499979785272444E+001	2.6557392E-001	-2.7034851E+002
3	0	8.549979784009338E+001	2.6520500E-001	-2.7038385E+002
3	0	8.599979782746232E+001	2.6487496E-001	-2.7036972E+002
3	0	8.649979781483125E+001	2.6456201E-001	-2.7035913E+002
3	0	8.699979780220019E+001	2.6424211E-001	-2.7038385E+002
3	0	8.749979778956913E+001	2.6392338E-001	-2.7035913E+002
3	0	8.799979777693807E+001	2.6360857E-001	-2.7036267E+002
3	0	8.849979776430700E+001	2.6328415E-001	-2.7036972E+002
3	0	8.899979775167594E+001	2.6293850E-001	-2.7037326E+002
3	0	8.949979773904488E+001	2.6259449E-001	-2.7037326E+002
3	0	8.999979772641382E+001	2.6228973E-001	-2.7039093E+002
3	0	9.049979771378275E+001	2.6200438E-001	-2.7036618E+002
3	0	9.099979770115169E+001	2.6170969E-001	-2.7038742E+002
3	0	9.149979768852063E+001	2.6141059E-001	-2.7038742E+002
3	0	9.199979767588957E+001	2.6111963E-001	-2.7039093E+002
3	0	9.249979766325851E+001	2.6081613E-001	-2.7036618E+002
3	0	9.299979765062744E+001	2.6050040E-001	-2.7039093E+002
3	0	9.349979763799638E+001	2.6017794E-001	-2.7038031E+002
3	0	9.399979762536532E+001	2.5990507E-001	-2.7038031E+002
3	0	9.449979761273426E+001	2.5963905E-001	-2.7038031E+002
3	0	9.499979760010319E+001	2.5936776E-001	-2.7037677E+002
3	0	9.549979758747213E+001	2.5910014E-001	-2.7038742E+002
3	0	9.599979757484107E+001	2.5883374E-001	-2.7039093E+002
3	0	9.649979756221001E+001	2.5855204E-001	-2.7037326E+002
3	0	9.699979754957894E+001	2.5825605E-001	-2.7035913E+002
3	0	9.749979753694788E+001	2.5796571E-001	-2.7038742E+002
3	0	9.799979752431682E+001	2.5772074E-001	-2.7038742E+002
3	0	9.849979751168576E+001	2.5747529E-001	-2.7035559E+002
3	0	9.899979749905469E+001	2.5723413E-001	-2.7036618E+002
3	0	9.949979748642363E+001	2.5698566E-001	-2.7037326E+002
3	0	9.999979747379257E+001	2.5674969E-001	-2.7039093E+002
3	0	1.004997974611615E+002	2.5649092E-001	-2.7039447E+002
3	0	1.009997974485304E+002	2.5622135E-001	-2.7038742E+002
3	0	1.014997974358994E+002	2.5595766E-001	-2.7036618E+002
3	0	1.019997974232683E+002	2.5573212E-001	-2.7039093E+002
3	0	1.024997974106373E+002	2.5551084E-001	-2.7035913E+002
3	0	1.029997973980062E+002	2.5528696E-001	-2.7036972E+002
3	0	1.034997973853751E+002	2.5506777E-001	-2.7037677E+002
3	0	1.039997973727441E+002	2.5485206E-001	-2.7041568E+002
3	0	1.044997973601130E+002	2.5462282E-001	-2.7037677E+002
3	0	1.049997973474819E+002	2.5437739E-001	-2.7038385E+002
3	0	1.054997973348509E+002	2.5412574E-001	-2.7039093E+002
3	0	1.059997973222198E+002	2.5391686E-001	-2.7038031E+002
3	0	1.064997973095888E+002	2.5371727E-001	-2.7039447E+002
3	0	1.069997972969577E+002	2.5351796E-001	-2.7035205E+002
3	0	1.074997972843266E+002	2.5331339E-001	-2.7040155E+002
3	0	1.079997972716956E+002	2.5311276E-001	-2.7036267E+002
3	0	1.084997972590645E+002	2.5289989E-001	-2.7038031E+002
3	0	1.089997972464334E+002	2.5266412E-001	-2.7039093E+002
3	0	1.094997972338024E+002	2.5243545E-001	-2.7035913E+002
3	0	1.099997972211713E+002	2.5224605E-001	-2.7038385E+002
3	0	1.104997972085403E+002	2.5205895E-001	-2.7038031E+002
3	0	1.109997971959092E+002	2.5187457E-001	-2.7038385E+002
3	0	1.114997971832781E+002	2.5168282E-001	-2.7037326E+002
3	0	1.119997971706471E+002	2.5149152E-001	-2.7036618E+002
3	0	1.124997971580160E+002	2.5128934E-001	-2.7037677E+002
3	0	1.129997971453849E+002	2.5106877E-001	-2.7034143E+002
3	0	1.134997971327539E+002	2.5084534E-001	-2.7036618E+002
3	0	1.139997971201228E+002	2.5066236E-001	-2.7036267E+002
3	0	1.144997971074918E+002	2.5049201E-001	-2.7036972E+002
3	0	1.149997970948607E+002	2.5031403E-001	-2.7036972E+002
3	0	1.154997970822296E+002	2.5014398E-001	-2.7039447E+002
3	0	1.159997970695986E+002	2.4997106E-001	-2.7037326E+002
3	0	1.164997970569675E+002	2.4979454E-001	-2.7037677E+002
3	0	1.169997970443364E+002	2.4958746E-001	-2.7036618E+002
3	0	1.174997970317054E+002	2.4938580E-001	-2.7037677E+002
3	0	1.179997970190743E+002	2.4923371E-001	-2.7036618E+002
3	0	1.184997970064433E+002	2.4907452E-001	-2.7037677E+002
3	0	1.189997969938122E+002	2.4892314E-001	-2.7039801E+002
3	0	1.194997969811811E+002	2.4876432E-001	-2.7035913E+002
3	0	1.199997969685501E+002	2.4860345E-001	-2.7036972E+002
3	0	1.204997969559190E+002	2.4843331E-001	-2.7037326E+002
3	0	1.209997969432879E+002	2.4824029E-001	-2.7038385E+002
3	0	1.214997969306569E+002	2.4804954E-001	-2.7038742E+002
3	0	1.219997969180258E+002	2.4790835E-001	-2.7036972E+002
3	0	1.224997969053948E+002	2.4776670E-001	-2.7037326E+002
3	0	1.229997968927637E+002	2.4762067E-001	-2.7037326E+002
3	0	1.234997968801326E+002	2.4747577E-001	-2.7039801E+002
3	0	1.239997968675016E+002	2.4733250E-001	-2.7038031E+002
3	0	1.244997968548705E+002	2.4716938E-001	-2.7038031E+002
3	0	1.249997968422394E+002	2.4698468E-001	-2.7038031E+002
3	0	1.254997968296084E+002	2.4680834E-001	-2.7037326E+002
3	0	1.259997968169773E+002	2.4667560E-001	-2.7037326E+002
3	0	1.264997968043463E+002	2.4654515E-001	-2.7035913E+002
3	0	1.269997967917152E+002	2.4641207E-001	-2.7039093E+002
3	0	1.274997967790841E+002	2.4627130E-001	-2.7037677E+002
3	0	1.279997967664531E+002	2.4613458E-001	-2.7039093E+002
3	0	1.284997967538220E+002	2.4598448E-001	-2.7038385E+002
3	0	1.289997967411909E+002	2.4581586E-001	-2.7036972E+002
3	0	1.294997967285599E+002	2.4564491E-001	-2.7037326E+002
3	0	1.299997967159288E+002	2.4551928E-001	-2.7039093E+002
3	0	1.304997967032978E+002	2.4539810E-001	-2.7038742E+002
3	0	1.309997966906667E+002	2.4527176E-001	-2.7035913E+002
3	0	1.314997966780356E+002	2.4514532E-001	-2.7039093E+002
3	0	1.319997966654046E+002	2.4501197E-001	-2.7038385E+002
3	0	1.324997966527735E+002	2.4487051E-001	-2.7038742E+002
3	0	1.329997966401424E+002	2.4469918E-001	-2.7038385E+002
3	0	1.334997966275114E+002	2.4453524E-001	-2.7037677E+002
3	0	1.339997966148803E+002	2.4441271E-001	-2.7037677E+002
3	0	1.344997966022493E+002	2.4428697E-001	-2.7038385E+002
3	0	1.349997965896182E+002	2.4416466E-001	-2.7035913E+002
3	0	1.354997965769871E+002	2.4403514E-001	-2.7038031E+002
3	0	1.359997965643561E+002	2.4390745E-001	-2.7039447E+002
3	0	1.364997965517250E+002	2.4376959E-001	-2.7036618E+002
3	0	1.369997965390940E+002	2.4361524E-001	-2.7036618E+002
3	0	1.374997965264629E+002	2.4346532E-001	-2.7038385E+002
3	0	1.379997965138318E+002	2.4335778E-001	-2.7038385E+002
3	0	1.384997965012008E+002	2.4325265E-001	-2.7040155E+002
3	0	1.389997964885697E+002	2.4314715E-001	-2.7036618E+002
3	0	1.394997964759386E+002	2.4303976E-001	-2.7036618E+002
3	0	1.399997964633076E+002	2.4292272E-001	-2.7037677E+002
3	0	1.404997964506765E+002	2.4279933E-001	-2.7037326E+002
3	0	1.409997964380455E+002	2.4265987E-001	-2.7037677E+002
3	0	1.414997964254144E+002	2.4252562E-001	-2.7040506E+002
3	0	1.419997964127833E+002	2.4243051E-001	-2.7036267E+002
3	0	1.424997964001523E+002	2.4233048E-001	-2.7038031E+002
3	0	1.429997963875212E+002	2.4223180E-001	-2.7035559E+002
3	0	1.434997963748901E+002	2.4212970E-001	-2.7038031E+002
3	0	1.439997963622591E+002	2.4203108E-001	-2.7037677E+002
3	0	1.444997963496280E+002	2.4192365E-001	-2.7037326E+002
3	0	1.449997963369970E+002	2.4178590E-001	-2.7035559E+002
3	0	1.454997963243659E+002	2.4165273E-001	-2.7036618E+002
3	0	1.459997963117348E+002	2.4156515E-001	-2.7036618E+002
3	0	1.464997962991038E+002	2.4147166E-001	-2.7039093E+002
3	0	1.469997962864727E+002	2.4138165E-001	-2.7039447E+002
3	0	1.474997962738416E+002	2.4128549E-001	-2.7037326E+002
3	0	1.479997962612106E+002	2.4118583E-001	-2.7038031E+002
3	0	1.484997962485795E+002	2.4107620E-001	-2.7039093E+002
3	0	1.489997962359485E+002	2.4094456E-001	-2.7039447E+002
3	0	1.494997962233174E+002	2.4082111E-001	-2.7036972E+002
3	0	1.499997962106863E+002	2.4073301E-001	-2.7038742E+002
3	0	1.504997961980553E+002	2.4064767E-001	-2.7039447E+002
3	0	1.509997961854242E+002	2.4055660E-001	-2.7039093E+002
3	0	1.514997961727931E+002	2.4046807E-001	-2.7038031E+002
3	0	1.519997961601621E+002	2.4037625E-001	-2.7039093E+002
3	0	1.524997961475310E+002	2.4027579E-001	-2.7039447E+002
3	0	1.529997961349000E+002	2.4015167E-001	-2.7037677E+002
3	0	1.534997961222689E+002	2.4002193E-001	-2.7038031E+002
3	0	1.539997961096378E+002	2.3993924E-001	-2.7039093E+002
3	0	1.544997960970068E+002	2.3984930E-001	-2.7038385E+002
3	0	1.549997960843757E+002	2.3975922E-001	-2.7038031E+002
3	0	1.554997960717446E+002	2.3967145E-001	-2.7036972E+002
3	0	1.559997960591136E+002	2.3958358E-001	-2.7035913E+002
3	0	1.564997960464825E+002	2.3948266E-001	-2.7040506E+002
3	0	1.569997960338515E+002	2.3935884E-001	-2.7036618E+002
3	0	1.574997960212204E+002	2.3923624E-001	-2.7036267E+002
3	0	1.579997960085893E+002	2.3916300E-001	-2.7038742E+002
3	0	1.584997959959583E+002	2.3908636E-001	-2.7035559E+002
3	0	1.589997959833272E+002	2.3900960E-001	-2.7037677E+002
3	0	1.594997959706961E+002	2.3893997E-001	-2.7037677E+002
3	0	1.599997959580651E+002	2.3886298E-001	-2.7039447E+002
3	0	1.604997959454340E+002	2.3876454E-001	-2.7040155E+002
3	0	1.609997959328030E+002	2.3864985E-001	-2.7038385E+002
3	0	1.614997959201719E+002	2.3853768E-001	-2.7038742E+002
3	0	1.619997959075408E+002	2.3846972E-001	-2.7038031E+002
3	0	1.624997958949098E+002	2.3839393E-001	-2.7040506E+002
3	0	1.629997958822787E+002	2.3832513E-001	-2.7037326E+002
3	0	1.634997958696476E+002	2.3825231E-001	-2.7038742E+002
3	0	1.639997958570166E+002	2.3818038E-001	-2.7037326E+002
3	0	1.644997958443855E+002	2.3809320E-001	-2.7036972E+002
3	0	1.649997958317545E+002	2.3798573E-001	-2.7038031E+002
3	0	1.650001958317444E+002	2.3793583E-001	-2.7037326E+002