EC-Lab ASCII FILE
Nb header lines : 55                          

Open Circuit Voltage

Run on channel : 1 (SN 81504)
User : 
CE vs. WE compliance from -10 V to 10 V
Electrode connection : standard
Potential control : Ewe
Ewe ctrl range : min = -2.50 V, max = 2.50 V
Safety Limits :
	Do not start on E overload
Acquisition started on : 05/07/2026 21:17:54.184
Loaded Setting File :  C:\PEM-WE_measurements\2026\372_IV_IV IrOx, 5 min Pt, 30 min C, etched cathode\new station\Loopeis new\1,46 V different time gaps open cell\Loopeis 1,46V_120s_3_PEIS from 6500Hz to 1000Hz.mps
Saved on :
	File : L_23_Loopeis 1,46V_120s_3_PEIS from 6500Hz to 1000Hz_20_OCV_C01.mpr
	Directory : C:\PEM-WE_measurements\2026\372_IV_IV IrOx, 5 min Pt, 30 min C, etched cathode\new station\Loopeis new\1,46 V different time gaps open cell\
	Host : 192.168.0.2
Device : SP-150e (SN .005491)
Address : 192.168.0.91
EC-LAB for windows v11.71 (software)
Internet server v28.00 (firmware)
Command interpretor v14.01 (firmware)
Electrode material : 
Initial state : 
Electrolyte : 
Comments : 
Current amplifier : SP-150eB-20A
Electrode surface area : 0.001 cm²
Characteristic mass : 0.001 g
Equivalent Weight : 0.000 g/eq.
Density : 0.000 g/cm3
Volume (V) : 0.001 cm³
Record Analogic IN 1
Text export
   Mode : Standard
   Time format : Elapsed
Cycle Definition : Charge/Discharge alternance
External device configuration :
   device type : Temperature Probe
   device name : Other
   Analog IN 1 : 
      unit : T/Â°C
      max : 100.000 at 2.000 V
      min : 0.000 at 1.460 V
tR (h:m:s)          0:02:0.0000         
dER/dt (mV/h)       1.0                 
record              <Ewe>               
dER (mV)            10.00               
dtR (s)             0.5000              
E range min (V)     -2.500              
E range max (V)     2.500               

mode	error	time/s	<Ewe/V>	Analog IN 1/V	
3	0	1.537030578018675E+003	9.5496887E-001	-2.7040155E+002
3	0	1.537530578006044E+003	1.1456602E+000	-2.7037677E+002
3	0	1.538030577993413E+003	8.4095150E-001	-2.7038742E+002
3	0	1.538530577980782E+003	4.1974044E-001	-2.7039447E+002
3	0	1.539030577968151E+003	3.2180089E-001	-2.7040155E+002
3	0	1.539530577955520E+003	3.1042594E-001	-2.7036972E+002
3	0	1.540030577942889E+003	3.0371135E-001	-2.7036972E+002
3	0	1.540530577930258E+003	2.9805452E-001	-2.7038742E+002
3	0	1.541030577917627E+003	2.9361385E-001	-2.7038031E+002
3	0	1.541530577904996E+003	2.9014155E-001	-2.7040506E+002
3	0	1.542030577892365E+003	2.8740740E-001	-2.7036972E+002
3	0	1.542530577879734E+003	2.8519711E-001	-2.7036972E+002
3	0	1.543030577867103E+003	2.8336751E-001	-2.7038742E+002
3	0	1.543530577854472E+003	2.8182477E-001	-2.7039093E+002
3	0	1.544030577841841E+003	2.8047124E-001	-2.7035913E+002
3	0	1.544530577829210E+003	2.7927914E-001	-2.7036618E+002
3	0	1.545030577816578E+003	2.7825108E-001	-2.7036972E+002
3	0	1.545530577803947E+003	2.7731252E-001	-2.7039093E+002
3	0	1.546030577791316E+003	2.7644894E-001	-2.7035559E+002
3	0	1.546530577778685E+003	2.7565509E-001	-2.7036618E+002
3	0	1.547030577766054E+003	2.7490729E-001	-2.7038031E+002
3	0	1.547530577753423E+003	2.7420107E-001	-2.7039447E+002
3	0	1.548030577740792E+003	2.7350271E-001	-2.7036972E+002
3	0	1.548530577728161E+003	2.7281746E-001	-2.7034851E+002
3	0	1.549030577715530E+003	2.7219886E-001	-2.7037677E+002
3	0	1.549530577702899E+003	2.7160528E-001	-2.7035913E+002
3	0	1.550030577690268E+003	2.7101851E-001	-2.7040506E+002
3	0	1.550530577677637E+003	2.7045324E-001	-2.7039093E+002
3	0	1.551030577665006E+003	2.6989329E-001	-2.7039801E+002
3	0	1.551530577652375E+003	2.6934883E-001	-2.7036267E+002
3	0	1.552030577639744E+003	2.6878795E-001	-2.7037326E+002
3	0	1.552530577627113E+003	2.6821804E-001	-2.7038385E+002
3	0	1.553030577614481E+003	2.6769641E-001	-2.7040860E+002
3	0	1.553530577601850E+003	2.6718223E-001	-2.7038742E+002
3	0	1.554030577589219E+003	2.6667064E-001	-2.7037677E+002
3	0	1.554530577576588E+003	2.6617265E-001	-2.7039801E+002
3	0	1.555030577563957E+003	2.6568180E-001	-2.7038385E+002
3	0	1.555530577551326E+003	2.6518509E-001	-2.7036267E+002
3	0	1.556030577538695E+003	2.6468018E-001	-2.7040860E+002
3	0	1.556530577526064E+003	2.6416600E-001	-2.7039801E+002
3	0	1.557030577513433E+003	2.6369852E-001	-2.7036618E+002
3	0	1.557530577500802E+003	2.6323026E-001	-2.7035913E+002
3	0	1.558030577488171E+003	2.6276928E-001	-2.7037326E+002
3	0	1.558530577475540E+003	2.6231045E-001	-2.7039093E+002
3	0	1.559030577462909E+003	2.6185882E-001	-2.7037326E+002
3	0	1.559530577450278E+003	2.6139906E-001	-2.7036267E+002
3	0	1.560030577437647E+003	2.6092735E-001	-2.7036972E+002
3	0	1.560530577425016E+003	2.6044783E-001	-2.7036618E+002
3	0	1.561030577412384E+003	2.6000422E-001	-2.7035913E+002
3	0	1.561530577399753E+003	2.5957420E-001	-2.7037326E+002
3	0	1.562030577387122E+003	2.5913867E-001	-2.7039093E+002
3	0	1.562530577374491E+003	2.5871471E-001	-2.7038742E+002
3	0	1.563030577361860E+003	2.5828934E-001	-2.7037326E+002
3	0	1.563530577349229E+003	2.5786594E-001	-2.7038031E+002
3	0	1.564030577336598E+003	2.5741771E-001	-2.7038385E+002
3	0	1.564530577323967E+003	2.5696591E-001	-2.7035913E+002
3	0	1.565030577311336E+003	2.5656089E-001	-2.7039093E+002
3	0	1.565530577298705E+003	2.5616246E-001	-2.7039093E+002
3	0	1.566030577286074E+003	2.5575843E-001	-2.7037677E+002
3	0	1.566530577273443E+003	2.5537038E-001	-2.7036972E+002
3	0	1.567030577260812E+003	2.5498074E-001	-2.7036972E+002
3	0	1.567530577248181E+003	2.5458854E-001	-2.7038385E+002
3	0	1.568030577235550E+003	2.5418115E-001	-2.7036972E+002
3	0	1.568530577222919E+003	2.5376046E-001	-2.7038385E+002
3	0	1.569030577210287E+003	2.5338930E-001	-2.7039093E+002
3	0	1.569530577197656E+003	2.5302047E-001	-2.7037677E+002
3	0	1.570030577185025E+003	2.5265208E-001	-2.7035913E+002
3	0	1.570530577172394E+003	2.5228861E-001	-2.7035559E+002
3	0	1.571030577159763E+003	2.5192752E-001	-2.7036972E+002
3	0	1.571530577147132E+003	2.5156146E-001	-2.7038385E+002
3	0	1.572030577134501E+003	2.5117463E-001	-2.7038031E+002
3	0	1.572530577121870E+003	2.5078887E-001	-2.7035913E+002
3	0	1.573030577109239E+003	2.5043723E-001	-2.7040155E+002
3	0	1.573530577096608E+003	2.5010121E-001	-2.7038742E+002
3	0	1.574030577083977E+003	2.4976757E-001	-2.7038031E+002
3	0	1.574530577071346E+003	2.4943762E-001	-2.7039093E+002
3	0	1.575030577058715E+003	2.4910614E-001	-2.7039093E+002
3	0	1.575530577046084E+003	2.4876601E-001	-2.7039093E+002
3	0	1.576030577033453E+003	2.4840549E-001	-2.7036972E+002
3	0	1.576530577020822E+003	2.4804305E-001	-2.7036618E+002
3	0	1.577030577008190E+003	2.4772716E-001	-2.7040155E+002
3	0	1.577530576995559E+003	2.4741222E-001	-2.7037326E+002
3	0	1.578030576982928E+003	2.4709760E-001	-2.7036267E+002
3	0	1.578530576970297E+003	2.4679296E-001	-2.7036972E+002
3	0	1.579030576957666E+003	2.4649161E-001	-2.7039093E+002
3	0	1.579530576945035E+003	2.4617608E-001	-2.7035913E+002
3	0	1.580030576932404E+003	2.4584977E-001	-2.7037326E+002
3	0	1.580530576919773E+003	2.4551725E-001	-2.7038031E+002
3	0	1.581030576907142E+003	2.4522276E-001	-2.7038742E+002
3	0	1.581530576894511E+003	2.4493104E-001	-2.7036618E+002
3	0	1.582030576881880E+003	2.4463929E-001	-2.7038031E+002
3	0	1.582530576869249E+003	2.4435778E-001	-2.7038742E+002
3	0	1.583030576856618E+003	2.4407563E-001	-2.7038031E+002
3	0	1.583530576843987E+003	2.4379161E-001	-2.7040506E+002
3	0	1.584030576831356E+003	2.4348968E-001	-2.7036972E+002
3	0	1.584530576818725E+003	2.4318431E-001	-2.7036267E+002
3	0	1.585030576806093E+003	2.4291700E-001	-2.7035559E+002
3	0	1.585530576793462E+003	2.4265851E-001	-2.7038742E+002
3	0	1.586030576780831E+003	2.4239828E-001	-2.7036267E+002
3	0	1.586530576768200E+003	2.4214053E-001	-2.7036972E+002
3	0	1.587030576755569E+003	2.4188694E-001	-2.7036618E+002
3	0	1.587530576742938E+003	2.4162108E-001	-2.7039093E+002
3	0	1.588030576730307E+003	2.4134155E-001	-2.7036972E+002
3	0	1.588530576717676E+003	2.4105299E-001	-2.7036267E+002
3	0	1.589030576705045E+003	2.4081036E-001	-2.7039447E+002
3	0	1.589530576692414E+003	2.4057406E-001	-2.7036972E+002
3	0	1.590030576679783E+003	2.4033387E-001	-2.7038385E+002
3	0	1.590530576667152E+003	2.4010502E-001	-2.7034851E+002
3	0	1.591030576654521E+003	2.3987556E-001	-2.7038031E+002
3	0	1.591530576641890E+003	2.3962115E-001	-2.7036972E+002
3	0	1.592030576629259E+003	2.3934855E-001	-2.7039447E+002
3	0	1.592530576616628E+003	2.3909974E-001	-2.7038031E+002
3	0	1.593030576603996E+003	2.3888420E-001	-2.7036618E+002
3	0	1.593530576591365E+003	2.3867308E-001	-2.7036972E+002
3	0	1.594030576578734E+003	2.3846109E-001	-2.7039093E+002
3	0	1.594530576566103E+003	2.3825151E-001	-2.7038385E+002
3	0	1.595030576553472E+003	2.3803356E-001	-2.7038742E+002
3	0	1.595530576540841E+003	2.3780623E-001	-2.7035559E+002
3	0	1.596030576528210E+003	2.3756452E-001	-2.7039093E+002
3	0	1.596530576515579E+003	2.3731613E-001	-2.7036618E+002
3	0	1.597030576502948E+003	2.3711637E-001	-2.7040155E+002
3	0	1.597530576490317E+003	2.3692630E-001	-2.7037326E+002
3	0	1.598030576477686E+003	2.3673466E-001	-2.7038031E+002
3	0	1.598530576465055E+003	2.3653759E-001	-2.7038742E+002
3	0	1.599030576452424E+003	2.3633565E-001	-2.7037677E+002
3	0	1.599530576439793E+003	2.3612790E-001	-2.7037677E+002
3	0	1.600030576427162E+003	2.3590150E-001	-2.7039093E+002
3	0	1.600530576414531E+003	2.3567528E-001	-2.7037326E+002
3	0	1.601030576401899E+003	2.3548841E-001	-2.7036267E+002
3	0	1.601530576389268E+003	2.3531285E-001	-2.7038742E+002
3	0	1.602030576376637E+003	2.3513195E-001	-2.7039093E+002
3	0	1.602530576364006E+003	2.3493876E-001	-2.7038385E+002
3	0	1.603030576351375E+003	2.3475549E-001	-2.7039093E+002
3	0	1.603530576338744E+003	2.3456596E-001	-2.7035913E+002
3	0	1.604030576326113E+003	2.3435761E-001	-2.7037677E+002
3	0	1.604530576313482E+003	2.3413643E-001	-2.7040506E+002
3	0	1.605030576300851E+003	2.3396610E-001	-2.7035913E+002
3	0	1.605530576288220E+003	2.3380302E-001	-2.7038031E+002
3	0	1.606030576275589E+003	2.3364154E-001	-2.7038742E+002
3	0	1.606530576262958E+003	2.3347151E-001	-2.7038385E+002
3	0	1.607030576250327E+003	2.3330618E-001	-2.7037677E+002
3	0	1.607530576237696E+003	2.3313524E-001	-2.7039093E+002
3	0	1.608030576225065E+003	2.3294266E-001	-2.7038031E+002
3	0	1.608530576212434E+003	2.3274161E-001	-2.7036972E+002
3	0	1.609030576199802E+003	2.3257828E-001	-2.7039447E+002
3	0	1.609530576187171E+003	2.3243417E-001	-2.7036972E+002
3	0	1.610030576174540E+003	2.3229057E-001	-2.7036972E+002
3	0	1.610530576161909E+003	2.3213798E-001	-2.7040506E+002
3	0	1.611030576149278E+003	2.3198590E-001	-2.7036972E+002
3	0	1.611530576136647E+003	2.3182526E-001	-2.7038385E+002
3	0	1.612030576124016E+003	2.3164083E-001	-2.7036972E+002
3	0	1.612530576111385E+003	2.3144603E-001	-2.7036972E+002
3	0	1.613030576098754E+003	2.3130529E-001	-2.7036972E+002
3	0	1.613530576086123E+003	2.3117572E-001	-2.7037677E+002
3	0	1.614030576073492E+003	2.3103712E-001	-2.7037326E+002
3	0	1.614530576060861E+003	2.3089325E-001	-2.7036618E+002
3	0	1.615030576048230E+003	2.3075670E-001	-2.7039801E+002
3	0	1.615530576035599E+003	2.3060955E-001	-2.7038031E+002
3	0	1.616030576022968E+003	2.3044364E-001	-2.7037677E+002
3	0	1.616530576010337E+003	2.3027056E-001	-2.7037326E+002
3	0	1.617030575997705E+003	2.3013622E-001	-2.7039801E+002
3	0	1.617530575985074E+003	2.3001981E-001	-2.7036618E+002
3	0	1.618030575972443E+003	2.2989239E-001	-2.7039447E+002
3	0	1.618530575959812E+003	2.2976154E-001	-2.7038742E+002
3	0	1.619030575947181E+003	2.2962686E-001	-2.7035559E+002
3	0	1.619530575934550E+003	2.2949235E-001	-2.7035559E+002
3	0	1.620030575921919E+003	2.2932738E-001	-2.7038031E+002
3	0	1.620530575909288E+003	2.2915851E-001	-2.7038742E+002
3	0	1.621030575896657E+003	2.2903009E-001	-2.7038742E+002
3	0	1.621530575884026E+003	2.2891773E-001	-2.7038742E+002
3	0	1.622030575871395E+003	2.2880456E-001	-2.7036972E+002
3	0	1.622530575858764E+003	2.2868066E-001	-2.7038742E+002
3	0	1.623030575846133E+003	2.2855914E-001	-2.7035913E+002
3	0	1.623530575833502E+003	2.2842586E-001	-2.7039093E+002
3	0	1.624030575820871E+003	2.2826864E-001	-2.7036267E+002
3	0	1.624530575808240E+003	2.2810690E-001	-2.7038742E+002
3	0	1.625030575795608E+003	2.2798660E-001	-2.7038385E+002
3	0	1.625530575782977E+003	2.2788365E-001	-2.7042627E+002
3	0	1.626030575770346E+003	2.2777237E-001	-2.7038742E+002
3	0	1.626530575757715E+003	2.2765961E-001	-2.7036267E+002
3	0	1.627030575745084E+003	2.2755145E-001	-2.7039093E+002
3	0	1.627530575732453E+003	2.2743505E-001	-2.7039447E+002
3	0	1.628030575719822E+003	2.2729319E-001	-2.7038742E+002
3	0	1.628530575707191E+003	2.2713795E-001	-2.7037677E+002
3	0	1.629030575694560E+003	2.2702599E-001	-2.7038031E+002
3	0	1.629530575681929E+003	2.2693343E-001	-2.7036972E+002
3	0	1.630030575669298E+003	2.2683898E-001	-2.7037677E+002
3	0	1.630530575656667E+003	2.2673714E-001	-2.7036972E+002
3	0	1.631030575644036E+003	2.2663477E-001	-2.7035205E+002
3	0	1.631530575631405E+003	2.2652164E-001	-2.7035913E+002
3	0	1.632030575618774E+003	2.2638319E-001	-2.7035559E+002
3	0	1.632530575606143E+003	2.2623485E-001	-2.7035559E+002
3	0	1.633030575593511E+003	2.2612657E-001	-2.7036972E+002
3	0	1.633530575580880E+003	2.2604239E-001	-2.7039093E+002
3	0	1.634030575568249E+003	2.2595638E-001	-2.7036267E+002
3	0	1.634530575555618E+003	2.2586000E-001	-2.7038742E+002
3	0	1.635030575542987E+003	2.2576967E-001	-2.7037326E+002
3	0	1.635530575530356E+003	2.2566375E-001	-2.7039093E+002
3	0	1.636030575517725E+003	2.2553702E-001	-2.7036972E+002
3	0	1.636530575505094E+003	2.2539964E-001	-2.7038385E+002
3	0	1.637030575492463E+003	2.2530545E-001	-2.7036618E+002
3	0	1.637530575479832E+003	2.2522511E-001	-2.7038742E+002
3	0	1.638030575467201E+003	2.2513711E-001	-2.7035559E+002
3	0	1.638530575454570E+003	2.2504941E-001	-2.7040506E+002
3	0	1.639030575441939E+003	2.2496811E-001	-2.7039447E+002
3	0	1.639530575429308E+003	2.2487353E-001	-2.7034497E+002
3	0	1.640030575416677E+003	2.2475477E-001	-2.7036618E+002
3	0	1.640530575404046E+003	2.2461861E-001	-2.7038031E+002
3	0	1.641030575391414E+003	2.2452389E-001	-2.7037677E+002
3	0	1.641530575378783E+003	2.2444575E-001	-2.7037677E+002
3	0	1.642030575366152E+003	2.2436354E-001	-2.7037677E+002
3	0	1.642530575353521E+003	2.2427960E-001	-2.7036972E+002
3	0	1.643030575340890E+003	2.2419412E-001	-2.7036618E+002
3	0	1.643530575328259E+003	2.2409323E-001	-2.7036972E+002
3	0	1.644030575315628E+003	2.2397196E-001	-2.7038385E+002
3	0	1.644530575302997E+003	2.2383411E-001	-2.7036267E+002
3	0	1.645030575290366E+003	2.2374405E-001	-2.7036618E+002
3	0	1.645530575277735E+003	2.2367287E-001	-2.7038031E+002
3	0	1.646030575265104E+003	2.2360617E-001	-2.7037326E+002
3	0	1.646530575252473E+003	2.2352518E-001	-2.7036972E+002
3	0	1.647030575239842E+003	2.2344759E-001	-2.7038031E+002
3	0	1.647530575227211E+003	2.2335553E-001	-2.7039093E+002
3	0	1.648030575214580E+003	2.2323307E-001	-2.7038742E+002
3	0	1.648530575201949E+003	2.2310053E-001	-2.7038031E+002
3	0	1.649030575189317E+003	2.2302076E-001	-2.7037326E+002
3	0	1.649530575176686E+003	2.2294803E-001	-2.7038385E+002
3	0	1.650030575164055E+003	2.2287004E-001	-2.7036972E+002
3	0	1.650530575151424E+003	2.2278732E-001	-2.7036267E+002
3	0	1.651030575138793E+003	2.2270909E-001	-2.7036972E+002
3	0	1.651530575126162E+003	2.2262388E-001	-2.7038742E+002
3	0	1.652030575113531E+003	2.2251388E-001	-2.7039447E+002
3	0	1.652530575100900E+003	2.2239664E-001	-2.7038031E+002
3	0	1.653030575088269E+003	2.2232245E-001	-2.7038031E+002
3	0	1.653530575075638E+003	2.2225590E-001	-2.7038031E+002
3	0	1.654030575063007E+003	2.2219001E-001	-2.7035559E+002
3	0	1.654530575050376E+003	2.2211009E-001	-2.7036618E+002
3	0	1.655030575037745E+003	2.2203153E-001	-2.7035913E+002
3	0	1.655530575025114E+003	2.2194950E-001	-2.7038742E+002
3	0	1.656030575012483E+003	2.2184663E-001	-2.7036267E+002
3	0	1.656530574999852E+003	2.2173083E-001	-2.7036972E+002
3	0	1.656556174999205E+003	2.2168489E-001	-2.7036972E+002