EC-Lab ASCII FILE
Nb header lines : 55                          

Open Circuit Voltage

Run on channel : 1 (SN 81504)
User : 
CE vs. WE compliance from -10 V to 10 V
Electrode connection : standard
Potential control : Ewe
Ewe ctrl range : min = -2.50 V, max = 2.50 V
Safety Limits :
	Do not start on E overload
Acquisition started on : 05/07/2026 21:17:54.184
Loaded Setting File :  C:\PEM-WE_measurements\2026\372_IV_IV IrOx, 5 min Pt, 30 min C, etched cathode\new station\Loopeis new\1,46 V different time gaps open cell\Loopeis 1,46V_120s_3_PEIS from 6500Hz to 1000Hz.mps
Saved on :
	File : L_23_Loopeis 1,46V_120s_3_PEIS from 6500Hz to 1000Hz_06_OCV_C01.mpr
	Directory : C:\PEM-WE_measurements\2026\372_IV_IV IrOx, 5 min Pt, 30 min C, etched cathode\new station\Loopeis new\1,46 V different time gaps open cell\
	Host : 192.168.0.2
Device : SP-150e (SN .005491)
Address : 192.168.0.91
EC-LAB for windows v11.71 (software)
Internet server v28.00 (firmware)
Command interpretor v14.01 (firmware)
Electrode material : 
Initial state : 
Electrolyte : 
Comments : 
Current amplifier : SP-150eB-20A
Electrode surface area : 0.001 cm²
Characteristic mass : 0.001 g
Equivalent Weight : 0.000 g/eq.
Density : 0.000 g/cm3
Volume (V) : 0.001 cm³
Record Analogic IN 1
Text export
   Mode : Standard
   Time format : Elapsed
Cycle Definition : Charge/Discharge alternance
External device configuration :
   device type : Temperature Probe
   device name : Other
   Analog IN 1 : 
      unit : T/Â°C
      max : 100.000 at 2.000 V
      min : 0.000 at 1.460 V
tR (h:m:s)          0:02:0.0000         
dER/dt (mV/h)       1.0                 
record              <Ewe>               
dER (mV)            10.00               
dtR (s)             0.5000              
E range min (V)     -2.500              
E range max (V)     2.500               

mode	error	time/s	<Ewe/V>	Analog IN 1/V	
3	0	3.754765937870252E+002	1.2277887E+000	-2.7039447E+002
3	0	3.759765937743941E+002	1.1854852E+000	-2.7037677E+002
3	0	3.764765937617631E+002	8.8211548E-001	-2.7037326E+002
3	0	3.769765937491320E+002	4.4943801E-001	-2.7038031E+002
3	0	3.774765937365009E+002	3.4755364E-001	-2.7040506E+002
3	0	3.779765937238699E+002	3.3352017E-001	-2.7039801E+002
3	0	3.784765937112388E+002	3.2551676E-001	-2.7037677E+002
3	0	3.789765936986078E+002	3.1913537E-001	-2.7038742E+002
3	0	3.794765936859767E+002	3.1425795E-001	-2.7040506E+002
3	0	3.799765936733456E+002	3.1051111E-001	-2.7038031E+002
3	0	3.804765936607146E+002	3.0755791E-001	-2.7039447E+002
3	0	3.809765936480835E+002	3.0515185E-001	-2.7038385E+002
3	0	3.814765936354524E+002	3.0317771E-001	-2.7035913E+002
3	0	3.819765936228214E+002	3.0152425E-001	-2.7039801E+002
3	0	3.824765936101903E+002	3.0009860E-001	-2.7039093E+002
3	0	3.829765935975593E+002	2.9883620E-001	-2.7039093E+002
3	0	3.834765935849282E+002	2.9771453E-001	-2.7040506E+002
3	0	3.839765935722971E+002	2.9668927E-001	-2.7038742E+002
3	0	3.844765935596661E+002	2.9572609E-001	-2.7039447E+002
3	0	3.849765935470350E+002	2.9481584E-001	-2.7038385E+002
3	0	3.854765935344039E+002	2.9397690E-001	-2.7039447E+002
3	0	3.859765935217729E+002	2.9321781E-001	-2.7036972E+002
3	0	3.864765935091418E+002	2.9248348E-001	-2.7037326E+002
3	0	3.869765934965108E+002	2.9178536E-001	-2.7039801E+002
3	0	3.874765934838797E+002	2.9110616E-001	-2.7038742E+002
3	0	3.879765934712486E+002	2.9044315E-001	-2.7037677E+002
3	0	3.884765934586176E+002	2.8978467E-001	-2.7036972E+002
3	0	3.889765934459865E+002	2.8912038E-001	-2.7040860E+002
3	0	3.894765934333554E+002	2.8849709E-001	-2.7037677E+002
3	0	3.899765934207244E+002	2.8790686E-001	-2.7039093E+002
3	0	3.904765934080933E+002	2.8732979E-001	-2.7039801E+002
3	0	3.909765933954623E+002	2.8675956E-001	-2.7036972E+002
3	0	3.914765933828312E+002	2.8619587E-001	-2.7039447E+002
3	0	3.919765933702001E+002	2.8563771E-001	-2.7037677E+002
3	0	3.924765933575691E+002	2.8506896E-001	-2.7040860E+002
3	0	3.929765933449380E+002	2.8448766E-001	-2.7035913E+002
3	0	3.934765933323069E+002	2.8392589E-001	-2.7038385E+002
3	0	3.939765933196759E+002	2.8340510E-001	-2.7037677E+002
3	0	3.944765933070448E+002	2.8288773E-001	-2.7040860E+002
3	0	3.949765932944138E+002	2.8238112E-001	-2.7038385E+002
3	0	3.954765932817827E+002	2.8187722E-001	-2.7036972E+002
3	0	3.959765932691516E+002	2.8136489E-001	-2.7039093E+002
3	0	3.964765932565206E+002	2.8084856E-001	-2.7036267E+002
3	0	3.969765932438895E+002	2.8031987E-001	-2.7039801E+002
3	0	3.974765932312584E+002	2.7980852E-001	-2.7039093E+002
3	0	3.979765932186274E+002	2.7934006E-001	-2.7040860E+002
3	0	3.984765932059963E+002	2.7887216E-001	-2.7041568E+002
3	0	3.989765931933653E+002	2.7840450E-001	-2.7038742E+002
3	0	3.994765931807342E+002	2.7794495E-001	-2.7038742E+002
3	0	3.999765931681031E+002	2.7747723E-001	-2.7038031E+002
3	0	4.004765931554721E+002	2.7700153E-001	-2.7038742E+002
3	0	4.009765931428410E+002	2.7650702E-001	-2.7036618E+002
3	0	4.014765931302099E+002	2.7603969E-001	-2.7038742E+002
3	0	4.019765931175789E+002	2.7560827E-001	-2.7037326E+002
3	0	4.024765931049478E+002	2.7517244E-001	-2.7039447E+002
3	0	4.029765930923168E+002	2.7474439E-001	-2.7037326E+002
3	0	4.034765930796857E+002	2.7432328E-001	-2.7039447E+002
3	0	4.039765930670546E+002	2.7389431E-001	-2.7038742E+002
3	0	4.044765930544236E+002	2.7345666E-001	-2.7035559E+002
3	0	4.049765930417925E+002	2.7299875E-001	-2.7039447E+002
3	0	4.054765930291615E+002	2.7256337E-001	-2.7036972E+002
3	0	4.059765930165304E+002	2.7217096E-001	-2.7040155E+002
3	0	4.064765930038993E+002	2.7177301E-001	-2.7038031E+002
3	0	4.069765929912683E+002	2.7136615E-001	-2.7037326E+002
3	0	4.074765929786372E+002	2.7096796E-001	-2.7038742E+002
3	0	4.079765929660061E+002	2.7057365E-001	-2.7037677E+002
3	0	4.084765929533751E+002	2.7016056E-001	-2.7035559E+002
3	0	4.089765929407440E+002	2.6973927E-001	-2.7038385E+002
3	0	4.094765929281130E+002	2.6934388E-001	-2.7038385E+002
3	0	4.099765929154819E+002	2.6897836E-001	-2.7040506E+002
3	0	4.104765929028508E+002	2.6861355E-001	-2.7036267E+002
3	0	4.109765928902198E+002	2.6824909E-001	-2.7034851E+002
3	0	4.114765928775887E+002	2.6788571E-001	-2.7038031E+002
3	0	4.119765928649576E+002	2.6751953E-001	-2.7037326E+002
3	0	4.124765928523266E+002	2.6714134E-001	-2.7038385E+002
3	0	4.129765928396955E+002	2.6675355E-001	-2.7038385E+002
3	0	4.134765928270645E+002	2.6637763E-001	-2.7036618E+002
3	0	4.139765928144334E+002	2.6604170E-001	-2.7038031E+002
3	0	4.144765928018023E+002	2.6571119E-001	-2.7037677E+002
3	0	4.149765927891713E+002	2.6537019E-001	-2.7040506E+002
3	0	4.154765927765402E+002	2.6503295E-001	-2.7037677E+002
3	0	4.159765927639091E+002	2.6469660E-001	-2.7038385E+002
3	0	4.164765927512781E+002	2.6435208E-001	-2.7039093E+002
3	0	4.169765927386470E+002	2.6398295E-001	-2.7039093E+002
3	0	4.174765927260160E+002	2.6364312E-001	-2.7038031E+002
3	0	4.179765927133849E+002	2.6334307E-001	-2.7039447E+002
3	0	4.184765927007538E+002	2.6303330E-001	-2.7035559E+002
3	0	4.189765926881228E+002	2.6273081E-001	-2.7038385E+002
3	0	4.194765926754917E+002	2.6242667E-001	-2.7038742E+002
3	0	4.199765926628606E+002	2.6212379E-001	-2.7037326E+002
3	0	4.204765926502296E+002	2.6180148E-001	-2.7036972E+002
3	0	4.209765926375985E+002	2.6146457E-001	-2.7037326E+002
3	0	4.214765926249675E+002	2.6115003E-001	-2.7039447E+002
3	0	4.219765926123364E+002	2.6087216E-001	-2.7038742E+002
3	0	4.224765925997053E+002	2.6059908E-001	-2.7039093E+002
3	0	4.229765925870743E+002	2.6032230E-001	-2.7037677E+002
3	0	4.234765925744432E+002	2.6004073E-001	-2.7037677E+002
3	0	4.239765925618121E+002	2.5976557E-001	-2.7036972E+002
3	0	4.244765925491811E+002	2.5947767E-001	-2.7039093E+002
3	0	4.249765925365500E+002	2.5916901E-001	-2.7035559E+002
3	0	4.254765925239190E+002	2.5888062E-001	-2.7037326E+002
3	0	4.259765925112879E+002	2.5862738E-001	-2.7035913E+002
3	0	4.264765924986568E+002	2.5837848E-001	-2.7035205E+002
3	0	4.269765924860258E+002	2.5812396E-001	-2.7037677E+002
3	0	4.274765924733947E+002	2.5786716E-001	-2.7037326E+002
3	0	4.279765924607636E+002	2.5761491E-001	-2.7038031E+002
3	0	4.284765924481326E+002	2.5734428E-001	-2.7037677E+002
3	0	4.289765924355015E+002	2.5705004E-001	-2.7038385E+002
3	0	4.294765924228705E+002	2.5678745E-001	-2.7038385E+002
3	0	4.299765924102394E+002	2.5655669E-001	-2.7038031E+002
3	0	4.304765923976083E+002	2.5632736E-001	-2.7036618E+002
3	0	4.309765923849773E+002	2.5609699E-001	-2.7038385E+002
3	0	4.314765923723462E+002	2.5586686E-001	-2.7038742E+002
3	0	4.319765923597151E+002	2.5563508E-001	-2.7039447E+002
3	0	4.324765923470841E+002	2.5538278E-001	-2.7038031E+002
3	0	4.329765923344530E+002	2.5511298E-001	-2.7036972E+002
3	0	4.334765923218220E+002	2.5487092E-001	-2.7037326E+002
3	0	4.339765923091909E+002	2.5466034E-001	-2.7038385E+002
3	0	4.344765922965598E+002	2.5444922E-001	-2.7036618E+002
3	0	4.349765922839288E+002	2.5424162E-001	-2.7036972E+002
3	0	4.354765922712977E+002	2.5402692E-001	-2.7036972E+002
3	0	4.359765922586666E+002	2.5380713E-001	-2.7038031E+002
3	0	4.364765922460356E+002	2.5357556E-001	-2.7036267E+002
3	0	4.369765922334045E+002	2.5331834E-001	-2.7035205E+002
3	0	4.374765922207735E+002	2.5309652E-001	-2.7038742E+002
3	0	4.379765922081424E+002	2.5290361E-001	-2.7036267E+002
3	0	4.384765921955113E+002	2.5270313E-001	-2.7038031E+002
3	0	4.389765921828803E+002	2.5250983E-001	-2.7037677E+002
3	0	4.394765921702492E+002	2.5231373E-001	-2.7037326E+002
3	0	4.399765921576181E+002	2.5211737E-001	-2.7034851E+002
3	0	4.404765921449871E+002	2.5190276E-001	-2.7036972E+002
3	0	4.409765921323560E+002	2.5167140E-001	-2.7037326E+002
3	0	4.414765921197250E+002	2.5146034E-001	-2.7038385E+002
3	0	4.419765921070939E+002	2.5128591E-001	-2.7038385E+002
3	0	4.424765920944628E+002	2.5111863E-001	-2.7037677E+002
3	0	4.429765920818318E+002	2.5093222E-001	-2.7037326E+002
3	0	4.434765920692007E+002	2.5075656E-001	-2.7038385E+002
3	0	4.439765920565696E+002	2.5057602E-001	-2.7038385E+002
3	0	4.444765920439386E+002	2.5037846E-001	-2.7037326E+002
3	0	4.449765920313075E+002	2.5015560E-001	-2.7038385E+002
3	0	4.454765920186765E+002	2.4995986E-001	-2.7038385E+002
3	0	4.459765920060454E+002	2.4979982E-001	-2.7036618E+002
3	0	4.464765919934143E+002	2.4964353E-001	-2.7037326E+002
3	0	4.469765919807833E+002	2.4948084E-001	-2.7038031E+002
3	0	4.474765919681522E+002	2.4932308E-001	-2.7037677E+002
3	0	4.479765919555211E+002	2.4916022E-001	-2.7038385E+002
3	0	4.484765919428901E+002	2.4897186E-001	-2.7037326E+002
3	0	4.489765919302590E+002	2.4877426E-001	-2.7037326E+002
3	0	4.494765919176280E+002	2.4859825E-001	-2.7036972E+002
3	0	4.499765919049969E+002	2.4844837E-001	-2.7036972E+002
3	0	4.504765918923658E+002	2.4830419E-001	-2.7036267E+002
3	0	4.509765918797348E+002	2.4815263E-001	-2.7038031E+002
3	0	4.514765918671037E+002	2.4800877E-001	-2.7035205E+002
3	0	4.519765918544726E+002	2.4785550E-001	-2.7039447E+002
3	0	4.524765918418416E+002	2.4768008E-001	-2.7036618E+002
3	0	4.529765918292105E+002	2.4748939E-001	-2.7040155E+002
3	0	4.534765918165795E+002	2.4732047E-001	-2.7040155E+002
3	0	4.539765918039484E+002	2.4717467E-001	-2.7038031E+002
3	0	4.544765917913173E+002	2.4703860E-001	-2.7037677E+002
3	0	4.549765917786863E+002	2.4689376E-001	-2.7039447E+002
3	0	4.554765917660552E+002	2.4674781E-001	-2.7036267E+002
3	0	4.559765917534241E+002	2.4660550E-001	-2.7038385E+002
3	0	4.564765917407931E+002	2.4644049E-001	-2.7039093E+002
3	0	4.569765917281620E+002	2.4625516E-001	-2.7036972E+002
3	0	4.574765917155310E+002	2.4609324E-001	-2.7036972E+002
3	0	4.579765917028999E+002	2.4596664E-001	-2.7039801E+002
3	0	4.584765916902688E+002	2.4583945E-001	-2.7038742E+002
3	0	4.589765916776378E+002	2.4571329E-001	-2.7039801E+002
3	0	4.594765916650067E+002	2.4558724E-001	-2.7036267E+002
3	0	4.599765916523756E+002	2.4545895E-001	-2.7038385E+002
3	0	4.604765916397446E+002	2.4529852E-001	-2.7033789E+002
3	0	4.609765916271135E+002	2.4513078E-001	-2.7039801E+002
3	0	4.614765916144825E+002	2.4498117E-001	-2.7038385E+002
3	0	4.619765916018514E+002	2.4486320E-001	-2.7038385E+002
3	0	4.624765915892203E+002	2.4474946E-001	-2.7036618E+002
3	0	4.629765915765893E+002	2.4462542E-001	-2.7038742E+002
3	0	4.634765915639582E+002	2.4450935E-001	-2.7037326E+002
3	0	4.639765915513271E+002	2.4438964E-001	-2.7037677E+002
3	0	4.644765915386961E+002	2.4424869E-001	-2.7039093E+002
3	0	4.649765915260650E+002	2.4408236E-001	-2.7039447E+002
3	0	4.654765915134340E+002	2.4394137E-001	-2.7037677E+002
3	0	4.659765915008029E+002	2.4383609E-001	-2.7037677E+002
3	0	4.664765914881718E+002	2.4373421E-001	-2.7037326E+002
3	0	4.669765914755408E+002	2.4361910E-001	-2.7038031E+002
3	0	4.674765914629097E+002	2.4351136E-001	-2.7036618E+002
3	0	4.679765914502786E+002	2.4339569E-001	-2.7038031E+002
3	0	4.684765914376476E+002	2.4325882E-001	-2.7037677E+002
3	0	4.689765914250165E+002	2.4311215E-001	-2.7039093E+002
3	0	4.694765914123855E+002	2.4297538E-001	-2.7037677E+002
3	0	4.699765913997544E+002	2.4287777E-001	-2.7040860E+002
3	0	4.704765913871233E+002	2.4278457E-001	-2.7037677E+002
3	0	4.709765913744923E+002	2.4268013E-001	-2.7039447E+002
3	0	4.714765913618612E+002	2.4257718E-001	-2.7038031E+002
3	0	4.719765913492301E+002	2.4246849E-001	-2.7038031E+002
3	0	4.724765913365991E+002	2.4234247E-001	-2.7036618E+002
3	0	4.729765913239680E+002	2.4219604E-001	-2.7036267E+002
3	0	4.734765913113370E+002	2.4206801E-001	-2.7038031E+002
3	0	4.739765912987059E+002	2.4197853E-001	-2.7036267E+002
3	0	4.744765912860748E+002	2.4188621E-001	-2.7037677E+002
3	0	4.749765912734438E+002	2.4178514E-001	-2.7038385E+002
3	0	4.754765912608127E+002	2.4168299E-001	-2.7036972E+002
3	0	4.759765912481816E+002	2.4158399E-001	-2.7039447E+002
3	0	4.764765912355506E+002	2.4146236E-001	-2.7037326E+002
3	0	4.769765912229195E+002	2.4131888E-001	-2.7038031E+002
3	0	4.774765912102885E+002	2.4119459E-001	-2.7038385E+002
3	0	4.779765911976574E+002	2.4110350E-001	-2.7039801E+002
3	0	4.784765911850263E+002	2.4101853E-001	-2.7039093E+002
3	0	4.789765911723953E+002	2.4092028E-001	-2.7039093E+002
3	0	4.794765911597642E+002	2.4082510E-001	-2.7036618E+002
3	0	4.799765911471331E+002	2.4073048E-001	-2.7039447E+002
3	0	4.804765911345021E+002	2.4061689E-001	-2.7039447E+002
3	0	4.809765911218710E+002	2.4048300E-001	-2.7039447E+002
3	0	4.814765911092400E+002	2.4036761E-001	-2.7037326E+002
3	0	4.819765910966089E+002	2.4029757E-001	-2.7037677E+002
3	0	4.824765910839778E+002	2.4022022E-001	-2.7040155E+002
3	0	4.829765910713468E+002	2.4014163E-001	-2.7040155E+002
3	0	4.834765910587157E+002	2.4005756E-001	-2.7037326E+002
3	0	4.839765910460847E+002	2.3996425E-001	-2.7036618E+002
3	0	4.844765910334536E+002	2.3985238E-001	-2.7036267E+002
3	0	4.849765910208225E+002	2.3972520E-001	-2.7036267E+002
3	0	4.854765910081915E+002	2.3962176E-001	-2.7035913E+002
3	0	4.859765909955604E+002	2.3954925E-001	-2.7038031E+002
3	0	4.864765909829293E+002	2.3947401E-001	-2.7038031E+002
3	0	4.869765909702983E+002	2.3939215E-001	-2.7035559E+002
3	0	4.874765909576672E+002	2.3931213E-001	-2.7038385E+002
3	0	4.879765909450362E+002	2.3922931E-001	-2.7037677E+002
3	0	4.884765909324051E+002	2.3912428E-001	-2.7039093E+002
3	0	4.889765909197740E+002	2.3900405E-001	-2.7038742E+002
3	0	4.894765909071430E+002	2.3890558E-001	-2.7038742E+002
3	0	4.899765908945119E+002	2.3883626E-001	-2.7039447E+002
3	0	4.904765908818808E+002	2.3876493E-001	-2.7035913E+002
3	0	4.909765908692498E+002	2.3868687E-001	-2.7038031E+002
3	0	4.914765908566187E+002	2.3861153E-001	-2.7039801E+002
3	0	4.919765908439877E+002	2.3853566E-001	-2.7038742E+002
3	0	4.924765908313566E+002	2.3843317E-001	-2.7037677E+002
3	0	4.929765908187255E+002	2.3831657E-001	-2.7038385E+002
3	0	4.934765908060945E+002	2.3822483E-001	-2.7037677E+002
3	0	4.939765907934634E+002	2.3815860E-001	-2.7037677E+002
3	0	4.944765907808323E+002	2.3808873E-001	-2.7039447E+002
3	0	4.949765907682013E+002	2.3801664E-001	-2.7036618E+002
3	0	4.949769907681912E+002	2.3791675E-001	-2.7038031E+002