EC-Lab ASCII FILE
Nb header lines : 55                          

Open Circuit Voltage

Run on channel : 1 (SN 81504)
User : 
CE vs. WE compliance from -10 V to 10 V
Electrode connection : standard
Potential control : Ewe
Ewe ctrl range : min = -2.50 V, max = 2.50 V
Safety Limits :
	Do not start on E overload
Acquisition started on : 05/07/2026 21:17:54.184
Loaded Setting File :  C:\PEM-WE_measurements\2026\372_IV_IV IrOx, 5 min Pt, 30 min C, etched cathode\new station\Loopeis new\1,46 V different time gaps open cell\Loopeis 1,46V_120s_3_PEIS from 6500Hz to 1000Hz.mps
Saved on :
	File : L_23_Loopeis 1,46V_120s_3_PEIS from 6500Hz to 1000Hz_18_OCV_C01.mpr
	Directory : C:\PEM-WE_measurements\2026\372_IV_IV IrOx, 5 min Pt, 30 min C, etched cathode\new station\Loopeis new\1,46 V different time gaps open cell\
	Host : 192.168.0.2
Device : SP-150e (SN .005491)
Address : 192.168.0.91
EC-LAB for windows v11.71 (software)
Internet server v28.00 (firmware)
Command interpretor v14.01 (firmware)
Electrode material : 
Initial state : 
Electrolyte : 
Comments : 
Current amplifier : SP-150eB-20A
Electrode surface area : 0.001 cm²
Characteristic mass : 0.001 g
Equivalent Weight : 0.000 g/eq.
Density : 0.000 g/cm3
Volume (V) : 0.001 cm³
Record Analogic IN 1
Text export
   Mode : Standard
   Time format : Elapsed
Cycle Definition : Charge/Discharge alternance
External device configuration :
   device type : Temperature Probe
   device name : Other
   Analog IN 1 : 
      unit : T/Â°C
      max : 100.000 at 2.000 V
      min : 0.000 at 1.460 V
tR (h:m:s)          0:02:0.0000         
dER/dt (mV/h)       1.0                 
record              <Ewe>               
dER (mV)            10.00               
dtR (s)             0.5000              
E range min (V)     -2.500              
E range max (V)     2.500               

mode	error	time/s	<Ewe/V>	Analog IN 1/V	
3	0	1.369849978807397E+003	1.2282796E+000	-2.7038385E+002
3	0	1.370349978794766E+003	1.1856840E+000	-2.7035559E+002
3	0	1.370849978782135E+003	8.7959254E-001	-2.7038031E+002
3	0	1.371349978769504E+003	4.4694534E-001	-2.7037326E+002
3	0	1.371849978756873E+003	3.4697396E-001	-2.7036972E+002
3	0	1.372349978744242E+003	3.3326492E-001	-2.7038742E+002
3	0	1.372849978731610E+003	3.2532862E-001	-2.7036267E+002
3	0	1.373349978718979E+003	3.1900030E-001	-2.7040155E+002
3	0	1.373849978706348E+003	3.1415945E-001	-2.7039447E+002
3	0	1.374349978693717E+003	3.1044474E-001	-2.7040155E+002
3	0	1.374849978681086E+003	3.0751571E-001	-2.7037677E+002
3	0	1.375349978668455E+003	3.0514050E-001	-2.7037326E+002
3	0	1.375849978655824E+003	3.0316439E-001	-2.7036618E+002
3	0	1.376349978643193E+003	3.0147028E-001	-2.7037326E+002
3	0	1.376849978630562E+003	3.0001062E-001	-2.7037677E+002
3	0	1.377349978617931E+003	2.9875788E-001	-2.7037326E+002
3	0	1.377849978605300E+003	2.9764423E-001	-2.7038385E+002
3	0	1.378349978592669E+003	2.9662520E-001	-2.7037326E+002
3	0	1.378849978580038E+003	2.9568347E-001	-2.7038385E+002
3	0	1.379349978567407E+003	2.9481015E-001	-2.7039801E+002
3	0	1.379849978554776E+003	2.9397675E-001	-2.7039093E+002
3	0	1.380349978542145E+003	2.9317635E-001	-2.7036972E+002
3	0	1.380849978529513E+003	2.9239789E-001	-2.7040860E+002
3	0	1.381349978516882E+003	2.9169938E-001	-2.7039093E+002
3	0	1.381849978504251E+003	2.9102331E-001	-2.7035205E+002
3	0	1.382349978491620E+003	2.9037035E-001	-2.7039801E+002
3	0	1.382849978478989E+003	2.8974012E-001	-2.7037677E+002
3	0	1.383349978466358E+003	2.8911781E-001	-2.7037326E+002
3	0	1.383849978453727E+003	2.8849563E-001	-2.7038385E+002
3	0	1.384349978441096E+003	2.8786492E-001	-2.7037326E+002
3	0	1.384849978428465E+003	2.8725535E-001	-2.7036618E+002
3	0	1.385349978415834E+003	2.8668749E-001	-2.7035205E+002
3	0	1.385849978403203E+003	2.8612885E-001	-2.7039447E+002
3	0	1.386349978390572E+003	2.8558248E-001	-2.7039093E+002
3	0	1.386849978377941E+003	2.8503734E-001	-2.7038385E+002
3	0	1.387349978365310E+003	2.8450245E-001	-2.7039801E+002
3	0	1.387849978352679E+003	2.8395522E-001	-2.7037326E+002
3	0	1.388349978340048E+003	2.8339586E-001	-2.7037326E+002
3	0	1.388849978327416E+003	2.8284469E-001	-2.7038031E+002
3	0	1.389349978314785E+003	2.8233889E-001	-2.7037326E+002
3	0	1.389849978302154E+003	2.8184533E-001	-2.7041214E+002
3	0	1.390349978289523E+003	2.8134981E-001	-2.7037326E+002
3	0	1.390849978276892E+003	2.8086010E-001	-2.7038031E+002
3	0	1.391349978264261E+003	2.8036341E-001	-2.7039447E+002
3	0	1.391849978251630E+003	2.7986267E-001	-2.7036972E+002
3	0	1.392349978238999E+003	2.7934843E-001	-2.7038385E+002
3	0	1.392849978226368E+003	2.7884588E-001	-2.7037677E+002
3	0	1.393349978213737E+003	2.7838495E-001	-2.7039447E+002
3	0	1.393849978201106E+003	2.7793053E-001	-2.7037677E+002
3	0	1.394349978188475E+003	2.7747589E-001	-2.7036972E+002
3	0	1.394849978175844E+003	2.7702338E-001	-2.7040506E+002
3	0	1.395349978163213E+003	2.7656776E-001	-2.7036618E+002
3	0	1.395849978150582E+003	2.7610445E-001	-2.7037326E+002
3	0	1.396349978137951E+003	2.7562907E-001	-2.7039801E+002
3	0	1.396849978125319E+003	2.7515912E-001	-2.7039447E+002
3	0	1.397349978112688E+003	2.7473995E-001	-2.7035559E+002
3	0	1.397849978100057E+003	2.7433112E-001	-2.7038742E+002
3	0	1.398349978087426E+003	2.7390954E-001	-2.7040155E+002
3	0	1.398849978074795E+003	2.7348921E-001	-2.7038742E+002
3	0	1.399349978062164E+003	2.7306458E-001	-2.7036972E+002
3	0	1.399849978049533E+003	2.7263033E-001	-2.7037677E+002
3	0	1.400349978036902E+003	2.7219486E-001	-2.7038385E+002
3	0	1.400849978024271E+003	2.7176327E-001	-2.7038031E+002
3	0	1.401349978011640E+003	2.7136239E-001	-2.7041214E+002
3	0	1.401849977999009E+003	2.7097756E-001	-2.7034143E+002
3	0	1.402349977986378E+003	2.7058616E-001	-2.7038031E+002
3	0	1.402849977973747E+003	2.7019376E-001	-2.7039801E+002
3	0	1.403349977961116E+003	2.6980883E-001	-2.7035913E+002
3	0	1.403849977948485E+003	2.6941895E-001	-2.7038031E+002
3	0	1.404349977935854E+003	2.6900870E-001	-2.7039093E+002
3	0	1.404849977923222E+003	2.6860932E-001	-2.7039447E+002
3	0	1.405349977910591E+003	2.6825941E-001	-2.7038742E+002
3	0	1.405849977897960E+003	2.6790258E-001	-2.7040155E+002
3	0	1.406349977885329E+003	2.6754525E-001	-2.7038742E+002
3	0	1.406849977872698E+003	2.6719362E-001	-2.7038385E+002
3	0	1.407349977860067E+003	2.6684299E-001	-2.7036267E+002
3	0	1.407849977847436E+003	2.6647800E-001	-2.7037326E+002
3	0	1.408349977834805E+003	2.6609305E-001	-2.7039447E+002
3	0	1.408849977822174E+003	2.6573518E-001	-2.7036972E+002
3	0	1.409349977809543E+003	2.6540542E-001	-2.7036972E+002
3	0	1.409849977796912E+003	2.6507807E-001	-2.7037677E+002
3	0	1.410349977784281E+003	2.6475546E-001	-2.7038742E+002
3	0	1.410849977771650E+003	2.6443684E-001	-2.7035913E+002
3	0	1.411349977759019E+003	2.6411581E-001	-2.7036267E+002
3	0	1.411849977746388E+003	2.6378363E-001	-2.7037326E+002
3	0	1.412349977733757E+003	2.6342812E-001	-2.7039447E+002
3	0	1.412849977721125E+003	2.6309338E-001	-2.7040860E+002
3	0	1.413349977708494E+003	2.6279226E-001	-2.7040860E+002
3	0	1.413849977695863E+003	2.6249653E-001	-2.7039801E+002
3	0	1.414349977683232E+003	2.6220036E-001	-2.7039801E+002
3	0	1.414849977670601E+003	2.6190710E-001	-2.7037326E+002
3	0	1.415349977657970E+003	2.6160958E-001	-2.7037326E+002
3	0	1.415849977645339E+003	2.6129735E-001	-2.7038742E+002
3	0	1.416349977632708E+003	2.6097038E-001	-2.7040155E+002
3	0	1.416849977620077E+003	2.6065952E-001	-2.7035913E+002
3	0	1.417349977607446E+003	2.6038888E-001	-2.7038031E+002
3	0	1.417849977594815E+003	2.6012164E-001	-2.7038385E+002
3	0	1.418349977582184E+003	2.5985226E-001	-2.7039801E+002
3	0	1.418849977569553E+003	2.5959018E-001	-2.7036972E+002
3	0	1.419349977556922E+003	2.5931713E-001	-2.7038385E+002
3	0	1.419849977544291E+003	2.5903690E-001	-2.7038742E+002
3	0	1.420349977531660E+003	2.5873458E-001	-2.7037326E+002
3	0	1.420849977519028E+003	2.5844261E-001	-2.7037677E+002
3	0	1.421349977506397E+003	2.5819206E-001	-2.7038742E+002
3	0	1.421849977493766E+003	2.5794911E-001	-2.7038385E+002
3	0	1.422349977481135E+003	2.5769836E-001	-2.7040155E+002
3	0	1.422849977468504E+003	2.5745121E-001	-2.7038385E+002
3	0	1.423349977455873E+003	2.5719795E-001	-2.7037677E+002
3	0	1.423849977443242E+003	2.5693843E-001	-2.7035913E+002
3	0	1.424349977430611E+003	2.5665930E-001	-2.7038742E+002
3	0	1.424849977417980E+003	2.5639310E-001	-2.7038031E+002
3	0	1.425349977405349E+003	2.5617582E-001	-2.7037677E+002
3	0	1.425849977392718E+003	2.5595203E-001	-2.7037677E+002
3	0	1.426349977380087E+003	2.5572416E-001	-2.7034851E+002
3	0	1.426849977367456E+003	2.5549814E-001	-2.7037677E+002
3	0	1.427349977354825E+003	2.5527403E-001	-2.7036618E+002
3	0	1.427849977342194E+003	2.5503615E-001	-2.7038385E+002
3	0	1.428349977329563E+003	2.5478640E-001	-2.7039801E+002
3	0	1.428849977316931E+003	2.5454089E-001	-2.7038385E+002
3	0	1.429349977304300E+003	2.5434101E-001	-2.7037326E+002
3	0	1.429849977291669E+003	2.5414485E-001	-2.7036972E+002
3	0	1.430349977279038E+003	2.5393933E-001	-2.7039093E+002
3	0	1.430849977266407E+003	2.5373361E-001	-2.7036267E+002
3	0	1.431349977253776E+003	2.5352895E-001	-2.7036972E+002
3	0	1.431849977241145E+003	2.5330466E-001	-2.7036618E+002
3	0	1.432349977228514E+003	2.5306392E-001	-2.7038385E+002
3	0	1.432849977215883E+003	2.5284010E-001	-2.7039093E+002
3	0	1.433349977203252E+003	2.5265378E-001	-2.7036618E+002
3	0	1.433849977190621E+003	2.5246745E-001	-2.7038385E+002
3	0	1.434349977177990E+003	2.5228086E-001	-2.7037326E+002
3	0	1.434849977165359E+003	2.5208399E-001	-2.7038031E+002
3	0	1.435349977152728E+003	2.5189158E-001	-2.7038742E+002
3	0	1.435849977140097E+003	2.5168008E-001	-2.7038031E+002
3	0	1.436349977127466E+003	2.5145024E-001	-2.7036972E+002
3	0	1.436849977114834E+003	2.5123939E-001	-2.7037326E+002
3	0	1.437349977102203E+003	2.5106624E-001	-2.7036618E+002
3	0	1.437849977089572E+003	2.5089332E-001	-2.7039093E+002
3	0	1.438349977076941E+003	2.5071290E-001	-2.7037326E+002
3	0	1.438849977064310E+003	2.5053090E-001	-2.7036972E+002
3	0	1.439349977051679E+003	2.5034997E-001	-2.7036267E+002
3	0	1.439849977039048E+003	2.5015509E-001	-2.7038385E+002
3	0	1.440349977026417E+003	2.4994081E-001	-2.7035559E+002
3	0	1.440849977013786E+003	2.4974513E-001	-2.7038742E+002
3	0	1.441349977001155E+003	2.4957860E-001	-2.7039447E+002
3	0	1.441849976988524E+003	2.4942076E-001	-2.7036972E+002
3	0	1.442349976975893E+003	2.4925689E-001	-2.7037677E+002
3	0	1.442849976963262E+003	2.4909437E-001	-2.7040860E+002
3	0	1.443349976950631E+003	2.4892691E-001	-2.7037677E+002
3	0	1.443849976938000E+003	2.4874398E-001	-2.7038742E+002
3	0	1.444349976925369E+003	2.4854741E-001	-2.7036618E+002
3	0	1.444849976912737E+003	2.4836060E-001	-2.7038385E+002
3	0	1.445349976900106E+003	2.4821647E-001	-2.7037326E+002
3	0	1.445849976887475E+003	2.4807572E-001	-2.7038031E+002
3	0	1.446349976874844E+003	2.4793470E-001	-2.7038031E+002
3	0	1.446849976862213E+003	2.4778363E-001	-2.7038031E+002
3	0	1.447349976849582E+003	2.4763453E-001	-2.7039447E+002
3	0	1.447849976836951E+003	2.4746485E-001	-2.7040155E+002
3	0	1.448349976824320E+003	2.4727596E-001	-2.7036267E+002
3	0	1.448849976811689E+003	2.4710280E-001	-2.7038031E+002
3	0	1.449349976799058E+003	2.4697250E-001	-2.7038385E+002
3	0	1.449849976786427E+003	2.4684000E-001	-2.7039447E+002
3	0	1.450349976773796E+003	2.4670325E-001	-2.7038031E+002
3	0	1.450849976761165E+003	2.4656358E-001	-2.7038385E+002
3	0	1.451349976748534E+003	2.4642599E-001	-2.7037677E+002
3	0	1.451849976735903E+003	2.4626952E-001	-2.7039801E+002
3	0	1.452349976723272E+003	2.4609087E-001	-2.7037677E+002
3	0	1.452849976710640E+003	2.4593319E-001	-2.7038742E+002
3	0	1.453349976698009E+003	2.4581143E-001	-2.7036972E+002
3	0	1.453849976685378E+003	2.4569157E-001	-2.7035913E+002
3	0	1.454349976672747E+003	2.4557391E-001	-2.7038385E+002
3	0	1.454849976660116E+003	2.4545048E-001	-2.7036618E+002
3	0	1.455349976647485E+003	2.4532354E-001	-2.7035559E+002
3	0	1.455849976634854E+003	2.4517439E-001	-2.7038742E+002
3	0	1.456349976622223E+003	2.4500772E-001	-2.7037326E+002
3	0	1.456849976609592E+003	2.4485640E-001	-2.7036618E+002
3	0	1.457349976596961E+003	2.4474140E-001	-2.7038031E+002
3	0	1.457849976584330E+003	2.4463053E-001	-2.7036972E+002
3	0	1.458349976571699E+003	2.4451454E-001	-2.7037677E+002
3	0	1.458849976559068E+003	2.4439552E-001	-2.7035913E+002
3	0	1.459349976546437E+003	2.4427836E-001	-2.7036972E+002
3	0	1.459849976533806E+003	2.4413829E-001	-2.7037326E+002
3	0	1.460349976521175E+003	2.4397941E-001	-2.7035559E+002
3	0	1.460849976508543E+003	2.4383460E-001	-2.7036972E+002
3	0	1.461349976495912E+003	2.4372606E-001	-2.7035913E+002
3	0	1.461849976483281E+003	2.4361463E-001	-2.7035205E+002
3	0	1.462349976470650E+003	2.4349645E-001	-2.7036267E+002
3	0	1.462849976458019E+003	2.4338622E-001	-2.7038031E+002
3	0	1.463349976445388E+003	2.4326788E-001	-2.7039093E+002
3	0	1.463849976432757E+003	2.4313785E-001	-2.7036972E+002
3	0	1.464349976420126E+003	2.4298985E-001	-2.7035913E+002
3	0	1.464849976407495E+003	2.4285038E-001	-2.7033789E+002
3	0	1.465349976394864E+003	2.4275626E-001	-2.7040860E+002
3	0	1.465849976382233E+003	2.4266344E-001	-2.7041568E+002
3	0	1.466349976369602E+003	2.4255873E-001	-2.7037677E+002
3	0	1.466849976356971E+003	2.4245854E-001	-2.7037326E+002
3	0	1.467349976344340E+003	2.4235727E-001	-2.7039801E+002
3	0	1.467849976331709E+003	2.4223843E-001	-2.7038031E+002
3	0	1.468349976319078E+003	2.4209318E-001	-2.7038385E+002
3	0	1.468849976306446E+003	2.4196763E-001	-2.7038385E+002
3	0	1.469349976293815E+003	2.4188089E-001	-2.7036972E+002
3	0	1.469849976281184E+003	2.4179141E-001	-2.7036267E+002
3	0	1.470349976268553E+003	2.4169335E-001	-2.7037677E+002
3	0	1.470849976255922E+003	2.4159786E-001	-2.7038385E+002
3	0	1.471349976243291E+003	2.4150616E-001	-2.7037326E+002
3	0	1.471849976230660E+003	2.4138851E-001	-2.7038385E+002
3	0	1.472349976218029E+003	2.4124622E-001	-2.7038385E+002
3	0	1.472849976205398E+003	2.4112716E-001	-2.7035913E+002
3	0	1.473349976192767E+003	2.4104349E-001	-2.7039801E+002
3	0	1.473849976180136E+003	2.4096020E-001	-2.7036972E+002
3	0	1.474349976167505E+003	2.4086486E-001	-2.7036972E+002
3	0	1.474849976154874E+003	2.4077897E-001	-2.7036972E+002
3	0	1.475349976142243E+003	2.4068379E-001	-2.7041919E+002
3	0	1.475849976129612E+003	2.4057509E-001	-2.7038385E+002
3	0	1.476349976116981E+003	2.4044205E-001	-2.7036972E+002
3	0	1.476849976104349E+003	2.4032725E-001	-2.7037677E+002
3	0	1.477349976091718E+003	2.4024735E-001	-2.7035913E+002
3	0	1.477849976079087E+003	2.4017267E-001	-2.7040860E+002
3	0	1.478349976066456E+003	2.4008892E-001	-2.7039093E+002
3	0	1.478849976053825E+003	2.4000585E-001	-2.7040860E+002
3	0	1.479349976041194E+003	2.3991971E-001	-2.7036618E+002
3	0	1.479849976028563E+003	2.3981701E-001	-2.7035913E+002
3	0	1.480349976015932E+003	2.3968543E-001	-2.7036618E+002
3	0	1.480849976003301E+003	2.3957169E-001	-2.7039447E+002
3	0	1.481349975990670E+003	2.3949513E-001	-2.7034851E+002
3	0	1.481849975978039E+003	2.3941994E-001	-2.7039447E+002
3	0	1.482349975965408E+003	2.3933309E-001	-2.7038031E+002
3	0	1.482849975952777E+003	2.3925094E-001	-2.7036972E+002
3	0	1.483349975940146E+003	2.3916453E-001	-2.7040860E+002
3	0	1.483849975927515E+003	2.3906285E-001	-2.7038742E+002
3	0	1.484349975914884E+003	2.3893388E-001	-2.7037677E+002
3	0	1.484849975902252E+003	2.3882584E-001	-2.7036972E+002
3	0	1.485349975889621E+003	2.3875147E-001	-2.7037677E+002
3	0	1.485849975876990E+003	2.3868625E-001	-2.7038385E+002
3	0	1.486349975864359E+003	2.3860745E-001	-2.7037677E+002
3	0	1.486849975851728E+003	2.3852848E-001	-2.7038031E+002
3	0	1.487349975839097E+003	2.3845111E-001	-2.7035559E+002
3	0	1.487849975826466E+003	2.3835829E-001	-2.7036618E+002
3	0	1.488349975813835E+003	2.3824145E-001	-2.7036267E+002
3	0	1.488849975801204E+003	2.3813958E-001	-2.7036618E+002
3	0	1.489349975788573E+003	2.3807205E-001	-2.7037677E+002
3	0	1.489350375788563E+003	2.3803125E-001	-2.7038385E+002