EC-Lab ASCII FILE
Nb header lines : 55                          

Open Circuit Voltage

Run on channel : 1 (SN 81504)
User : 
CE vs. WE compliance from -10 V to 10 V
Electrode connection : standard
Potential control : Ewe
Ewe ctrl range : min = -2.50 V, max = 2.50 V
Safety Limits :
	Do not start on E overload
Acquisition started on : 05/07/2026 21:45:35.104
Loaded Setting File :  C:\PEM-WE_measurements\2026\372_IV_IV IrOx, 5 min Pt, 30 min C, etched cathode\new station\Loopeis new\1,46 V different time gaps open cell\Loopeis 1,46V_120s_4_PEIS from 650Hz to 100Hz.mps
Saved on :
	File : L_24_Loopeis 1,46V_120s_4_PEIS from 650Hz to 100Hz_04_OCV_C01.mpr
	Directory : C:\PEM-WE_measurements\2026\372_IV_IV IrOx, 5 min Pt, 30 min C, etched cathode\new station\Loopeis new\1,46 V different time gaps open cell\
	Host : 192.168.0.2
Device : SP-150e (SN .005491)
Address : 192.168.0.91
EC-LAB for windows v11.71 (software)
Internet server v28.00 (firmware)
Command interpretor v14.01 (firmware)
Electrode material : 
Initial state : 
Electrolyte : 
Comments : 
Current amplifier : SP-150eB-20A
Electrode surface area : 0.001 cm²
Characteristic mass : 0.001 g
Equivalent Weight : 0.000 g/eq.
Density : 0.000 g/cm3
Volume (V) : 0.001 cm³
Record Analogic IN 1
Text export
   Mode : Standard
   Time format : Elapsed
Cycle Definition : Charge/Discharge alternance
External device configuration :
   device type : Temperature Probe
   device name : Other
   Analog IN 1 : 
      unit : T/Â°C
      max : 100.000 at 2.000 V
      min : 0.000 at 1.460 V
tR (h:m:s)          0:02:0.0000         
dER/dt (mV/h)       1.0                 
record              <Ewe>               
dER (mV)            10.00               
dtR (s)             0.5000              
E range min (V)     -2.500              
E range max (V)     2.500               

mode	error	time/s	<Ewe/V>	Analog IN 1/V	
3	0	2.104465979555971E+002	9.5630509E-001	-2.7038031E+002
3	0	2.109465979429660E+002	1.1436218E+000	-2.7039093E+002
3	0	2.114465979303350E+002	8.3680630E-001	-2.7037326E+002
3	0	2.119465979177039E+002	4.1771930E-001	-2.7039093E+002
3	0	2.124465979050728E+002	3.2039720E-001	-2.7037677E+002
3	0	2.129465978924418E+002	3.0919749E-001	-2.7035913E+002
3	0	2.134465978798107E+002	3.0254629E-001	-2.7039447E+002
3	0	2.139465978671797E+002	2.9692808E-001	-2.7038031E+002
3	0	2.144465978545486E+002	2.9249942E-001	-2.7034143E+002
3	0	2.149465978419175E+002	2.8904340E-001	-2.7035913E+002
3	0	2.154465978292865E+002	2.8629774E-001	-2.7037677E+002
3	0	2.159465978166554E+002	2.8405452E-001	-2.7039447E+002
3	0	2.164465978040244E+002	2.8221968E-001	-2.7039093E+002
3	0	2.169465977913933E+002	2.8068402E-001	-2.7036972E+002
3	0	2.174465977787622E+002	2.7937272E-001	-2.7040506E+002
3	0	2.179465977661312E+002	2.7822122E-001	-2.7039093E+002
3	0	2.184465977535001E+002	2.7718943E-001	-2.7036267E+002
3	0	2.189465977408690E+002	2.7625549E-001	-2.7035913E+002
3	0	2.194465977282380E+002	2.7536714E-001	-2.7038031E+002
3	0	2.199465977156069E+002	2.7453935E-001	-2.7036618E+002
3	0	2.204465977029759E+002	2.7377784E-001	-2.7037677E+002
3	0	2.209465976903448E+002	2.7306393E-001	-2.7038742E+002
3	0	2.214465976777137E+002	2.7239206E-001	-2.7037326E+002
3	0	2.219465976650827E+002	2.7175593E-001	-2.7036267E+002
3	0	2.224465976524516E+002	2.7111650E-001	-2.7036267E+002
3	0	2.229465976398205E+002	2.7049395E-001	-2.7037677E+002
3	0	2.234465976271895E+002	2.6990050E-001	-2.7037677E+002
3	0	2.239465976145584E+002	2.6932141E-001	-2.7038385E+002
3	0	2.244465976019274E+002	2.6875940E-001	-2.7036972E+002
3	0	2.249465975892963E+002	2.6822412E-001	-2.7037677E+002
3	0	2.254465975766652E+002	2.6768640E-001	-2.7037326E+002
3	0	2.259465975640342E+002	2.6716319E-001	-2.7037677E+002
3	0	2.264465975514031E+002	2.6664680E-001	-2.7039447E+002
3	0	2.269465975387720E+002	2.6613125E-001	-2.7038031E+002
3	0	2.274465975261410E+002	2.6560438E-001	-2.7037677E+002
3	0	2.279465975135099E+002	2.6506001E-001	-2.7037677E+002
3	0	2.284465975008789E+002	2.6456282E-001	-2.7037677E+002
3	0	2.289465974882478E+002	2.6407778E-001	-2.7038385E+002
3	0	2.294465974756167E+002	2.6358894E-001	-2.7038031E+002
3	0	2.299465974629857E+002	2.6311278E-001	-2.7036972E+002
3	0	2.304465974503546E+002	2.6264244E-001	-2.7038385E+002
3	0	2.309465974377235E+002	2.6217082E-001	-2.7038742E+002
3	0	2.314465974250925E+002	2.6168835E-001	-2.7038031E+002
3	0	2.319465974124614E+002	2.6119018E-001	-2.7036618E+002
3	0	2.324465973998304E+002	2.6072747E-001	-2.7036618E+002
3	0	2.329465973871993E+002	2.6027858E-001	-2.7038385E+002
3	0	2.334465973745682E+002	2.5983089E-001	-2.7038742E+002
3	0	2.339465973619372E+002	2.5939915E-001	-2.7038385E+002
3	0	2.344465973493061E+002	2.5896132E-001	-2.7039801E+002
3	0	2.349465973366750E+002	2.5852361E-001	-2.7038742E+002
3	0	2.354465973240440E+002	2.5807267E-001	-2.7035205E+002
3	0	2.359465973114129E+002	2.5761324E-001	-2.7036972E+002
3	0	2.364465972987819E+002	2.5718069E-001	-2.7039447E+002
3	0	2.369465972861508E+002	2.5676349E-001	-2.7035559E+002
3	0	2.374465972735197E+002	2.5634971E-001	-2.7035913E+002
3	0	2.379465972608887E+002	2.5594056E-001	-2.7036618E+002
3	0	2.384465972482576E+002	2.5553882E-001	-2.7038031E+002
3	0	2.389465972356265E+002	2.5513130E-001	-2.7038031E+002
3	0	2.394465972229955E+002	2.5471056E-001	-2.7037677E+002
3	0	2.399465972103644E+002	2.5428122E-001	-2.7039447E+002
3	0	2.404465971977334E+002	2.5388324E-001	-2.7039447E+002
3	0	2.409465971851023E+002	2.5350291E-001	-2.7038385E+002
3	0	2.414465971724712E+002	2.5311625E-001	-2.7037326E+002
3	0	2.419465971598402E+002	2.5273561E-001	-2.7039093E+002
3	0	2.424465971472091E+002	2.5236249E-001	-2.7039093E+002
3	0	2.429465971345780E+002	2.5198317E-001	-2.7039447E+002
3	0	2.434465971219470E+002	2.5158995E-001	-2.7036972E+002
3	0	2.439465971093159E+002	2.5117978E-001	-2.7037677E+002
3	0	2.444465970966849E+002	2.5081056E-001	-2.7038742E+002
3	0	2.449465970840538E+002	2.5045705E-001	-2.7039093E+002
3	0	2.454465970714227E+002	2.5010204E-001	-2.7039447E+002
3	0	2.459465970587917E+002	2.4975917E-001	-2.7038385E+002
3	0	2.464465970461606E+002	2.4941559E-001	-2.7038742E+002
3	0	2.469465970335295E+002	2.4906300E-001	-2.7036618E+002
3	0	2.474465970208985E+002	2.4869920E-001	-2.7037677E+002
3	0	2.479465970082674E+002	2.4832378E-001	-2.7038742E+002
3	0	2.484465969956364E+002	2.4798177E-001	-2.7036972E+002
3	0	2.489465969830053E+002	2.4766678E-001	-2.7039093E+002
3	0	2.494465969703742E+002	2.4733451E-001	-2.7038385E+002
3	0	2.499465969577432E+002	2.4701793E-001	-2.7038031E+002
3	0	2.504465969451121E+002	2.4670237E-001	-2.7036618E+002
3	0	2.509465969324810E+002	2.4638288E-001	-2.7037677E+002
3	0	2.514465969198500E+002	2.4604429E-001	-2.7037326E+002
3	0	2.519465969072189E+002	2.4569827E-001	-2.7034851E+002
3	0	2.524465968945879E+002	2.4539283E-001	-2.7037326E+002
3	0	2.529465968819568E+002	2.4509586E-001	-2.7037326E+002
3	0	2.534465968693257E+002	2.4479364E-001	-2.7041919E+002
3	0	2.539465968566947E+002	2.4450311E-001	-2.7037326E+002
3	0	2.544465968440636E+002	2.4421403E-001	-2.7038031E+002
3	0	2.549465968314325E+002	2.4391915E-001	-2.7039447E+002
3	0	2.554465968188015E+002	2.4360804E-001	-2.7037326E+002
3	0	2.559465968061704E+002	2.4328929E-001	-2.7037677E+002
3	0	2.564465967935394E+002	2.4300645E-001	-2.7037326E+002
3	0	2.569465967809083E+002	2.4273600E-001	-2.7035559E+002
3	0	2.574465967682772E+002	2.4246041E-001	-2.7037326E+002
3	0	2.579465967556462E+002	2.4219422E-001	-2.7036267E+002
3	0	2.584465967430151E+002	2.4192418E-001	-2.7036972E+002
3	0	2.589465967303840E+002	2.4165307E-001	-2.7035913E+002
3	0	2.594465967177530E+002	2.4136645E-001	-2.7037326E+002
3	0	2.599465967051219E+002	2.4106702E-001	-2.7039093E+002
3	0	2.604465966924909E+002	2.4080525E-001	-2.7036618E+002
3	0	2.609465966798598E+002	2.4056397E-001	-2.7036972E+002
3	0	2.614465966672287E+002	2.4031219E-001	-2.7039447E+002
3	0	2.619465966545977E+002	2.4007069E-001	-2.7038031E+002
3	0	2.624465966419666E+002	2.3982753E-001	-2.7037326E+002
3	0	2.629465966293355E+002	2.3958661E-001	-2.7038031E+002
3	0	2.634465966167045E+002	2.3931766E-001	-2.7038385E+002
3	0	2.639465966040734E+002	2.3903678E-001	-2.7039447E+002
3	0	2.644465965914424E+002	2.3879078E-001	-2.7039801E+002
3	0	2.649465965788113E+002	2.3856449E-001	-2.7037677E+002
3	0	2.654465965661802E+002	2.3833583E-001	-2.7037677E+002
3	0	2.659465965535492E+002	2.3811090E-001	-2.7037677E+002
3	0	2.664465965409181E+002	2.3788761E-001	-2.7037326E+002
3	0	2.669465965282870E+002	2.3766510E-001	-2.7039447E+002
3	0	2.674465965156560E+002	2.3741832E-001	-2.7039801E+002
3	0	2.679465965030249E+002	2.3715916E-001	-2.7037677E+002
3	0	2.684465964903939E+002	2.3693384E-001	-2.7037677E+002
3	0	2.689465964777628E+002	2.3672713E-001	-2.7038385E+002
3	0	2.694465964651317E+002	2.3651989E-001	-2.7037326E+002
3	0	2.699465964525007E+002	2.3631442E-001	-2.7038385E+002
3	0	2.704465964398696E+002	2.3611100E-001	-2.7037677E+002
3	0	2.709465964272385E+002	2.3590198E-001	-2.7036972E+002
3	0	2.714465964146075E+002	2.3568486E-001	-2.7039447E+002
3	0	2.719465964019764E+002	2.3545101E-001	-2.7040155E+002
3	0	2.724465963893454E+002	2.3525143E-001	-2.7036618E+002
3	0	2.729465963767143E+002	2.3506896E-001	-2.7037326E+002
3	0	2.734465963640832E+002	2.3487635E-001	-2.7035913E+002
3	0	2.739465963514522E+002	2.3469591E-001	-2.7036972E+002
3	0	2.744465963388211E+002	2.3451197E-001	-2.7037677E+002
3	0	2.749465963261900E+002	2.3432232E-001	-2.7037677E+002
3	0	2.754465963135590E+002	2.3411849E-001	-2.7038385E+002
3	0	2.759465963009279E+002	2.3389977E-001	-2.7039447E+002
3	0	2.764465962882969E+002	2.3370729E-001	-2.7038742E+002
3	0	2.769465962756658E+002	2.3353735E-001	-2.7039093E+002
3	0	2.774465962630347E+002	2.3336320E-001	-2.7038031E+002
3	0	2.779465962504037E+002	2.3319894E-001	-2.7036267E+002
3	0	2.784465962377726E+002	2.3302785E-001	-2.7037326E+002
3	0	2.789465962251415E+002	2.3285767E-001	-2.7035913E+002
3	0	2.794465962125105E+002	2.3266970E-001	-2.7036972E+002
3	0	2.799465961998794E+002	2.3246221E-001	-2.7036618E+002
3	0	2.804465961872484E+002	2.3228927E-001	-2.7037326E+002
3	0	2.809465961746173E+002	2.3213512E-001	-2.7039447E+002
3	0	2.814465961619862E+002	2.3197258E-001	-2.7037677E+002
3	0	2.819465961493552E+002	2.3181783E-001	-2.7041214E+002
3	0	2.824465961367241E+002	2.3165910E-001	-2.7034143E+002
3	0	2.829465961240930E+002	2.3147383E-001	-2.7038031E+002
3	0	2.834465961114620E+002	2.3128419E-001	-2.7041214E+002
3	0	2.839465960988309E+002	2.3110405E-001	-2.7037677E+002
3	0	2.844465960861999E+002	2.3095584E-001	-2.7038385E+002
3	0	2.849465960735688E+002	2.3082450E-001	-2.7036972E+002
3	0	2.854465960609377E+002	2.3068783E-001	-2.7036618E+002
3	0	2.859465960483067E+002	2.3054190E-001	-2.7040506E+002
3	0	2.864465960356756E+002	2.3040162E-001	-2.7037326E+002
3	0	2.869465960230445E+002	2.3025239E-001	-2.7036618E+002
3	0	2.874465960104135E+002	2.3007935E-001	-2.7038031E+002
3	0	2.879465959977824E+002	2.2989340E-001	-2.7038031E+002
3	0	2.884465959851514E+002	2.2973673E-001	-2.7036618E+002
3	0	2.889465959725203E+002	2.2961368E-001	-2.7040155E+002
3	0	2.894465959598892E+002	2.2948717E-001	-2.7035559E+002
3	0	2.899465959472582E+002	2.2934861E-001	-2.7038385E+002
3	0	2.904465959346271E+002	2.2921385E-001	-2.7037677E+002
3	0	2.909465959219961E+002	2.2907853E-001	-2.7039093E+002
3	0	2.914465959093650E+002	2.2891720E-001	-2.7036972E+002
3	0	2.919465958967339E+002	2.2874320E-001	-2.7037326E+002
3	0	2.924465958841029E+002	2.2860113E-001	-2.7035913E+002
3	0	2.929465958714718E+002	2.2848275E-001	-2.7038031E+002
3	0	2.934465958588407E+002	2.2836795E-001	-2.7037326E+002
3	0	2.939465958462097E+002	2.2823945E-001	-2.7038385E+002
3	0	2.944465958335786E+002	2.2811754E-001	-2.7037326E+002
3	0	2.949465958209476E+002	2.2798763E-001	-2.7039447E+002
3	0	2.954465958083165E+002	2.2783765E-001	-2.7037326E+002
3	0	2.959465957956854E+002	2.2766644E-001	-2.7038031E+002
3	0	2.964465957830544E+002	2.2753476E-001	-2.7039801E+002
3	0	2.969465957704233E+002	2.2742581E-001	-2.7038742E+002
3	0	2.974465957577922E+002	2.2731832E-001	-2.7036972E+002
3	0	2.979465957451612E+002	2.2720289E-001	-2.7038385E+002
3	0	2.984465957325301E+002	2.2708917E-001	-2.7038031E+002
3	0	2.989465957198991E+002	2.2696817E-001	-2.7037326E+002
3	0	2.994465957072680E+002	2.2682521E-001	-2.7037326E+002
3	0	2.999465956946369E+002	2.2666623E-001	-2.7038385E+002
3	0	3.004465956820059E+002	2.2654356E-001	-2.7040506E+002
3	0	3.009465956693748E+002	2.2644508E-001	-2.7036267E+002
3	0	3.014465956567437E+002	2.2634286E-001	-2.7036618E+002
3	0	3.019465956441127E+002	2.2622946E-001	-2.7041919E+002
3	0	3.024465956314816E+002	2.2612098E-001	-2.7038742E+002
3	0	3.029465956188506E+002	2.2601078E-001	-2.7039093E+002
3	0	3.034465956062195E+002	2.2586881E-001	-2.7037677E+002
3	0	3.039465955935884E+002	2.2570990E-001	-2.7036972E+002
3	0	3.044465955809574E+002	2.2558875E-001	-2.7038742E+002
3	0	3.049465955683263E+002	2.2549610E-001	-2.7038031E+002
3	0	3.054465955556952E+002	2.2540104E-001	-2.7036267E+002
3	0	3.059465955430642E+002	2.2529700E-001	-2.7038031E+002
3	0	3.064465955304331E+002	2.2518769E-001	-2.7034851E+002
3	0	3.069465955178021E+002	2.2507948E-001	-2.7040860E+002
3	0	3.074465955051710E+002	2.2494884E-001	-2.7036267E+002
3	0	3.079465954925399E+002	2.2480741E-001	-2.7037677E+002
3	0	3.084465954799089E+002	2.2469826E-001	-2.7037677E+002
3	0	3.089465954672778E+002	2.2461078E-001	-2.7036972E+002
3	0	3.094465954546467E+002	2.2452147E-001	-2.7038742E+002
3	0	3.099465954420157E+002	2.2442575E-001	-2.7040155E+002
3	0	3.104465954293846E+002	2.2433458E-001	-2.7038742E+002
3	0	3.109465954167536E+002	2.2423436E-001	-2.7038742E+002
3	0	3.114465954041225E+002	2.2411254E-001	-2.7036972E+002
3	0	3.119465953914914E+002	2.2397158E-001	-2.7038742E+002
3	0	3.124465953788604E+002	2.2386308E-001	-2.7038742E+002
3	0	3.129465953662293E+002	2.2378595E-001	-2.7039093E+002
3	0	3.134465953535982E+002	2.2370709E-001	-2.7036972E+002
3	0	3.139465953409672E+002	2.2362711E-001	-2.7036972E+002
3	0	3.144465953283361E+002	2.2354200E-001	-2.7037677E+002
3	0	3.149465953157051E+002	2.2345102E-001	-2.7038031E+002
3	0	3.154465953030740E+002	2.2333026E-001	-2.7035913E+002
3	0	3.159465952904429E+002	2.2319958E-001	-2.7036267E+002
3	0	3.164465952778119E+002	2.2310168E-001	-2.7037326E+002
3	0	3.169465952651808E+002	2.2303097E-001	-2.7039447E+002
3	0	3.174465952525497E+002	2.2295597E-001	-2.7038385E+002
3	0	3.179465952399187E+002	2.2287200E-001	-2.7036972E+002
3	0	3.184465952272876E+002	2.2278342E-001	-2.7037677E+002
3	0	3.189465952146566E+002	2.2269104E-001	-2.7035559E+002
3	0	3.194465952020255E+002	2.2258197E-001	-2.7040155E+002
3	0	3.199465951893944E+002	2.2246028E-001	-2.7039801E+002
3	0	3.204465951767634E+002	2.2236525E-001	-2.7038385E+002
3	0	3.209465951641323E+002	2.2230272E-001	-2.7038742E+002
3	0	3.214465951515012E+002	2.2223468E-001	-2.7037677E+002
3	0	3.219465951388702E+002	2.2216278E-001	-2.7036618E+002
3	0	3.224465951262391E+002	2.2208627E-001	-2.7036267E+002
3	0	3.229465951136081E+002	2.2200111E-001	-2.7038742E+002
3	0	3.234465951009770E+002	2.2189352E-001	-2.7039093E+002
3	0	3.239465950883459E+002	2.2176506E-001	-2.7038742E+002
3	0	3.244465950757149E+002	2.2166915E-001	-2.7036972E+002
3	0	3.249465950630838E+002	2.2159906E-001	-2.7039447E+002
3	0	3.254465950504527E+002	2.2153051E-001	-2.7041919E+002
3	0	3.259465950378217E+002	2.2145514E-001	-2.7038385E+002
3	0	3.264465950251906E+002	2.2137962E-001	-2.7040155E+002
3	0	3.269465950125596E+002	2.2129735E-001	-2.7037677E+002
3	0	3.274465949999285E+002	2.2120406E-001	-2.7039093E+002
3	0	3.279465949872974E+002	2.2108366E-001	-2.7038385E+002
3	0	3.284465949746664E+002	2.2099911E-001	-2.7038031E+002
3	0	3.289465949620353E+002	2.2093949E-001	-2.7035913E+002
3	0	3.294465949494042E+002	2.2088246E-001	-2.7036267E+002
3	0	3.299465949367732E+002	2.2081144E-001	-2.7037677E+002
3	0	3.299699949361820E+002	2.2078499E-001	-2.7040860E+002