EC-Lab ASCII FILE
Nb header lines : 55                          

Open Circuit Voltage

Run on channel : 1 (SN 81504)
User : 
CE vs. WE compliance from -10 V to 10 V
Electrode connection : standard
Potential control : Ewe
Ewe ctrl range : min = -2.50 V, max = 2.50 V
Safety Limits :
	Do not start on E overload
Acquisition started on : 05/07/2026 21:45:35.104
Loaded Setting File :  C:\PEM-WE_measurements\2026\372_IV_IV IrOx, 5 min Pt, 30 min C, etched cathode\new station\Loopeis new\1,46 V different time gaps open cell\Loopeis 1,46V_120s_4_PEIS from 650Hz to 100Hz.mps
Saved on :
	File : L_24_Loopeis 1,46V_120s_4_PEIS from 650Hz to 100Hz_02_OCV_C01.mpr
	Directory : C:\PEM-WE_measurements\2026\372_IV_IV IrOx, 5 min Pt, 30 min C, etched cathode\new station\Loopeis new\1,46 V different time gaps open cell\
	Host : 192.168.0.2
Device : SP-150e (SN .005491)
Address : 192.168.0.91
EC-LAB for windows v11.71 (software)
Internet server v28.00 (firmware)
Command interpretor v14.01 (firmware)
Electrode material : 
Initial state : 
Electrolyte : 
Comments : 
Current amplifier : SP-150eB-20A
Electrode surface area : 0.001 cm²
Characteristic mass : 0.001 g
Equivalent Weight : 0.000 g/eq.
Density : 0.000 g/cm3
Volume (V) : 0.001 cm³
Record Analogic IN 1
Text export
   Mode : Standard
   Time format : Elapsed
Cycle Definition : Charge/Discharge alternance
External device configuration :
   device type : Temperature Probe
   device name : Other
   Analog IN 1 : 
      unit : T/Â°C
      max : 100.000 at 2.000 V
      min : 0.000 at 1.460 V
tR (h:m:s)          0:02:0.0000         
dER/dt (mV/h)       1.0                 
record              <Ewe>               
dER (mV)            10.00               
dtR (s)             0.5000              
E range min (V)     -2.500              
E range max (V)     2.500               

mode	error	time/s	<Ewe/V>	Analog IN 1/V	
3	0	4.549979885057837E+001	1.2284900E+000	-2.7037326E+002
3	0	4.599979883794731E+001	1.1863818E+000	-2.7037677E+002
3	0	4.649979882531625E+001	8.8282067E-001	-2.7035559E+002
3	0	4.699979881268519E+001	4.4839558E-001	-2.7037677E+002
3	0	4.749979880005412E+001	3.4738964E-001	-2.7038031E+002
3	0	4.799979878742306E+001	3.3343300E-001	-2.7036618E+002
3	0	4.849979877479200E+001	3.2543567E-001	-2.7036267E+002
3	0	4.899979876216094E+001	3.1908295E-001	-2.7037677E+002
3	0	4.949979874952987E+001	3.1421918E-001	-2.7039093E+002
3	0	4.999979873689881E+001	3.1048906E-001	-2.7038385E+002
3	0	5.049979872426775E+001	3.0755019E-001	-2.7038385E+002
3	0	5.099979871163669E+001	3.0517745E-001	-2.7038031E+002
3	0	5.149979869900562E+001	3.0320767E-001	-2.7038742E+002
3	0	5.199979868637456E+001	3.0152345E-001	-2.7037326E+002
3	0	5.249979867374350E+001	3.0005229E-001	-2.7035205E+002
3	0	5.299979866111244E+001	2.9879341E-001	-2.7037677E+002
3	0	5.349979864848137E+001	2.9767448E-001	-2.7035559E+002
3	0	5.399979863585031E+001	2.9664898E-001	-2.7037326E+002
3	0	5.449979862321925E+001	2.9570273E-001	-2.7036618E+002
3	0	5.499979861058819E+001	2.9483089E-001	-2.7040155E+002
3	0	5.549979859795712E+001	2.9400250E-001	-2.7038385E+002
3	0	5.599979858532606E+001	2.9320535E-001	-2.7039801E+002
3	0	5.649979857269500E+001	2.9243180E-001	-2.7037677E+002
3	0	5.699979856006394E+001	2.9172894E-001	-2.7039447E+002
3	0	5.749979854743287E+001	2.9104957E-001	-2.7035913E+002
3	0	5.799979853480181E+001	2.9039726E-001	-2.7041214E+002
3	0	5.849979852217075E+001	2.8976497E-001	-2.7039447E+002
3	0	5.899979850953969E+001	2.8915149E-001	-2.7036972E+002
3	0	5.949979849690862E+001	2.8854766E-001	-2.7035559E+002
3	0	5.999979848427756E+001	2.8792369E-001	-2.7039447E+002
3	0	6.049979847164650E+001	2.8730214E-001	-2.7037326E+002
3	0	6.099979845901544E+001	2.8672892E-001	-2.7039093E+002
3	0	6.149979844638438E+001	2.8616634E-001	-2.7038031E+002
3	0	6.199979843375331E+001	2.8561872E-001	-2.7036972E+002
3	0	6.249979842112225E+001	2.8507069E-001	-2.7038742E+002
3	0	6.299979840849119E+001	2.8453961E-001	-2.7036267E+002
3	0	6.349979839586013E+001	2.8400266E-001	-2.7041214E+002
3	0	6.399979838322906E+001	2.8343785E-001	-2.7038742E+002
3	0	6.449979837059800E+001	2.8287515E-001	-2.7038031E+002
3	0	6.499979835796694E+001	2.8236693E-001	-2.7037677E+002
3	0	6.549979834533588E+001	2.8187367E-001	-2.7039801E+002
3	0	6.599979833270481E+001	2.8137106E-001	-2.7039447E+002
3	0	6.649979832007375E+001	2.8087756E-001	-2.7036267E+002
3	0	6.699979830744269E+001	2.8039181E-001	-2.7040155E+002
3	0	6.749979829481163E+001	2.7989787E-001	-2.7036618E+002
3	0	6.799979828218056E+001	2.7939203E-001	-2.7039801E+002
3	0	6.849979826954950E+001	2.7888411E-001	-2.7040155E+002
3	0	6.899979825691844E+001	2.7841526E-001	-2.7036618E+002
3	0	6.949979824428738E+001	2.7796215E-001	-2.7038031E+002
3	0	6.999979823165631E+001	2.7750307E-001	-2.7039093E+002
3	0	7.049979821902525E+001	2.7705136E-001	-2.7035913E+002
3	0	7.099979820639419E+001	2.7660671E-001	-2.7038742E+002
3	0	7.149979819376313E+001	2.7614513E-001	-2.7039093E+002
3	0	7.199979818113206E+001	2.7567312E-001	-2.7039801E+002
3	0	7.249979816850100E+001	2.7519697E-001	-2.7035559E+002
3	0	7.299979815586994E+001	2.7476862E-001	-2.7035559E+002
3	0	7.349979814323888E+001	2.7435726E-001	-2.7039093E+002
3	0	7.399979813060781E+001	2.7393609E-001	-2.7034851E+002
3	0	7.449979811797675E+001	2.7351347E-001	-2.7041568E+002
3	0	7.499979810534569E+001	2.7309945E-001	-2.7038385E+002
3	0	7.549979809271463E+001	2.7267551E-001	-2.7040506E+002
3	0	7.599979808008356E+001	2.7224377E-001	-2.7039447E+002
3	0	7.649979806745250E+001	2.7180952E-001	-2.7038742E+002
3	0	7.699979805482144E+001	2.7140594E-001	-2.7036618E+002
3	0	7.749979804219038E+001	2.7101710E-001	-2.7037326E+002
3	0	7.799979802955932E+001	2.7063271E-001	-2.7037677E+002
3	0	7.849979801692825E+001	2.7023908E-001	-2.7036972E+002
3	0	7.899979800429719E+001	2.6985934E-001	-2.7036972E+002
3	0	7.949979799166613E+001	2.6947019E-001	-2.7040155E+002
3	0	7.999979797903507E+001	2.6906577E-001	-2.7038742E+002
3	0	8.049979796640400E+001	2.6865718E-001	-2.7036972E+002
3	0	8.099979795377294E+001	2.6829648E-001	-2.7038031E+002
3	0	8.149979794114188E+001	2.6794228E-001	-2.7039447E+002
3	0	8.199979792851082E+001	2.6758012E-001	-2.7039447E+002
3	0	8.249979791587975E+001	2.6722640E-001	-2.7039093E+002
3	0	8.299979790324869E+001	2.6687413E-001	-2.7037326E+002
3	0	8.349979789061763E+001	2.6650530E-001	-2.7039447E+002
3	0	8.399979787798657E+001	2.6612714E-001	-2.7038742E+002
3	0	8.449979786535550E+001	2.6574925E-001	-2.7040506E+002
3	0	8.499979785272444E+001	2.6541424E-001	-2.7038385E+002
3	0	8.549979784009338E+001	2.6508817E-001	-2.7036618E+002
3	0	8.599979782746232E+001	2.6476398E-001	-2.7037677E+002
3	0	8.649979781483125E+001	2.6444504E-001	-2.7038742E+002
3	0	8.699979780220019E+001	2.6412243E-001	-2.7037677E+002
3	0	8.749979778956913E+001	2.6379359E-001	-2.7037677E+002
3	0	8.799979777693807E+001	2.6344603E-001	-2.7036618E+002
3	0	8.849979776430700E+001	2.6310360E-001	-2.7038742E+002
3	0	8.899979775167594E+001	2.6279542E-001	-2.7035205E+002
3	0	8.949979773904488E+001	2.6250184E-001	-2.7039447E+002
3	0	8.999979772641382E+001	2.6220596E-001	-2.7035559E+002
3	0	9.049979771378275E+001	2.6191220E-001	-2.7039801E+002
3	0	9.099979770115169E+001	2.6161405E-001	-2.7035913E+002
3	0	9.149979768852063E+001	2.6130861E-001	-2.7038742E+002
3	0	9.199979767588957E+001	2.6099330E-001	-2.7036618E+002
3	0	9.249979766325851E+001	2.6067275E-001	-2.7039093E+002
3	0	9.299979765062744E+001	2.6039460E-001	-2.7038385E+002
3	0	9.349979763799638E+001	2.6012820E-001	-2.7038031E+002
3	0	9.399979762536532E+001	2.5986242E-001	-2.7039093E+002
3	0	9.449979761273426E+001	2.5960082E-001	-2.7037677E+002
3	0	9.499979760010319E+001	2.5933647E-001	-2.7039093E+002
3	0	9.549979758747213E+001	2.5906274E-001	-2.7036972E+002
3	0	9.599979757484107E+001	2.5876081E-001	-2.7035913E+002
3	0	9.649979756221001E+001	2.5846392E-001	-2.7041568E+002
3	0	9.699979754957894E+001	2.5821295E-001	-2.7038742E+002
3	0	9.749979753694788E+001	2.5797158E-001	-2.7036267E+002
3	0	9.799979752431682E+001	2.5772092E-001	-2.7036618E+002
3	0	9.849979751168576E+001	2.5747594E-001	-2.7039447E+002
3	0	9.899979749905469E+001	2.5722867E-001	-2.7039093E+002
3	0	9.949979748642363E+001	2.5697088E-001	-2.7039093E+002
3	0	9.999979747379257E+001	2.5669581E-001	-2.7036618E+002
3	0	1.004997974611615E+002	2.5642270E-001	-2.7035913E+002
3	0	1.009997974485304E+002	2.5619155E-001	-2.7035559E+002
3	0	1.014997974358994E+002	2.5596231E-001	-2.7036618E+002
3	0	1.019997974232683E+002	2.5573695E-001	-2.7038031E+002
3	0	1.024997974106373E+002	2.5551218E-001	-2.7037677E+002
3	0	1.029997973980062E+002	2.5528753E-001	-2.7038031E+002
3	0	1.034997973853751E+002	2.5504580E-001	-2.7035913E+002
3	0	1.039997973727441E+002	2.5479680E-001	-2.7038742E+002
3	0	1.044997973601130E+002	2.5453928E-001	-2.7035205E+002
3	0	1.049997973474819E+002	2.5432718E-001	-2.7036618E+002
3	0	1.054997973348509E+002	2.5412762E-001	-2.7039801E+002
3	0	1.059997973222198E+002	2.5391904E-001	-2.7039093E+002
3	0	1.064997973095888E+002	2.5372064E-001	-2.7038742E+002
3	0	1.069997972969577E+002	2.5351605E-001	-2.7037677E+002
3	0	1.074997972843266E+002	2.5329801E-001	-2.7036267E+002
3	0	1.079997972716956E+002	2.5306296E-001	-2.7036972E+002
3	0	1.084997972590645E+002	2.5283003E-001	-2.7037326E+002
3	0	1.089997972464334E+002	2.5262928E-001	-2.7036972E+002
3	0	1.094997972338024E+002	2.5244960E-001	-2.7037326E+002
3	0	1.099997972211713E+002	2.5226450E-001	-2.7038385E+002
3	0	1.104997972085403E+002	2.5207353E-001	-2.7037326E+002
3	0	1.109997971959092E+002	2.5188813E-001	-2.7033789E+002
3	0	1.114997971832781E+002	2.5169402E-001	-2.7038385E+002
3	0	1.119997971706471E+002	2.5147194E-001	-2.7038742E+002
3	0	1.124997971580160E+002	2.5125298E-001	-2.7037677E+002
3	0	1.129997971453849E+002	2.5108007E-001	-2.7037326E+002
3	0	1.134997971327539E+002	2.5090453E-001	-2.7036267E+002
3	0	1.139997971201228E+002	2.5073534E-001	-2.7037326E+002
3	0	1.144997971074918E+002	2.5056583E-001	-2.7037326E+002
3	0	1.149997970948607E+002	2.5039631E-001	-2.7036267E+002
3	0	1.154997970822296E+002	2.5020608E-001	-2.7038742E+002
3	0	1.159997970695986E+002	2.5000605E-001	-2.7038385E+002
3	0	1.164997970569675E+002	2.4979696E-001	-2.7037326E+002
3	0	1.169997970443364E+002	2.4963833E-001	-2.7038742E+002
3	0	1.174997970317054E+002	2.4948218E-001	-2.7037326E+002
3	0	1.179997970190743E+002	2.4932729E-001	-2.7036972E+002
3	0	1.184997970064433E+002	2.4917240E-001	-2.7037677E+002
3	0	1.189997969938122E+002	2.4901402E-001	-2.7040155E+002
3	0	1.194997969811811E+002	2.4884157E-001	-2.7036618E+002
3	0	1.199997969685501E+002	2.4865177E-001	-2.7038031E+002
3	0	1.204997969559190E+002	2.4845518E-001	-2.7035559E+002
3	0	1.209997969432879E+002	2.4830458E-001	-2.7036972E+002
3	0	1.214997969306569E+002	2.4815907E-001	-2.7036267E+002
3	0	1.219997969180258E+002	2.4801691E-001	-2.7038385E+002
3	0	1.224997969053948E+002	2.4786930E-001	-2.7035913E+002
3	0	1.229997968927637E+002	2.4772309E-001	-2.7038031E+002
3	0	1.234997968801326E+002	2.4756362E-001	-2.7037326E+002
3	0	1.239997968675016E+002	2.4738185E-001	-2.7038031E+002
3	0	1.244997968548705E+002	2.4719015E-001	-2.7038031E+002
3	0	1.249997968422394E+002	2.4704425E-001	-2.7036618E+002
3	0	1.254997968296084E+002	2.4690971E-001	-2.7038742E+002
3	0	1.259997968169773E+002	2.4677587E-001	-2.7040155E+002
3	0	1.264997968043463E+002	2.4664113E-001	-2.7039447E+002
3	0	1.269997967917152E+002	2.4650124E-001	-2.7038031E+002
3	0	1.274997967790841E+002	2.4634984E-001	-2.7039447E+002
3	0	1.279997967664531E+002	2.4618161E-001	-2.7038031E+002
3	0	1.284997967538220E+002	2.4601056E-001	-2.7039801E+002
3	0	1.289997967411909E+002	2.4588324E-001	-2.7038742E+002
3	0	1.294997967285599E+002	2.4576351E-001	-2.7039801E+002
3	0	1.299997967159288E+002	2.4564542E-001	-2.7037677E+002
3	0	1.304997967032978E+002	2.4552301E-001	-2.7039447E+002
3	0	1.309997966906667E+002	2.4539997E-001	-2.7037677E+002
3	0	1.314997966780356E+002	2.4526080E-001	-2.7036267E+002
3	0	1.319997966654046E+002	2.4509832E-001	-2.7036618E+002
3	0	1.324997966527735E+002	2.4493553E-001	-2.7041214E+002
3	0	1.329997966401424E+002	2.4481349E-001	-2.7037677E+002
3	0	1.334997966275114E+002	2.4469689E-001	-2.7037677E+002
3	0	1.339997966148803E+002	2.4458392E-001	-2.7038031E+002
3	0	1.344997966022493E+002	2.4447308E-001	-2.7039093E+002
3	0	1.349997965896182E+002	2.4435836E-001	-2.7040506E+002
3	0	1.354997965769871E+002	2.4423085E-001	-2.7037677E+002
3	0	1.359997965643561E+002	2.4407721E-001	-2.7036972E+002
3	0	1.364997965517250E+002	2.4392641E-001	-2.7038031E+002
3	0	1.369997965390940E+002	2.4381046E-001	-2.7039447E+002
3	0	1.374997965264629E+002	2.4370672E-001	-2.7040155E+002
3	0	1.379997965138318E+002	2.4359633E-001	-2.7038385E+002
3	0	1.384997965012008E+002	2.4348485E-001	-2.7039093E+002
3	0	1.389997964885697E+002	2.4337865E-001	-2.7036972E+002
3	0	1.394997964759386E+002	2.4325506E-001	-2.7038031E+002
3	0	1.399997964633076E+002	2.4311467E-001	-2.7036972E+002
3	0	1.404997964506765E+002	2.4296553E-001	-2.7037677E+002
3	0	1.409997964380455E+002	2.4285276E-001	-2.7038031E+002
3	0	1.414997964254144E+002	2.4275519E-001	-2.7040860E+002
3	0	1.419997964127833E+002	2.4265270E-001	-2.7036618E+002
3	0	1.424997964001523E+002	2.4254780E-001	-2.7039093E+002
3	0	1.429997963875212E+002	2.4244037E-001	-2.7036972E+002
3	0	1.434997963748901E+002	2.4231108E-001	-2.7038385E+002
3	0	1.439997963622591E+002	2.4215870E-001	-2.7038385E+002
3	0	1.444997963496280E+002	2.4201408E-001	-2.7037677E+002
3	0	1.449997963369970E+002	2.4190812E-001	-2.7038385E+002
3	0	1.454997963243659E+002	2.4180754E-001	-2.7036972E+002
3	0	1.459997963117348E+002	2.4170613E-001	-2.7035205E+002
3	0	1.464997962991038E+002	2.4160792E-001	-2.7035559E+002
3	0	1.469997962864727E+002	2.4150723E-001	-2.7036267E+002
3	0	1.474997962738416E+002	2.4139337E-001	-2.7036267E+002
3	0	1.479997962612106E+002	2.4125941E-001	-2.7040155E+002
3	0	1.484997962485795E+002	2.4111886E-001	-2.7036618E+002
3	0	1.489997962359485E+002	2.4102381E-001	-2.7039801E+002
3	0	1.494997962233174E+002	2.4093707E-001	-2.7037326E+002
3	0	1.499997962106863E+002	2.4084556E-001	-2.7036972E+002
3	0	1.504997961980553E+002	2.4075380E-001	-2.7038742E+002
3	0	1.509997961854242E+002	2.4065579E-001	-2.7038385E+002
3	0	1.514997961727931E+002	2.4055736E-001	-2.7039093E+002
3	0	1.519997961601621E+002	2.4043009E-001	-2.7036267E+002
3	0	1.524997961475310E+002	2.4030529E-001	-2.7038742E+002
3	0	1.529997961349000E+002	2.4022181E-001	-2.7037677E+002
3	0	1.534997961222689E+002	2.4014346E-001	-2.7038742E+002
3	0	1.539997961096378E+002	2.4006838E-001	-2.7039801E+002
3	0	1.544997960970068E+002	2.3998466E-001	-2.7037677E+002
3	0	1.549997960843757E+002	2.3989709E-001	-2.7037677E+002
3	0	1.554997960717446E+002	2.3979901E-001	-2.7038385E+002
3	0	1.559997960591136E+002	2.3967287E-001	-2.7040155E+002
3	0	1.564997960464825E+002	2.3955180E-001	-2.7038385E+002
3	0	1.569997960338515E+002	2.3946957E-001	-2.7035205E+002
3	0	1.574997960212204E+002	2.3939544E-001	-2.7039447E+002
3	0	1.579997960085893E+002	2.3931685E-001	-2.7036972E+002
3	0	1.584997959959583E+002	2.3923221E-001	-2.7038742E+002
3	0	1.589997959833272E+002	2.3915270E-001	-2.7034851E+002
3	0	1.594997959706961E+002	2.3905572E-001	-2.7040860E+002
3	0	1.599997959580651E+002	2.3894291E-001	-2.7037326E+002
3	0	1.604997959454340E+002	2.3882474E-001	-2.7040860E+002
3	0	1.609997959328030E+002	2.3875062E-001	-2.7037326E+002
3	0	1.614997959201719E+002	2.3867807E-001	-2.7039093E+002
3	0	1.619997959075408E+002	2.3860128E-001	-2.7035559E+002
3	0	1.624997958949098E+002	2.3852278E-001	-2.7038031E+002
3	0	1.629997958822787E+002	2.3844123E-001	-2.7036972E+002
3	0	1.634997958696476E+002	2.3834667E-001	-2.7035913E+002
3	0	1.639997958570166E+002	2.3823304E-001	-2.7037677E+002
3	0	1.644997958443855E+002	2.3811293E-001	-2.7037677E+002
3	0	1.649997958317545E+002	2.3803632E-001	-2.7038385E+002
3	0	1.650001958317444E+002	2.3804080E-001	-2.7036972E+002