EC-Lab ASCII FILE
Nb header lines : 55                          

Open Circuit Voltage

Run on channel : 1 (SN 81504)
User : 
CE vs. WE compliance from -10 V to 10 V
Electrode connection : standard
Potential control : Ewe
Ewe ctrl range : min = -2.50 V, max = 2.50 V
Safety Limits :
	Do not start on E overload
Acquisition started on : 05/07/2026 21:45:35.104
Loaded Setting File :  C:\PEM-WE_measurements\2026\372_IV_IV IrOx, 5 min Pt, 30 min C, etched cathode\new station\Loopeis new\1,46 V different time gaps open cell\Loopeis 1,46V_120s_4_PEIS from 650Hz to 100Hz.mps
Saved on :
	File : L_24_Loopeis 1,46V_120s_4_PEIS from 650Hz to 100Hz_16_OCV_C01.mpr
	Directory : C:\PEM-WE_measurements\2026\372_IV_IV IrOx, 5 min Pt, 30 min C, etched cathode\new station\Loopeis new\1,46 V different time gaps open cell\
	Host : 192.168.0.2
Device : SP-150e (SN .005491)
Address : 192.168.0.91
EC-LAB for windows v11.71 (software)
Internet server v28.00 (firmware)
Command interpretor v14.01 (firmware)
Electrode material : 
Initial state : 
Electrolyte : 
Comments : 
Current amplifier : SP-150eB-20A
Electrode surface area : 0.001 cm²
Characteristic mass : 0.001 g
Equivalent Weight : 0.000 g/eq.
Density : 0.000 g/cm3
Volume (V) : 0.001 cm³
Record Analogic IN 1
Text export
   Mode : Standard
   Time format : Elapsed
Cycle Definition : Charge/Discharge alternance
External device configuration :
   device type : Temperature Probe
   device name : Other
   Analog IN 1 : 
      unit : T/Â°C
      max : 100.000 at 2.000 V
      min : 0.000 at 1.460 V
tR (h:m:s)          0:02:0.0000         
dER/dt (mV/h)       1.0                 
record              <Ewe>               
dER (mV)            10.00               
dtR (s)             0.5000              
E range min (V)     -2.500              
E range max (V)     2.500               

mode	error	time/s	<Ewe/V>	Analog IN 1/V	
3	0	1.205637783014899E+003	9.5392019E-001	-2.7040155E+002
3	0	1.206137783002268E+003	1.1438925E+000	-2.7039447E+002
3	0	1.206637782989637E+003	8.3692056E-001	-2.7037677E+002
3	0	1.207137782977006E+003	4.1907415E-001	-2.7038385E+002
3	0	1.207637782964375E+003	3.2124782E-001	-2.7036618E+002
3	0	1.208137782951744E+003	3.0986062E-001	-2.7038031E+002
3	0	1.208637782939113E+003	3.0320829E-001	-2.7036267E+002
3	0	1.209137782926482E+003	2.9757765E-001	-2.7038385E+002
3	0	1.209637782913851E+003	2.9313290E-001	-2.7037326E+002
3	0	1.210137782901220E+003	2.8966334E-001	-2.7038742E+002
3	0	1.210637782888589E+003	2.8691700E-001	-2.7037677E+002
3	0	1.211137782875958E+003	2.8467843E-001	-2.7038742E+002
3	0	1.211637782863327E+003	2.8281748E-001	-2.7036618E+002
3	0	1.212137782850696E+003	2.8128844E-001	-2.7038031E+002
3	0	1.212637782838065E+003	2.7996188E-001	-2.7037326E+002
3	0	1.213137782825434E+003	2.7881199E-001	-2.7039093E+002
3	0	1.213637782812802E+003	2.7778170E-001	-2.7037326E+002
3	0	1.214137782800171E+003	2.7684790E-001	-2.7035913E+002
3	0	1.214637782787540E+003	2.7598011E-001	-2.7035559E+002
3	0	1.215137782774909E+003	2.7515274E-001	-2.7036972E+002
3	0	1.215637782762278E+003	2.7437842E-001	-2.7040155E+002
3	0	1.216137782749647E+003	2.7368194E-001	-2.7041568E+002
3	0	1.216637782737016E+003	2.7300826E-001	-2.7037677E+002
3	0	1.217137782724385E+003	2.7237135E-001	-2.7038742E+002
3	0	1.217637782711754E+003	2.7176318E-001	-2.7038385E+002
3	0	1.218137782699123E+003	2.7115884E-001	-2.7037326E+002
3	0	1.218637782686492E+003	2.7056807E-001	-2.7037326E+002
3	0	1.219137782673861E+003	2.6996812E-001	-2.7037677E+002
3	0	1.219637782661230E+003	2.6938507E-001	-2.7037326E+002
3	0	1.220137782648599E+003	2.6884195E-001	-2.7036618E+002
3	0	1.220637782635968E+003	2.6830739E-001	-2.7038742E+002
3	0	1.221137782623337E+003	2.6778090E-001	-2.7037677E+002
3	0	1.221637782610705E+003	2.6726958E-001	-2.7036267E+002
3	0	1.222137782598074E+003	2.6675877E-001	-2.7039801E+002
3	0	1.222637782585443E+003	2.6624134E-001	-2.7038742E+002
3	0	1.223137782572812E+003	2.6571077E-001	-2.7034143E+002
3	0	1.223637782560181E+003	2.6518139E-001	-2.7037677E+002
3	0	1.224137782547550E+003	2.6469582E-001	-2.7037326E+002
3	0	1.224637782534919E+003	2.6421672E-001	-2.7039093E+002
3	0	1.225137782522288E+003	2.6374564E-001	-2.7038385E+002
3	0	1.225637782509657E+003	2.6328224E-001	-2.7039093E+002
3	0	1.226137782497026E+003	2.6281813E-001	-2.7038742E+002
3	0	1.226637782484395E+003	2.6234877E-001	-2.7039447E+002
3	0	1.227137782471764E+003	2.6185617E-001	-2.7037677E+002
3	0	1.227637782459133E+003	2.6136437E-001	-2.7040506E+002
3	0	1.228137782446502E+003	2.6091480E-001	-2.7038031E+002
3	0	1.228637782433871E+003	2.6046062E-001	-2.7037677E+002
3	0	1.229137782421240E+003	2.6001343E-001	-2.7039447E+002
3	0	1.229637782408608E+003	2.5958005E-001	-2.7036618E+002
3	0	1.230137782395977E+003	2.5914469E-001	-2.7040155E+002
3	0	1.230637782383346E+003	2.5869942E-001	-2.7037326E+002
3	0	1.231137782370715E+003	2.5824046E-001	-2.7036267E+002
3	0	1.231637782358084E+003	2.5778663E-001	-2.7037326E+002
3	0	1.232137782345453E+003	2.5737077E-001	-2.7039801E+002
3	0	1.232637782332822E+003	2.5695494E-001	-2.7039447E+002
3	0	1.233137782320191E+003	2.5654629E-001	-2.7037677E+002
3	0	1.233637782307560E+003	2.5614533E-001	-2.7041919E+002
3	0	1.234137782294929E+003	2.5574204E-001	-2.7036972E+002
3	0	1.234637782282298E+003	2.5533879E-001	-2.7036618E+002
3	0	1.235137782269667E+003	2.5491276E-001	-2.7040506E+002
3	0	1.235637782257036E+003	2.5449696E-001	-2.7035913E+002
3	0	1.236137782244405E+003	2.5411633E-001	-2.7038031E+002
3	0	1.236637782231774E+003	2.5373089E-001	-2.7038742E+002
3	0	1.237137782219143E+003	2.5335139E-001	-2.7036618E+002
3	0	1.237637782206511E+003	2.5298342E-001	-2.7038385E+002
3	0	1.238137782193880E+003	2.5260687E-001	-2.7036972E+002
3	0	1.238637782181249E+003	2.5222692E-001	-2.7037326E+002
3	0	1.239137782168618E+003	2.5182492E-001	-2.7041568E+002
3	0	1.239637782155987E+003	2.5142941E-001	-2.7036267E+002
3	0	1.240137782143356E+003	2.5108188E-001	-2.7037677E+002
3	0	1.240637782130725E+003	2.5072411E-001	-2.7038031E+002
3	0	1.241137782118094E+003	2.5037834E-001	-2.7038385E+002
3	0	1.241637782105463E+003	2.5003213E-001	-2.7037326E+002
3	0	1.242137782092832E+003	2.4969542E-001	-2.7037326E+002
3	0	1.242637782080201E+003	2.4934161E-001	-2.7039093E+002
3	0	1.243137782067570E+003	2.4896652E-001	-2.7039447E+002
3	0	1.243637782054939E+003	2.4860647E-001	-2.7036972E+002
3	0	1.244137782042308E+003	2.4828449E-001	-2.7037326E+002
3	0	1.244637782029677E+003	2.4796070E-001	-2.7035205E+002
3	0	1.245137782017046E+003	2.4763878E-001	-2.7035205E+002
3	0	1.245637782004414E+003	2.4731593E-001	-2.7036972E+002
3	0	1.246137781991783E+003	2.4696769E-001	-2.7040860E+002
3	0	1.246637781979152E+003	2.4663620E-001	-2.7037326E+002
3	0	1.247137781966521E+003	2.4631818E-001	-2.7037677E+002
3	0	1.247637781953890E+003	2.4599668E-001	-2.7038742E+002
3	0	1.248137781941259E+003	2.4571122E-001	-2.7039801E+002
3	0	1.248637781928628E+003	2.4542475E-001	-2.7036267E+002
3	0	1.249137781915997E+003	2.4512945E-001	-2.7038031E+002
3	0	1.249637781903366E+003	2.4483433E-001	-2.7036972E+002
3	0	1.250137781890735E+003	2.4453925E-001	-2.7038031E+002
3	0	1.250637781878104E+003	2.4423131E-001	-2.7036618E+002
3	0	1.251137781865473E+003	2.4390671E-001	-2.7036972E+002
3	0	1.251637781852842E+003	2.4358380E-001	-2.7038385E+002
3	0	1.252137781840211E+003	2.4331871E-001	-2.7040155E+002
3	0	1.252637781827580E+003	2.4305035E-001	-2.7037326E+002
3	0	1.253137781814949E+003	2.4277601E-001	-2.7040155E+002
3	0	1.253637781802317E+003	2.4250837E-001	-2.7038385E+002
3	0	1.254137781789686E+003	2.4223459E-001	-2.7036618E+002
3	0	1.254637781777055E+003	2.4195336E-001	-2.7036267E+002
3	0	1.255137781764424E+003	2.4165767E-001	-2.7036972E+002
3	0	1.255637781751793E+003	2.4137196E-001	-2.7037326E+002
3	0	1.256137781739162E+003	2.4112508E-001	-2.7036972E+002
3	0	1.256637781726531E+003	2.4088410E-001	-2.7037677E+002
3	0	1.257137781713900E+003	2.4064749E-001	-2.7039801E+002
3	0	1.257637781701269E+003	2.4040477E-001	-2.7038031E+002
3	0	1.258137781688638E+003	2.4016088E-001	-2.7039093E+002
3	0	1.258637781676007E+003	2.3990463E-001	-2.7037326E+002
3	0	1.259137781663376E+003	2.3963507E-001	-2.7038385E+002
3	0	1.259637781650745E+003	2.3936422E-001	-2.7036972E+002
3	0	1.260137781638114E+003	2.3914196E-001	-2.7036267E+002
3	0	1.260637781625483E+003	2.3893437E-001	-2.7035913E+002
3	0	1.261137781612852E+003	2.3870561E-001	-2.7037677E+002
3	0	1.261637781600220E+003	2.3848163E-001	-2.7035913E+002
3	0	1.262137781587589E+003	2.3826315E-001	-2.7038031E+002
3	0	1.262637781574958E+003	2.3802850E-001	-2.7036267E+002
3	0	1.263137781562327E+003	2.3777261E-001	-2.7035205E+002
3	0	1.263637781549696E+003	2.3752318E-001	-2.7038031E+002
3	0	1.264137781537065E+003	2.3731652E-001	-2.7036267E+002
3	0	1.264637781524434E+003	2.3712294E-001	-2.7038031E+002
3	0	1.265137781511803E+003	2.3691976E-001	-2.7038385E+002
3	0	1.265637781499172E+003	2.3671730E-001	-2.7037326E+002
3	0	1.266137781486541E+003	2.3650965E-001	-2.7037677E+002
3	0	1.266637781473910E+003	2.3628865E-001	-2.7035913E+002
3	0	1.267137781461279E+003	2.3605472E-001	-2.7039093E+002
3	0	1.267637781448648E+003	2.3582123E-001	-2.7038031E+002
3	0	1.268137781436017E+003	2.3564367E-001	-2.7039801E+002
3	0	1.268637781423386E+003	2.3546539E-001	-2.7038031E+002
3	0	1.269137781410755E+003	2.3528148E-001	-2.7039093E+002
3	0	1.269637781398123E+003	2.3509590E-001	-2.7038031E+002
3	0	1.270137781385492E+003	2.3489891E-001	-2.7039801E+002
3	0	1.270637781372861E+003	2.3469090E-001	-2.7038742E+002
3	0	1.271137781360230E+003	2.3446485E-001	-2.7036618E+002
3	0	1.271637781347599E+003	2.3424886E-001	-2.7036618E+002
3	0	1.272137781334968E+003	2.3407955E-001	-2.7036972E+002
3	0	1.272637781322337E+003	2.3390681E-001	-2.7036267E+002
3	0	1.273137781309706E+003	2.3372880E-001	-2.7037326E+002
3	0	1.273637781297075E+003	2.3355180E-001	-2.7035913E+002
3	0	1.274137781284444E+003	2.3337314E-001	-2.7036267E+002
3	0	1.274637781271813E+003	2.3319356E-001	-2.7037677E+002
3	0	1.275137781259182E+003	2.3298912E-001	-2.7036267E+002
3	0	1.275637781246551E+003	2.3279074E-001	-2.7038031E+002
3	0	1.276137781233920E+003	2.3263666E-001	-2.7041214E+002
3	0	1.276637781221289E+003	2.3248483E-001	-2.7038031E+002
3	0	1.277137781208658E+003	2.3232487E-001	-2.7038031E+002
3	0	1.277637781196026E+003	2.3216388E-001	-2.7037677E+002
3	0	1.278137781183395E+003	2.3200873E-001	-2.7039093E+002
3	0	1.278637781170764E+003	2.3183903E-001	-2.7038385E+002
3	0	1.279137781158133E+003	2.3164795E-001	-2.7039447E+002
3	0	1.279637781145502E+003	2.3146100E-001	-2.7038385E+002
3	0	1.280137781132871E+003	2.3131825E-001	-2.7040155E+002
3	0	1.280637781120240E+003	2.3118104E-001	-2.7038031E+002
3	0	1.281137781107609E+003	2.3103856E-001	-2.7038742E+002
3	0	1.281637781094978E+003	2.3089381E-001	-2.7038031E+002
3	0	1.282137781082347E+003	2.3075107E-001	-2.7037677E+002
3	0	1.282637781069716E+003	2.3059288E-001	-2.7038385E+002
3	0	1.283137781057085E+003	2.3041351E-001	-2.7034497E+002
3	0	1.283637781044454E+003	2.3024103E-001	-2.7039447E+002
3	0	1.284137781031823E+003	2.3011197E-001	-2.7038742E+002
3	0	1.284637781019192E+003	2.2998279E-001	-2.7037677E+002
3	0	1.285137781006561E+003	2.2984974E-001	-2.7037677E+002
3	0	1.285637780993929E+003	2.2971441E-001	-2.7038031E+002
3	0	1.286137780981298E+003	2.2957894E-001	-2.7035913E+002
3	0	1.286637780968667E+003	2.2943255E-001	-2.7039447E+002
3	0	1.287137780956036E+003	2.2926463E-001	-2.7038742E+002
3	0	1.287637780943405E+003	2.2909637E-001	-2.7037326E+002
3	0	1.288137780930774E+003	2.2898121E-001	-2.7038742E+002
3	0	1.288637780918143E+003	2.2886506E-001	-2.7035913E+002
3	0	1.289137780905512E+003	2.2874062E-001	-2.7040155E+002
3	0	1.289637780892881E+003	2.2860697E-001	-2.7036972E+002
3	0	1.290137780880250E+003	2.2847821E-001	-2.7038031E+002
3	0	1.290637780867619E+003	2.2832964E-001	-2.7037677E+002
3	0	1.291137780854988E+003	2.2816725E-001	-2.7039093E+002
3	0	1.291637780842357E+003	2.2801022E-001	-2.7036267E+002
3	0	1.292137780829726E+003	2.2790146E-001	-2.7039447E+002
3	0	1.292637780817095E+003	2.2778988E-001	-2.7040506E+002
3	0	1.293137780804464E+003	2.2767676E-001	-2.7036618E+002
3	0	1.293637780791832E+003	2.2756515E-001	-2.7036267E+002
3	0	1.294137780779201E+003	2.2744325E-001	-2.7036618E+002
3	0	1.294637780766570E+003	2.2731131E-001	-2.7038385E+002
3	0	1.295137780753939E+003	2.2715352E-001	-2.7038385E+002
3	0	1.295637780741308E+003	2.2700204E-001	-2.7036267E+002
3	0	1.296137780728677E+003	2.2690521E-001	-2.7040506E+002
3	0	1.296637780716046E+003	2.2681232E-001	-2.7036267E+002
3	0	1.297137780703415E+003	2.2670723E-001	-2.7038031E+002
3	0	1.297637780690784E+003	2.2659945E-001	-2.7036618E+002
3	0	1.298137780678153E+003	2.2649381E-001	-2.7038385E+002
3	0	1.298637780665522E+003	2.2637257E-001	-2.7039801E+002
3	0	1.299137780652891E+003	2.2623077E-001	-2.7035913E+002
3	0	1.299637780640260E+003	2.2608756E-001	-2.7036972E+002
3	0	1.300137780627629E+003	2.2598954E-001	-2.7035559E+002
3	0	1.300637780614998E+003	2.2589667E-001	-2.7038031E+002
3	0	1.301137780602367E+003	2.2580031E-001	-2.7036972E+002
3	0	1.301637780589735E+003	2.2570337E-001	-2.7039801E+002
3	0	1.302137780577104E+003	2.2560623E-001	-2.7039093E+002
3	0	1.302637780564473E+003	2.2549552E-001	-2.7039801E+002
3	0	1.303137780551842E+003	2.2535884E-001	-2.7038385E+002
3	0	1.303637780539211E+003	2.2522204E-001	-2.7037677E+002
3	0	1.304137780526580E+003	2.2513285E-001	-2.7037677E+002
3	0	1.304637780513949E+003	2.2505018E-001	-2.7037326E+002
3	0	1.305137780501318E+003	2.2496299E-001	-2.7036267E+002
3	0	1.305637780488687E+003	2.2487535E-001	-2.7038031E+002
3	0	1.306137780476056E+003	2.2479044E-001	-2.7036267E+002
3	0	1.306637780463425E+003	2.2467670E-001	-2.7035559E+002
3	0	1.307137780450794E+003	2.2454481E-001	-2.7039093E+002
3	0	1.307637780438163E+003	2.2440889E-001	-2.7038385E+002
3	0	1.308137780425532E+003	2.2432576E-001	-2.7036267E+002
3	0	1.308637780412901E+003	2.2424655E-001	-2.7037326E+002
3	0	1.309137780400270E+003	2.2415772E-001	-2.7037677E+002
3	0	1.309637780387638E+003	2.2406837E-001	-2.7039801E+002
3	0	1.310137780375007E+003	2.2397292E-001	-2.7038385E+002
3	0	1.310637780362376E+003	2.2386268E-001	-2.7036267E+002
3	0	1.311137780349745E+003	2.2373497E-001	-2.7038742E+002
3	0	1.311637780337114E+003	2.2360726E-001	-2.7036618E+002
3	0	1.312137780324483E+003	2.2352877E-001	-2.7038742E+002
3	0	1.312637780311852E+003	2.2345167E-001	-2.7038031E+002
3	0	1.313137780299221E+003	2.2337210E-001	-2.7037677E+002
3	0	1.313637780286590E+003	2.2328731E-001	-2.7039801E+002
3	0	1.314137780273959E+003	2.2320421E-001	-2.7037326E+002
3	0	1.314637780261328E+003	2.2310676E-001	-2.7038031E+002
3	0	1.315137780248697E+003	2.2299039E-001	-2.7038031E+002
3	0	1.315637780236066E+003	2.2286882E-001	-2.7036267E+002
3	0	1.316137780223435E+003	2.2279169E-001	-2.7038031E+002
3	0	1.316637780210804E+003	2.2272435E-001	-2.7038742E+002
3	0	1.317137780198173E+003	2.2265540E-001	-2.7039447E+002
3	0	1.317637780185541E+003	2.2257826E-001	-2.7037326E+002
3	0	1.318137780172910E+003	2.2250716E-001	-2.7037677E+002
3	0	1.318637780160279E+003	2.2241156E-001	-2.7037677E+002
3	0	1.319137780147648E+003	2.2229476E-001	-2.7036618E+002
3	0	1.319637780135017E+003	2.2218019E-001	-2.7040506E+002
3	0	1.320137780122386E+003	2.2210912E-001	-2.7037677E+002
3	0	1.320637780109755E+003	2.2204803E-001	-2.7037677E+002
3	0	1.321137780097124E+003	2.2198182E-001	-2.7037326E+002
3	0	1.321637780084493E+003	2.2191110E-001	-2.7037326E+002
3	0	1.322137780071862E+003	2.2184215E-001	-2.7041568E+002
3	0	1.322637780059231E+003	2.2175148E-001	-2.7035559E+002
3	0	1.323137780046600E+003	2.2163978E-001	-2.7037326E+002
3	0	1.323637780033969E+003	2.2152369E-001	-2.7039447E+002
3	0	1.324137780021338E+003	2.2145858E-001	-2.7038742E+002
3	0	1.324637780008707E+003	2.2139870E-001	-2.7041214E+002
3	0	1.325137779996076E+003	2.2133012E-001	-2.7036972E+002
3	0	1.325162379995454E+003	2.2129299E-001	-2.7038385E+002