EC-Lab ASCII FILE
Nb header lines : 55                          

Open Circuit Voltage

Run on channel : 1 (SN 81504)
User : 
CE vs. WE compliance from -10 V to 10 V
Electrode connection : standard
Potential control : Ewe
Ewe ctrl range : min = -2.50 V, max = 2.50 V
Safety Limits :
	Do not start on E overload
Acquisition started on : 05/07/2026 21:45:35.104
Loaded Setting File :  C:\PEM-WE_measurements\2026\372_IV_IV IrOx, 5 min Pt, 30 min C, etched cathode\new station\Loopeis new\1,46 V different time gaps open cell\Loopeis 1,46V_120s_4_PEIS from 650Hz to 100Hz.mps
Saved on :
	File : L_24_Loopeis 1,46V_120s_4_PEIS from 650Hz to 100Hz_08_OCV_C01.mpr
	Directory : C:\PEM-WE_measurements\2026\372_IV_IV IrOx, 5 min Pt, 30 min C, etched cathode\new station\Loopeis new\1,46 V different time gaps open cell\
	Host : 192.168.0.2
Device : SP-150e (SN .005491)
Address : 192.168.0.91
EC-LAB for windows v11.71 (software)
Internet server v28.00 (firmware)
Command interpretor v14.01 (firmware)
Electrode material : 
Initial state : 
Electrolyte : 
Comments : 
Current amplifier : SP-150eB-20A
Electrode surface area : 0.001 cm²
Characteristic mass : 0.001 g
Equivalent Weight : 0.000 g/eq.
Density : 0.000 g/cm3
Volume (V) : 0.001 cm³
Record Analogic IN 1
Text export
   Mode : Standard
   Time format : Elapsed
Cycle Definition : Charge/Discharge alternance
External device configuration :
   device type : Temperature Probe
   device name : Other
   Analog IN 1 : 
      unit : T/Â°C
      max : 100.000 at 2.000 V
      min : 0.000 at 1.460 V
tR (h:m:s)          0:02:0.0000         
dER/dt (mV/h)       1.0                 
record              <Ewe>               
dER (mV)            10.00               
dtR (s)             0.5000              
E range min (V)     -2.500              
E range max (V)     2.500               

mode	error	time/s	<Ewe/V>	Analog IN 1/V	
3	0	5.404193928918539E+002	9.5743155E-001	-2.7036972E+002
3	0	5.409193928792229E+002	1.1449969E+000	-2.7038385E+002
3	0	5.414193928665918E+002	8.4090632E-001	-2.7038742E+002
3	0	5.419193928539607E+002	4.1902795E-001	-2.7040506E+002
3	0	5.424193928413297E+002	3.2037678E-001	-2.7038031E+002
3	0	5.429193928286986E+002	3.0911958E-001	-2.7036972E+002
3	0	5.434193928160676E+002	3.0247024E-001	-2.7038742E+002
3	0	5.439193928034365E+002	2.9685345E-001	-2.7036972E+002
3	0	5.444193927908054E+002	2.9243010E-001	-2.7038385E+002
3	0	5.449193927781744E+002	2.8898010E-001	-2.7038031E+002
3	0	5.454193927655433E+002	2.8625250E-001	-2.7037326E+002
3	0	5.459193927529122E+002	2.8404486E-001	-2.7038385E+002
3	0	5.464193927402812E+002	2.8222236E-001	-2.7039093E+002
3	0	5.469193927276501E+002	2.8067011E-001	-2.7038742E+002
3	0	5.474193927150191E+002	2.7931643E-001	-2.7038385E+002
3	0	5.479193927023880E+002	2.7813104E-001	-2.7038385E+002
3	0	5.484193926897569E+002	2.7709821E-001	-2.7037326E+002
3	0	5.489193926771259E+002	2.7615765E-001	-2.7040860E+002
3	0	5.494193926644948E+002	2.7530003E-001	-2.7038742E+002
3	0	5.499193926518637E+002	2.7451047E-001	-2.7039447E+002
3	0	5.504193926392327E+002	2.7376798E-001	-2.7039093E+002
3	0	5.509193926266016E+002	2.7304369E-001	-2.7039801E+002
3	0	5.514193926139706E+002	2.7234006E-001	-2.7040506E+002
3	0	5.519193926013395E+002	2.7166438E-001	-2.7036972E+002
3	0	5.524193925887084E+002	2.7104133E-001	-2.7035913E+002
3	0	5.529193925760774E+002	2.7044636E-001	-2.7040506E+002
3	0	5.534193925634463E+002	2.6986334E-001	-2.7035913E+002
3	0	5.539193925508152E+002	2.6930556E-001	-2.7036972E+002
3	0	5.544193925381842E+002	2.6875272E-001	-2.7037326E+002
3	0	5.549193925255531E+002	2.6819241E-001	-2.7039447E+002
3	0	5.554193925129221E+002	2.6761946E-001	-2.7036972E+002
3	0	5.559193925002910E+002	2.6706252E-001	-2.7034851E+002
3	0	5.564193924876599E+002	2.6654363E-001	-2.7039447E+002
3	0	5.569193924750289E+002	2.6603335E-001	-2.7039801E+002
3	0	5.574193924623978E+002	2.6553500E-001	-2.7035913E+002
3	0	5.579193924497667E+002	2.6503310E-001	-2.7038031E+002
3	0	5.584193924371357E+002	2.6454455E-001	-2.7039093E+002
3	0	5.589193924245046E+002	2.6404154E-001	-2.7035913E+002
3	0	5.594193924118736E+002	2.6353103E-001	-2.7037326E+002
3	0	5.599193923992425E+002	2.6302448E-001	-2.7038031E+002
3	0	5.604193923866114E+002	2.6255006E-001	-2.7036267E+002
3	0	5.609193923739804E+002	2.6209262E-001	-2.7040155E+002
3	0	5.614193923613493E+002	2.6163071E-001	-2.7037326E+002
3	0	5.619193923487182E+002	2.6117519E-001	-2.7039447E+002
3	0	5.624193923360872E+002	2.6071614E-001	-2.7038031E+002
3	0	5.629193923234561E+002	2.6024294E-001	-2.7038742E+002
3	0	5.634193923108251E+002	2.5976124E-001	-2.7040860E+002
3	0	5.639193922981940E+002	2.5929078E-001	-2.7037677E+002
3	0	5.644193922855629E+002	2.5885576E-001	-2.7037677E+002
3	0	5.649193922729319E+002	2.5841480E-001	-2.7037677E+002
3	0	5.654193922603008E+002	2.5798681E-001	-2.7036618E+002
3	0	5.659193922476697E+002	2.5756544E-001	-2.7038385E+002
3	0	5.664193922350387E+002	2.5713760E-001	-2.7033789E+002
3	0	5.669193922224076E+002	2.5670150E-001	-2.7037326E+002
3	0	5.674193922097766E+002	2.5625619E-001	-2.7039447E+002
3	0	5.679193921971455E+002	2.5581455E-001	-2.7036267E+002
3	0	5.684193921845144E+002	2.5541329E-001	-2.7040506E+002
3	0	5.689193921718834E+002	2.5501218E-001	-2.7039093E+002
3	0	5.694193921592523E+002	2.5462037E-001	-2.7037677E+002
3	0	5.699193921466212E+002	2.5423053E-001	-2.7039093E+002
3	0	5.704193921339902E+002	2.5383559E-001	-2.7036267E+002
3	0	5.709193921213591E+002	2.5343579E-001	-2.7037326E+002
3	0	5.714193921087281E+002	2.5302023E-001	-2.7037677E+002
3	0	5.719193920960970E+002	2.5261402E-001	-2.7038031E+002
3	0	5.724193920834659E+002	2.5224245E-001	-2.7036267E+002
3	0	5.729193920708349E+002	2.5187132E-001	-2.7039447E+002
3	0	5.734193920582038E+002	2.5150505E-001	-2.7040506E+002
3	0	5.739193920455727E+002	2.5114280E-001	-2.7038031E+002
3	0	5.744193920329417E+002	2.5077635E-001	-2.7039801E+002
3	0	5.749193920203106E+002	2.5040293E-001	-2.7038385E+002
3	0	5.754193920076796E+002	2.5000900E-001	-2.7038385E+002
3	0	5.759193919950485E+002	2.4963124E-001	-2.7038031E+002
3	0	5.764193919824174E+002	2.4929386E-001	-2.7037326E+002
3	0	5.769193919697864E+002	2.4895155E-001	-2.7036972E+002
3	0	5.774193919571553E+002	2.4861905E-001	-2.7040155E+002
3	0	5.779193919445243E+002	2.4827926E-001	-2.7038031E+002
3	0	5.784193919318932E+002	2.4795079E-001	-2.7036618E+002
3	0	5.789193919192621E+002	2.4760500E-001	-2.7036618E+002
3	0	5.794193919066311E+002	2.4723905E-001	-2.7037677E+002
3	0	5.799193918940000E+002	2.4688827E-001	-2.7038385E+002
3	0	5.804193918813689E+002	2.4657972E-001	-2.7033789E+002
3	0	5.809193918687379E+002	2.4626189E-001	-2.7036618E+002
3	0	5.814193918561068E+002	2.4595773E-001	-2.7039447E+002
3	0	5.819193918434758E+002	2.4565589E-001	-2.7037326E+002
3	0	5.824193918308447E+002	2.4535096E-001	-2.7038742E+002
3	0	5.829193918182136E+002	2.4503082E-001	-2.7038031E+002
3	0	5.834193918055826E+002	2.4468881E-001	-2.7037677E+002
3	0	5.839193917929515E+002	2.4436703E-001	-2.7037326E+002
3	0	5.844193917803204E+002	2.4407563E-001	-2.7039093E+002
3	0	5.849193917676894E+002	2.4378705E-001	-2.7037677E+002
3	0	5.854193917550583E+002	2.4350211E-001	-2.7038385E+002
3	0	5.859193917424273E+002	2.4321999E-001	-2.7038385E+002
3	0	5.864193917297962E+002	2.4291605E-001	-2.7038742E+002
3	0	5.869193917171651E+002	2.4262302E-001	-2.7039801E+002
3	0	5.874193917045341E+002	2.4232252E-001	-2.7039093E+002
3	0	5.879193916919030E+002	2.4203785E-001	-2.7036618E+002
3	0	5.884193916792719E+002	2.4178697E-001	-2.7039093E+002
3	0	5.889193916666409E+002	2.4152465E-001	-2.7037677E+002
3	0	5.894193916540098E+002	2.4126820E-001	-2.7039447E+002
3	0	5.899193916413788E+002	2.4100526E-001	-2.7037677E+002
3	0	5.904193916287477E+002	2.4075380E-001	-2.7037326E+002
3	0	5.909193916161166E+002	2.4048820E-001	-2.7036972E+002
3	0	5.914193916034856E+002	2.4020341E-001	-2.7037677E+002
3	0	5.919193915908545E+002	2.3992921E-001	-2.7039447E+002
3	0	5.924193915782234E+002	2.3969992E-001	-2.7040860E+002
3	0	5.929193915655924E+002	2.3946290E-001	-2.7039093E+002
3	0	5.934193915529613E+002	2.3922001E-001	-2.7039801E+002
3	0	5.939193915403303E+002	2.3898810E-001	-2.7036972E+002
3	0	5.944193915276992E+002	2.3875430E-001	-2.7038742E+002
3	0	5.949193915150681E+002	2.3850247E-001	-2.7036972E+002
3	0	5.954193915024371E+002	2.3824298E-001	-2.7037677E+002
3	0	5.959193914898060E+002	2.3798956E-001	-2.7039447E+002
3	0	5.964193914771749E+002	2.3777765E-001	-2.7036972E+002
3	0	5.969193914645439E+002	2.3756093E-001	-2.7036618E+002
3	0	5.974193914519128E+002	2.3733854E-001	-2.7036267E+002
3	0	5.979193914392818E+002	2.3712187E-001	-2.7040860E+002
3	0	5.984193914266507E+002	2.3691081E-001	-2.7037677E+002
3	0	5.989193914140196E+002	2.3668322E-001	-2.7038031E+002
3	0	5.994193914013886E+002	2.3643304E-001	-2.7037677E+002
3	0	5.999193913887575E+002	2.3619907E-001	-2.7035913E+002
3	0	6.004193913761264E+002	2.3600516E-001	-2.7036618E+002
3	0	6.009193913634954E+002	2.3580807E-001	-2.7038031E+002
3	0	6.014193913508643E+002	2.3561497E-001	-2.7039447E+002
3	0	6.019193913382333E+002	2.3542584E-001	-2.7038385E+002
3	0	6.024193913256022E+002	2.3523395E-001	-2.7036972E+002
3	0	6.029193913129711E+002	2.3502170E-001	-2.7038031E+002
3	0	6.034193913003401E+002	2.3478976E-001	-2.7038385E+002
3	0	6.039193912877090E+002	2.3457120E-001	-2.7035913E+002
3	0	6.044193912750779E+002	2.3439273E-001	-2.7038385E+002
3	0	6.049193912624469E+002	2.3421222E-001	-2.7038385E+002
3	0	6.054193912498158E+002	2.3403165E-001	-2.7035559E+002
3	0	6.059193912371848E+002	2.3384444E-001	-2.7038742E+002
3	0	6.064193912245537E+002	2.3366383E-001	-2.7036618E+002
3	0	6.069193912119226E+002	2.3346481E-001	-2.7036972E+002
3	0	6.074193911992916E+002	2.3324756E-001	-2.7040155E+002
3	0	6.079193911866605E+002	2.3304962E-001	-2.7041568E+002
3	0	6.084193911740294E+002	2.3288871E-001	-2.7036618E+002
3	0	6.089193911613984E+002	2.3271713E-001	-2.7036618E+002
3	0	6.094193911487673E+002	2.3254813E-001	-2.7037677E+002
3	0	6.099193911361363E+002	2.3238106E-001	-2.7037677E+002
3	0	6.104193911235052E+002	2.3222172E-001	-2.7039447E+002
3	0	6.109193911108741E+002	2.3203844E-001	-2.7040155E+002
3	0	6.114193910982431E+002	2.3183790E-001	-2.7039447E+002
3	0	6.119193910856120E+002	2.3165417E-001	-2.7035559E+002
3	0	6.124193910729809E+002	2.3150657E-001	-2.7040860E+002
3	0	6.129193910603499E+002	2.3135270E-001	-2.7038742E+002
3	0	6.134193910477188E+002	2.3120409E-001	-2.7037677E+002
3	0	6.139193910350878E+002	2.3105265E-001	-2.7038031E+002
3	0	6.144193910224567E+002	2.3090531E-001	-2.7039447E+002
3	0	6.149193910098256E+002	2.3073934E-001	-2.7039447E+002
3	0	6.154193909971946E+002	2.3055473E-001	-2.7038031E+002
3	0	6.159193909845635E+002	2.3038524E-001	-2.7037326E+002
3	0	6.164193909719324E+002	2.3025411E-001	-2.7038031E+002
3	0	6.169193909593014E+002	2.3011173E-001	-2.7039447E+002
3	0	6.174193909466703E+002	2.2997184E-001	-2.7036972E+002
3	0	6.179193909340393E+002	2.2983573E-001	-2.7038742E+002
3	0	6.184193909214082E+002	2.2969007E-001	-2.7038385E+002
3	0	6.189193909087771E+002	2.2953968E-001	-2.7039447E+002
3	0	6.194193908961461E+002	2.2936279E-001	-2.7036972E+002
3	0	6.199193908835150E+002	2.2919771E-001	-2.7037677E+002
3	0	6.204193908708839E+002	2.2907579E-001	-2.7034851E+002
3	0	6.209193908582529E+002	2.2894774E-001	-2.7038031E+002
3	0	6.214193908456218E+002	2.2882037E-001	-2.7037677E+002
3	0	6.219193908329908E+002	2.2869474E-001	-2.7035913E+002
3	0	6.224193908203597E+002	2.2856417E-001	-2.7035913E+002
3	0	6.229193908077286E+002	2.2842111E-001	-2.7038385E+002
3	0	6.234193907950976E+002	2.2825673E-001	-2.7035559E+002
3	0	6.239193907824665E+002	2.2810011E-001	-2.7037326E+002
3	0	6.244193907698354E+002	2.2798437E-001	-2.7038385E+002
3	0	6.249193907572044E+002	2.2785857E-001	-2.7035205E+002
3	0	6.254193907445733E+002	2.2773045E-001	-2.7038742E+002
3	0	6.259193907319423E+002	2.2760738E-001	-2.7038742E+002
3	0	6.264193907193112E+002	2.2748654E-001	-2.7035559E+002
3	0	6.269193907066801E+002	2.2734714E-001	-2.7038031E+002
3	0	6.274193906940491E+002	2.2718443E-001	-2.7037677E+002
3	0	6.279193906814180E+002	2.2703649E-001	-2.7039093E+002
3	0	6.284193906687869E+002	2.2692445E-001	-2.7036972E+002
3	0	6.289193906561559E+002	2.2680946E-001	-2.7036267E+002
3	0	6.294193906435248E+002	2.2669545E-001	-2.7037677E+002
3	0	6.299193906308938E+002	2.2658542E-001	-2.7037326E+002
3	0	6.304193906182627E+002	2.2646978E-001	-2.7038742E+002
3	0	6.309193906056316E+002	2.2634530E-001	-2.7037677E+002
3	0	6.314193905930006E+002	2.2619034E-001	-2.7037677E+002
3	0	6.319193905803695E+002	2.2605297E-001	-2.7039093E+002
3	0	6.324193905677384E+002	2.2595797E-001	-2.7039093E+002
3	0	6.329193905551074E+002	2.2585201E-001	-2.7036618E+002
3	0	6.334193905424763E+002	2.2575152E-001	-2.7036267E+002
3	0	6.339193905298453E+002	2.2564836E-001	-2.7038742E+002
3	0	6.344193905172142E+002	2.2554955E-001	-2.7037326E+002
3	0	6.349193905045831E+002	2.2543436E-001	-2.7036618E+002
3	0	6.354193904919521E+002	2.2529073E-001	-2.7036972E+002
3	0	6.359193904793210E+002	2.2515775E-001	-2.7039801E+002
3	0	6.364193904666899E+002	2.2507110E-001	-2.7038031E+002
3	0	6.369193904540589E+002	2.2497040E-001	-2.7038385E+002
3	0	6.374193904414278E+002	2.2487648E-001	-2.7038031E+002
3	0	6.379193904287968E+002	2.2478695E-001	-2.7038031E+002
3	0	6.384193904161657E+002	2.2469088E-001	-2.7038031E+002
3	0	6.389193904035346E+002	2.2456820E-001	-2.7037677E+002
3	0	6.394193903909036E+002	2.2442992E-001	-2.7039093E+002
3	0	6.399193903782725E+002	2.2430304E-001	-2.7038385E+002
3	0	6.404193903656414E+002	2.2421153E-001	-2.7038031E+002
3	0	6.409193903530104E+002	2.2411309E-001	-2.7038031E+002
3	0	6.414193903403793E+002	2.2401871E-001	-2.7036972E+002
3	0	6.419193903277483E+002	2.2392106E-001	-2.7039447E+002
3	0	6.424193903151172E+002	2.2382641E-001	-2.7035913E+002
3	0	6.429193903024861E+002	2.2370832E-001	-2.7036972E+002
3	0	6.434193902898551E+002	2.2358312E-001	-2.7037326E+002
3	0	6.439193902772240E+002	2.2346371E-001	-2.7037677E+002
3	0	6.444193902645929E+002	2.2338478E-001	-2.7037677E+002
3	0	6.449193902519619E+002	2.2329152E-001	-2.7037677E+002
3	0	6.454193902393308E+002	2.2320101E-001	-2.7039447E+002
3	0	6.459193902266998E+002	2.2311388E-001	-2.7037677E+002
3	0	6.464193902140687E+002	2.2302662E-001	-2.7040155E+002
3	0	6.469193902014376E+002	2.2291183E-001	-2.7036618E+002
3	0	6.474193901888066E+002	2.2277288E-001	-2.7038742E+002
3	0	6.479193901761755E+002	2.2265443E-001	-2.7038385E+002
3	0	6.484193901635444E+002	2.2257634E-001	-2.7039801E+002
3	0	6.489193901509134E+002	2.2249086E-001	-2.7039447E+002
3	0	6.494193901382823E+002	2.2240968E-001	-2.7039801E+002
3	0	6.499193901256513E+002	2.2232401E-001	-2.7039801E+002
3	0	6.504193901130202E+002	2.2224532E-001	-2.7040155E+002
3	0	6.509193901003891E+002	2.2214611E-001	-2.7034143E+002
3	0	6.514193900877581E+002	2.2202286E-001	-2.7038742E+002
3	0	6.519193900751270E+002	2.2191514E-001	-2.7036972E+002
3	0	6.524193900624960E+002	2.2184630E-001	-2.7037326E+002
3	0	6.529193900498649E+002	2.2176881E-001	-2.7036618E+002
3	0	6.534193900372338E+002	2.2169188E-001	-2.7037677E+002
3	0	6.539193900246028E+002	2.2161137E-001	-2.7039447E+002
3	0	6.544193900119717E+002	2.2153036E-001	-2.7037677E+002
3	0	6.549193899993406E+002	2.2143634E-001	-2.7037326E+002
3	0	6.554193899867096E+002	2.2132242E-001	-2.7038031E+002
3	0	6.559193899740785E+002	2.2121958E-001	-2.7037326E+002
3	0	6.564193899614475E+002	2.2115682E-001	-2.7037326E+002
3	0	6.569193899488164E+002	2.2108832E-001	-2.7037326E+002
3	0	6.574193899361853E+002	2.2102147E-001	-2.7034851E+002
3	0	6.579193899235543E+002	2.2094862E-001	-2.7038385E+002
3	0	6.584193899109232E+002	2.2088216E-001	-2.7037677E+002
3	0	6.589193898982921E+002	2.2078660E-001	-2.7038031E+002
3	0	6.594193898856611E+002	2.2068138E-001	-2.7037326E+002
3	0	6.599193898730300E+002	2.2058141E-001	-2.7036972E+002
3	0	6.599427898724389E+002	2.2053936E-001	-2.7039093E+002