EC-Lab ASCII FILE
Nb header lines : 55                          

Open Circuit Voltage

Run on channel : 1 (SN 81504)
User : 
CE vs. WE compliance from -10 V to 10 V
Electrode connection : standard
Potential control : Ewe
Ewe ctrl range : min = -2.50 V, max = 2.50 V
Safety Limits :
	Do not start on E overload
Acquisition started on : 05/07/2026 21:45:35.104
Loaded Setting File :  C:\PEM-WE_measurements\2026\372_IV_IV IrOx, 5 min Pt, 30 min C, etched cathode\new station\Loopeis new\1,46 V different time gaps open cell\Loopeis 1,46V_120s_4_PEIS from 650Hz to 100Hz.mps
Saved on :
	File : L_24_Loopeis 1,46V_120s_4_PEIS from 650Hz to 100Hz_06_OCV_C01.mpr
	Directory : C:\PEM-WE_measurements\2026\372_IV_IV IrOx, 5 min Pt, 30 min C, etched cathode\new station\Loopeis new\1,46 V different time gaps open cell\
	Host : 192.168.0.2
Device : SP-150e (SN .005491)
Address : 192.168.0.91
EC-LAB for windows v11.71 (software)
Internet server v28.00 (firmware)
Command interpretor v14.01 (firmware)
Electrode material : 
Initial state : 
Electrolyte : 
Comments : 
Current amplifier : SP-150eB-20A
Electrode surface area : 0.001 cm²
Characteristic mass : 0.001 g
Equivalent Weight : 0.000 g/eq.
Density : 0.000 g/cm3
Volume (V) : 0.001 cm³
Record Analogic IN 1
Text export
   Mode : Standard
   Time format : Elapsed
Cycle Definition : Charge/Discharge alternance
External device configuration :
   device type : Temperature Probe
   device name : Other
   Analog IN 1 : 
      unit : T/Â°C
      max : 100.000 at 2.000 V
      min : 0.000 at 1.460 V
tR (h:m:s)          0:02:0.0000         
dER/dt (mV/h)       1.0                 
record              <Ewe>               
dER (mV)            10.00               
dtR (s)             0.5000              
E range min (V)     -2.500              
E range max (V)     2.500               

mode	error	time/s	<Ewe/V>	Analog IN 1/V	
3	0	3.754705937867402E+002	1.2279530E+000	-2.7036618E+002
3	0	3.759705937741091E+002	1.1862476E+000	-2.7040155E+002
3	0	3.764705937614781E+002	8.8528609E-001	-2.7038031E+002
3	0	3.769705937488470E+002	4.4840631E-001	-2.7038742E+002
3	0	3.774705937362160E+002	3.4724095E-001	-2.7038742E+002
3	0	3.779705937235849E+002	3.3336645E-001	-2.7036267E+002
3	0	3.784705937109538E+002	3.2537571E-001	-2.7037326E+002
3	0	3.789705936983228E+002	3.1902030E-001	-2.7038742E+002
3	0	3.794705936856917E+002	3.1416100E-001	-2.7036972E+002
3	0	3.799705936730606E+002	3.1041899E-001	-2.7035559E+002
3	0	3.804705936604296E+002	3.0749309E-001	-2.7037677E+002
3	0	3.809705936477985E+002	3.0514032E-001	-2.7037326E+002
3	0	3.814705936351675E+002	3.0319852E-001	-2.7037326E+002
3	0	3.819705936225364E+002	3.0154786E-001	-2.7037326E+002
3	0	3.824705936099053E+002	3.0011529E-001	-2.7038385E+002
3	0	3.829705935972743E+002	2.9885483E-001	-2.7036618E+002
3	0	3.834705935846432E+002	2.9770261E-001	-2.7038031E+002
3	0	3.839705935720121E+002	2.9663232E-001	-2.7038742E+002
3	0	3.844705935593811E+002	2.9567516E-001	-2.7037677E+002
3	0	3.849705935467500E+002	2.9481015E-001	-2.7034497E+002
3	0	3.854705935341190E+002	2.9400480E-001	-2.7038742E+002
3	0	3.859705935214879E+002	2.9324123E-001	-2.7037677E+002
3	0	3.864705935088568E+002	2.9250726E-001	-2.7039447E+002
3	0	3.869705934962258E+002	2.9180354E-001	-2.7038385E+002
3	0	3.874705934835947E+002	2.9109642E-001	-2.7036972E+002
3	0	3.879705934709636E+002	2.9039660E-001	-2.7038385E+002
3	0	3.884705934583326E+002	2.8974083E-001	-2.7039093E+002
3	0	3.889705934457015E+002	2.8913078E-001	-2.7035913E+002
3	0	3.894705934330705E+002	2.8853050E-001	-2.7039801E+002
3	0	3.899705934204394E+002	2.8794333E-001	-2.7038385E+002
3	0	3.904705934078083E+002	2.8736141E-001	-2.7038031E+002
3	0	3.909705933951773E+002	2.8678545E-001	-2.7037677E+002
3	0	3.914705933825462E+002	2.8619596E-001	-2.7036618E+002
3	0	3.919705933699152E+002	2.8560233E-001	-2.7035913E+002
3	0	3.924705933572841E+002	2.8504157E-001	-2.7038385E+002
3	0	3.929705933446530E+002	2.8451863E-001	-2.7038742E+002
3	0	3.934705933320220E+002	2.8399140E-001	-2.7038385E+002
3	0	3.939705933193909E+002	2.8347090E-001	-2.7037677E+002
3	0	3.944705933067598E+002	2.8295347E-001	-2.7038031E+002
3	0	3.949705932941288E+002	2.8243771E-001	-2.7039093E+002
3	0	3.954705932814977E+002	2.8190729E-001	-2.7039093E+002
3	0	3.959705932688667E+002	2.8136781E-001	-2.7039093E+002
3	0	3.964705932562356E+002	2.8085518E-001	-2.7037326E+002
3	0	3.969705932436045E+002	2.8037101E-001	-2.7037677E+002
3	0	3.974705932309735E+002	2.7989355E-001	-2.7039447E+002
3	0	3.979705932183424E+002	2.7941498E-001	-2.7037677E+002
3	0	3.984705932057113E+002	2.7894622E-001	-2.7038742E+002
3	0	3.989705931930803E+002	2.7847582E-001	-2.7040155E+002
3	0	3.994705931804492E+002	2.7798960E-001	-2.7039801E+002
3	0	3.999705931678182E+002	2.7748376E-001	-2.7037326E+002
3	0	4.004705931551871E+002	2.7701542E-001	-2.7037677E+002
3	0	4.009705931425560E+002	2.7656636E-001	-2.7036267E+002
3	0	4.014705931299250E+002	2.7611977E-001	-2.7038742E+002
3	0	4.019705931172939E+002	2.7568001E-001	-2.7036972E+002
3	0	4.024705931046628E+002	2.7523881E-001	-2.7039801E+002
3	0	4.029705930920318E+002	2.7480400E-001	-2.7037326E+002
3	0	4.034705930794007E+002	2.7435628E-001	-2.7039801E+002
3	0	4.039705930667697E+002	2.7389321E-001	-2.7036972E+002
3	0	4.044705930541386E+002	2.7346298E-001	-2.7037677E+002
3	0	4.049705930415075E+002	2.7305579E-001	-2.7038742E+002
3	0	4.054705930288765E+002	2.7264920E-001	-2.7037326E+002
3	0	4.059705930162454E+002	2.7225262E-001	-2.7037326E+002
3	0	4.064705930036143E+002	2.7185255E-001	-2.7039093E+002
3	0	4.069705929909833E+002	2.7144387E-001	-2.7037677E+002
3	0	4.074705929783522E+002	2.7102098E-001	-2.7038742E+002
3	0	4.079705929657212E+002	2.7059442E-001	-2.7040155E+002
3	0	4.084705929530901E+002	2.7019921E-001	-2.7037677E+002
3	0	4.089705929404590E+002	2.6982734E-001	-2.7038385E+002
3	0	4.094705929278280E+002	2.6945826E-001	-2.7035559E+002
3	0	4.099705929151969E+002	2.6908892E-001	-2.7038385E+002
3	0	4.104705929025658E+002	2.6871851E-001	-2.7038742E+002
3	0	4.109705928899348E+002	2.6834694E-001	-2.7036267E+002
3	0	4.114705928773037E+002	2.6796034E-001	-2.7038385E+002
3	0	4.119705928646727E+002	2.6755908E-001	-2.7037326E+002
3	0	4.124705928520416E+002	2.6719147E-001	-2.7037677E+002
3	0	4.129705928394105E+002	2.6685202E-001	-2.7039447E+002
3	0	4.134705928267795E+002	2.6651055E-001	-2.7039447E+002
3	0	4.139705928141484E+002	2.6616588E-001	-2.7038385E+002
3	0	4.144705928015173E+002	2.6583141E-001	-2.7035559E+002
3	0	4.149705927888863E+002	2.6549065E-001	-2.7038385E+002
3	0	4.154705927762552E+002	2.6512742E-001	-2.7039093E+002
3	0	4.159705927636242E+002	2.6476118E-001	-2.7039801E+002
3	0	4.164705927509931E+002	2.6443037E-001	-2.7037677E+002
3	0	4.169705927383620E+002	2.6412132E-001	-2.7039801E+002
3	0	4.174705927257310E+002	2.6381126E-001	-2.7036618E+002
3	0	4.179705927130999E+002	2.6349968E-001	-2.7040506E+002
3	0	4.184705927004688E+002	2.6319152E-001	-2.7036972E+002
3	0	4.189705926878378E+002	2.6287803E-001	-2.7040506E+002
3	0	4.194705926752067E+002	2.6254645E-001	-2.7037326E+002
3	0	4.199705926625757E+002	2.6220003E-001	-2.7035913E+002
3	0	4.204705926499446E+002	2.6189435E-001	-2.7038385E+002
3	0	4.209705926373135E+002	2.6160759E-001	-2.7036972E+002
3	0	4.214705926246825E+002	2.6132160E-001	-2.7038385E+002
3	0	4.219705926120514E+002	2.6103070E-001	-2.7039447E+002
3	0	4.224705925994203E+002	2.6074797E-001	-2.7035559E+002
3	0	4.229705925867893E+002	2.6046166E-001	-2.7038385E+002
3	0	4.234705925741582E+002	2.6015192E-001	-2.7038742E+002
3	0	4.239705925615272E+002	2.5983730E-001	-2.7040155E+002
3	0	4.244705925488961E+002	2.5955561E-001	-2.7036972E+002
3	0	4.249705925362650E+002	2.5929376E-001	-2.7039801E+002
3	0	4.254705925236340E+002	2.5903323E-001	-2.7039447E+002
3	0	4.259705925110029E+002	2.5876781E-001	-2.7038385E+002
3	0	4.264705924983718E+002	2.5850537E-001	-2.7036972E+002
3	0	4.269705924857408E+002	2.5823712E-001	-2.7036972E+002
3	0	4.274705924731097E+002	2.5795802E-001	-2.7040155E+002
3	0	4.279705924604787E+002	2.5765982E-001	-2.7039801E+002
3	0	4.284705924478476E+002	2.5739855E-001	-2.7035205E+002
3	0	4.289705924352165E+002	2.5716341E-001	-2.7036267E+002
3	0	4.294705924225855E+002	2.5692350E-001	-2.7036972E+002
3	0	4.299705924099544E+002	2.5668836E-001	-2.7036267E+002
3	0	4.304705923973233E+002	2.5644886E-001	-2.7037326E+002
3	0	4.309705923846923E+002	2.5621167E-001	-2.7036267E+002
3	0	4.314705923720612E+002	2.5595340E-001	-2.7036267E+002
3	0	4.319705923594302E+002	2.5568020E-001	-2.7039447E+002
3	0	4.324705923467991E+002	2.5544545E-001	-2.7035559E+002
3	0	4.329705923341680E+002	2.5523299E-001	-2.7036618E+002
3	0	4.334705923215370E+002	2.5501308E-001	-2.7038742E+002
3	0	4.339705923089059E+002	2.5480017E-001	-2.7038385E+002
3	0	4.344705922962748E+002	2.5458583E-001	-2.7041568E+002
3	0	4.349705922836438E+002	2.5437301E-001	-2.7035913E+002
3	0	4.354705922710127E+002	2.5413740E-001	-2.7036618E+002
3	0	4.359705922583817E+002	2.5388551E-001	-2.7036972E+002
3	0	4.364705922457506E+002	2.5367010E-001	-2.7036267E+002
3	0	4.369705922331195E+002	2.5347611E-001	-2.7036267E+002
3	0	4.374705922204885E+002	2.5327587E-001	-2.7038742E+002
3	0	4.379705922078574E+002	2.5307995E-001	-2.7036618E+002
3	0	4.384705921952263E+002	2.5288415E-001	-2.7039447E+002
3	0	4.389705921825953E+002	2.5267231E-001	-2.7037677E+002
3	0	4.394705921699642E+002	2.5244886E-001	-2.7038385E+002
3	0	4.399705921573332E+002	2.5221768E-001	-2.7038031E+002
3	0	4.404705921447021E+002	2.5201470E-001	-2.7038031E+002
3	0	4.409705921320710E+002	2.5183460E-001	-2.7035913E+002
3	0	4.414705921194400E+002	2.5165358E-001	-2.7038031E+002
3	0	4.419705921068089E+002	2.5146410E-001	-2.7037677E+002
3	0	4.424705920941778E+002	2.5127241E-001	-2.7037677E+002
3	0	4.429705920815468E+002	2.5107783E-001	-2.7038031E+002
3	0	4.434705920689157E+002	2.5086126E-001	-2.7036972E+002
3	0	4.439705920562847E+002	2.5063655E-001	-2.7038031E+002
3	0	4.444705920436536E+002	2.5044909E-001	-2.7035913E+002
3	0	4.449705920310225E+002	2.5027579E-001	-2.7035913E+002
3	0	4.454705920183915E+002	2.5010243E-001	-2.7039093E+002
3	0	4.459705920057604E+002	2.4992713E-001	-2.7041214E+002
3	0	4.464705919931293E+002	2.4975887E-001	-2.7036267E+002
3	0	4.469705919804983E+002	2.4957904E-001	-2.7035913E+002
3	0	4.474705919678672E+002	2.4938446E-001	-2.7035913E+002
3	0	4.479705919552362E+002	2.4918480E-001	-2.7039093E+002
3	0	4.484705919426051E+002	2.4901190E-001	-2.7037326E+002
3	0	4.489705919299740E+002	2.4885751E-001	-2.7037677E+002
3	0	4.494705919173430E+002	2.4870208E-001	-2.7036618E+002
3	0	4.499705919047119E+002	2.4854665E-001	-2.7039801E+002
3	0	4.504705918920808E+002	2.4838810E-001	-2.7040155E+002
3	0	4.509705918794498E+002	2.4822499E-001	-2.7035559E+002
3	0	4.514705918668187E+002	2.4804464E-001	-2.7037677E+002
3	0	4.519705918541877E+002	2.4785502E-001	-2.7035559E+002
3	0	4.524705918415566E+002	2.4769735E-001	-2.7038031E+002
3	0	4.529705918289255E+002	2.4755961E-001	-2.7038031E+002
3	0	4.534705918162945E+002	2.4742071E-001	-2.7039093E+002
3	0	4.539705918036634E+002	2.4727750E-001	-2.7038031E+002
3	0	4.544705917910323E+002	2.4713251E-001	-2.7036618E+002
3	0	4.549705917784013E+002	2.4697885E-001	-2.7039447E+002
3	0	4.554705917657702E+002	2.4681005E-001	-2.7038385E+002
3	0	4.559705917531392E+002	2.4662828E-001	-2.7039447E+002
3	0	4.564705917405081E+002	2.4648426E-001	-2.7038031E+002
3	0	4.569705917278770E+002	2.4635223E-001	-2.7036267E+002
3	0	4.574705917152460E+002	2.4622501E-001	-2.7036972E+002
3	0	4.579705917026149E+002	2.4609362E-001	-2.7039447E+002
3	0	4.584705916899838E+002	2.4596544E-001	-2.7036972E+002
3	0	4.589705916773528E+002	2.4582607E-001	-2.7038385E+002
3	0	4.594705916647217E+002	2.4567145E-001	-2.7036972E+002
3	0	4.599705916520907E+002	2.4549653E-001	-2.7038385E+002
3	0	4.604705916394596E+002	2.4536195E-001	-2.7038385E+002
3	0	4.609705916268285E+002	2.4523768E-001	-2.7035559E+002
3	0	4.614705916141975E+002	2.4511828E-001	-2.7036267E+002
3	0	4.619705916015664E+002	2.4499576E-001	-2.7039801E+002
3	0	4.624705915889353E+002	2.4487159E-001	-2.7038385E+002
3	0	4.629705915763043E+002	2.4473736E-001	-2.7038742E+002
3	0	4.634705915636732E+002	2.4458268E-001	-2.7035559E+002
3	0	4.639705915510422E+002	2.4441808E-001	-2.7036267E+002
3	0	4.644705915384111E+002	2.4428783E-001	-2.7036972E+002
3	0	4.649705915257800E+002	2.4417758E-001	-2.7039093E+002
3	0	4.654705915131490E+002	2.4406160E-001	-2.7037677E+002
3	0	4.659705915005179E+002	2.4394518E-001	-2.7039093E+002
3	0	4.664705914878869E+002	2.4382293E-001	-2.7036267E+002
3	0	4.669705914752558E+002	2.4369515E-001	-2.7038742E+002
3	0	4.674705914626247E+002	2.4355745E-001	-2.7036972E+002
3	0	4.679705914499937E+002	2.4339759E-001	-2.7039447E+002
3	0	4.684705914373626E+002	2.4327919E-001	-2.7038742E+002
3	0	4.689705914247315E+002	2.4317583E-001	-2.7039093E+002
3	0	4.694705914121005E+002	2.4307334E-001	-2.7037326E+002
3	0	4.699705913994694E+002	2.4296591E-001	-2.7036618E+002
3	0	4.704705913868384E+002	2.4286334E-001	-2.7038385E+002
3	0	4.709705913742073E+002	2.4274831E-001	-2.7035559E+002
3	0	4.714705913615762E+002	2.4261153E-001	-2.7034851E+002
3	0	4.719705913489452E+002	2.4246131E-001	-2.7040155E+002
3	0	4.724705913363141E+002	2.4234708E-001	-2.7036618E+002
3	0	4.729705913236830E+002	2.4225231E-001	-2.7039447E+002
3	0	4.734705913110520E+002	2.4215187E-001	-2.7035559E+002
3	0	4.739705912984209E+002	2.4205101E-001	-2.7036618E+002
3	0	4.744705912857899E+002	2.4195406E-001	-2.7037677E+002
3	0	4.749705912731588E+002	2.4184717E-001	-2.7038742E+002
3	0	4.754705912605277E+002	2.4171866E-001	-2.7035559E+002
3	0	4.759705912478967E+002	2.4158527E-001	-2.7041568E+002
3	0	4.764705912352656E+002	2.4147746E-001	-2.7038385E+002
3	0	4.769705912226345E+002	2.4138866E-001	-2.7037326E+002
3	0	4.774705912100035E+002	2.4130255E-001	-2.7037677E+002
3	0	4.779705911973724E+002	2.4120824E-001	-2.7037677E+002
3	0	4.784705911847414E+002	2.4111915E-001	-2.7036972E+002
3	0	4.789705911721103E+002	2.4101658E-001	-2.7038031E+002
3	0	4.794705911594792E+002	2.4089733E-001	-2.7038031E+002
3	0	4.799705911468482E+002	2.4076276E-001	-2.7037326E+002
3	0	4.804705911342171E+002	2.4066004E-001	-2.7039093E+002
3	0	4.809705911215860E+002	2.4057819E-001	-2.7039447E+002
3	0	4.814705911089550E+002	2.4049562E-001	-2.7038742E+002
3	0	4.819705910963239E+002	2.4040487E-001	-2.7038742E+002
3	0	4.824705910836929E+002	2.4031873E-001	-2.7035913E+002
3	0	4.829705910710618E+002	2.4022709E-001	-2.7039801E+002
3	0	4.834705910584307E+002	2.4011570E-001	-2.7037677E+002
3	0	4.839705910457997E+002	2.3998497E-001	-2.7038385E+002
3	0	4.844705910331686E+002	2.3988475E-001	-2.7039447E+002
3	0	4.849705910205375E+002	2.3980297E-001	-2.7037326E+002
3	0	4.854705910079065E+002	2.3972015E-001	-2.7036972E+002
3	0	4.859705909952754E+002	2.3963471E-001	-2.7036618E+002
3	0	4.864705909826444E+002	2.3954511E-001	-2.7036618E+002
3	0	4.869705909700133E+002	2.3944996E-001	-2.7039447E+002
3	0	4.874705909573822E+002	2.3933294E-001	-2.7039801E+002
3	0	4.879705909447512E+002	2.3920529E-001	-2.7037677E+002
3	0	4.884705909321201E+002	2.3911355E-001	-2.7036618E+002
3	0	4.889705909194890E+002	2.3904084E-001	-2.7036972E+002
3	0	4.894705909068580E+002	2.3896952E-001	-2.7035913E+002
3	0	4.899705908942269E+002	2.3889123E-001	-2.7037677E+002
3	0	4.904705908815959E+002	2.3881526E-001	-2.7038742E+002
3	0	4.909705908689648E+002	2.3873085E-001	-2.7037326E+002
3	0	4.914705908563337E+002	2.3862228E-001	-2.7039093E+002
3	0	4.919705908437027E+002	2.3849903E-001	-2.7037326E+002
3	0	4.924705908310716E+002	2.3841192E-001	-2.7036618E+002
3	0	4.929705908184405E+002	2.3834454E-001	-2.7037326E+002
3	0	4.934705908058095E+002	2.3827772E-001	-2.7037677E+002
3	0	4.939705907931784E+002	2.3820256E-001	-2.7036267E+002
3	0	4.944705907805474E+002	2.3812719E-001	-2.7038742E+002
3	0	4.949705907679163E+002	2.3805189E-001	-2.7039801E+002
3	0	4.949709907679062E+002	2.3796447E-001	-2.7040506E+002