EC-Lab ASCII FILE
Nb header lines : 55                          

Open Circuit Voltage

Run on channel : 1 (SN 81504)
User : 
CE vs. WE compliance from -10 V to 10 V
Electrode connection : standard
Potential control : Ewe
Ewe ctrl range : min = -2.50 V, max = 2.50 V
Safety Limits :
	Do not start on E overload
Acquisition started on : 05/07/2026 21:45:35.104
Loaded Setting File :  C:\PEM-WE_measurements\2026\372_IV_IV IrOx, 5 min Pt, 30 min C, etched cathode\new station\Loopeis new\1,46 V different time gaps open cell\Loopeis 1,46V_120s_4_PEIS from 650Hz to 100Hz.mps
Saved on :
	File : L_24_Loopeis 1,46V_120s_4_PEIS from 650Hz to 100Hz_20_OCV_C01.mpr
	Directory : C:\PEM-WE_measurements\2026\372_IV_IV IrOx, 5 min Pt, 30 min C, etched cathode\new station\Loopeis new\1,46 V different time gaps open cell\
	Host : 192.168.0.2
Device : SP-150e (SN .005491)
Address : 192.168.0.91
EC-LAB for windows v11.71 (software)
Internet server v28.00 (firmware)
Command interpretor v14.01 (firmware)
Electrode material : 
Initial state : 
Electrolyte : 
Comments : 
Current amplifier : SP-150eB-20A
Electrode surface area : 0.001 cm²
Characteristic mass : 0.001 g
Equivalent Weight : 0.000 g/eq.
Density : 0.000 g/cm3
Volume (V) : 0.001 cm³
Record Analogic IN 1
Text export
   Mode : Standard
   Time format : Elapsed
Cycle Definition : Charge/Discharge alternance
External device configuration :
   device type : Temperature Probe
   device name : Other
   Analog IN 1 : 
      unit : T/Â°C
      max : 100.000 at 2.000 V
      min : 0.000 at 1.460 V
tR (h:m:s)          0:02:0.0000         
dER/dt (mV/h)       1.0                 
record              <Ewe>               
dER (mV)            10.00               
dtR (s)             0.5000              
E range min (V)     -2.500              
E range max (V)     2.500               

mode	error	time/s	<Ewe/V>	Analog IN 1/V	
3	0	1.810795791021665E+003	1.2454720E+000	-2.7036618E+002
3	0	1.811295791009034E+003	1.2301843E+000	-2.7037677E+002
3	0	1.811795790996403E+003	1.0970529E+000	-2.7039093E+002
3	0	1.812295790983771E+003	6.2162167E-001	-2.7040155E+002
3	0	1.812795790971140E+003	3.8529873E-001	-2.7036618E+002
3	0	1.813295790958509E+003	3.5199621E-001	-2.7038385E+002
3	0	1.813795790945878E+003	3.4204853E-001	-2.7039447E+002
3	0	1.814295790933247E+003	3.3453065E-001	-2.7038031E+002
3	0	1.814795790920616E+003	3.2891399E-001	-2.7037677E+002
3	0	1.815295790907985E+003	3.2472396E-001	-2.7034497E+002
3	0	1.815795790895354E+003	3.2154334E-001	-2.7037677E+002
3	0	1.816295790882723E+003	3.1906977E-001	-2.7037326E+002
3	0	1.816795790870092E+003	3.1705332E-001	-2.7039093E+002
3	0	1.817295790857461E+003	3.1535921E-001	-2.7037677E+002
3	0	1.817795790844830E+003	3.1391320E-001	-2.7038742E+002
3	0	1.818295790832199E+003	3.1264278E-001	-2.7039093E+002
3	0	1.818795790819568E+003	3.1148624E-001	-2.7038385E+002
3	0	1.819295790806937E+003	3.1043640E-001	-2.7038742E+002
3	0	1.819795790794306E+003	3.0949989E-001	-2.7036618E+002
3	0	1.820295790781674E+003	3.0865282E-001	-2.7037677E+002
3	0	1.820795790769043E+003	3.0785221E-001	-2.7038385E+002
3	0	1.821295790756412E+003	3.0709186E-001	-2.7038742E+002
3	0	1.821795790743781E+003	3.0636454E-001	-2.7037677E+002
3	0	1.822295790731150E+003	3.0565146E-001	-2.7037326E+002
3	0	1.822795790718519E+003	3.0494490E-001	-2.7039447E+002
3	0	1.823295790705888E+003	3.0424899E-001	-2.7036618E+002
3	0	1.823795790693257E+003	3.0360451E-001	-2.7040860E+002
3	0	1.824295790680626E+003	3.0298990E-001	-2.7038031E+002
3	0	1.824795790667995E+003	3.0238461E-001	-2.7039801E+002
3	0	1.825295790655364E+003	3.0179286E-001	-2.7036618E+002
3	0	1.825795790642733E+003	3.0120710E-001	-2.7038385E+002
3	0	1.826295790630102E+003	3.0062220E-001	-2.7038742E+002
3	0	1.826795790617471E+003	3.0002332E-001	-2.7039447E+002
3	0	1.827295790604840E+003	2.9941466E-001	-2.7038742E+002
3	0	1.827795790592209E+003	2.9885671E-001	-2.7036972E+002
3	0	1.828295790579577E+003	2.9832265E-001	-2.7037677E+002
3	0	1.828795790566946E+003	2.9778078E-001	-2.7039093E+002
3	0	1.829295790554315E+003	2.9724258E-001	-2.7039801E+002
3	0	1.829795790541684E+003	2.9671469E-001	-2.7039093E+002
3	0	1.830295790529053E+003	2.9617611E-001	-2.7037677E+002
3	0	1.830795790516422E+003	2.9562420E-001	-2.7037677E+002
3	0	1.831295790503791E+003	2.9506400E-001	-2.7038385E+002
3	0	1.831795790491160E+003	2.9454795E-001	-2.7038742E+002
3	0	1.832295790478529E+003	2.9404753E-001	-2.7036618E+002
3	0	1.832795790465898E+003	2.9355091E-001	-2.7038031E+002
3	0	1.833295790453267E+003	2.9305890E-001	-2.7034497E+002
3	0	1.833795790440636E+003	2.9256344E-001	-2.7036267E+002
3	0	1.834295790428005E+003	2.9206222E-001	-2.7037326E+002
3	0	1.834795790415374E+003	2.9154155E-001	-2.7037326E+002
3	0	1.835295790402743E+003	2.9101956E-001	-2.7038031E+002
3	0	1.835795790390112E+003	2.9054174E-001	-2.7037677E+002
3	0	1.836295790377480E+003	2.9007724E-001	-2.7038031E+002
3	0	1.836795790364849E+003	2.8962001E-001	-2.7037326E+002
3	0	1.837295790352218E+003	2.8915977E-001	-2.7036972E+002
3	0	1.837795790339587E+003	2.8870878E-001	-2.7035913E+002
3	0	1.838295790326956E+003	2.8825292E-001	-2.7036972E+002
3	0	1.838795790314325E+003	2.8777179E-001	-2.7039447E+002
3	0	1.839295790301694E+003	2.8728819E-001	-2.7039093E+002
3	0	1.839795790289063E+003	2.8685287E-001	-2.7036618E+002
3	0	1.840295790276432E+003	2.8642684E-001	-2.7034851E+002
3	0	1.840795790263801E+003	2.8599247E-001	-2.7039801E+002
3	0	1.841295790251170E+003	2.8556606E-001	-2.7038031E+002
3	0	1.841795790238539E+003	2.8514874E-001	-2.7036972E+002
3	0	1.842295790225908E+003	2.8471896E-001	-2.7036972E+002
3	0	1.842795790213277E+003	2.8427875E-001	-2.7038385E+002
3	0	1.843295790200646E+003	2.8382316E-001	-2.7036267E+002
3	0	1.843795790188015E+003	2.8341404E-001	-2.7037677E+002
3	0	1.844295790175383E+003	2.8302267E-001	-2.7037326E+002
3	0	1.844795790162752E+003	2.8262872E-001	-2.7036972E+002
3	0	1.845295790150121E+003	2.8223750E-001	-2.7039801E+002
3	0	1.845795790137490E+003	2.8185195E-001	-2.7037677E+002
3	0	1.846295790124859E+003	2.8144938E-001	-2.7039801E+002
3	0	1.846795790112228E+003	2.8103393E-001	-2.7036267E+002
3	0	1.847295790099597E+003	2.8061953E-001	-2.7038742E+002
3	0	1.847795790086966E+003	2.8024614E-001	-2.7038031E+002
3	0	1.848295790074335E+003	2.7988949E-001	-2.7037326E+002
3	0	1.848795790061704E+003	2.7952713E-001	-2.7039093E+002
3	0	1.849295790049073E+003	2.7916920E-001	-2.7038742E+002
3	0	1.849795790036442E+003	2.7881488E-001	-2.7039801E+002
3	0	1.850295790023811E+003	2.7845070E-001	-2.7039801E+002
3	0	1.850795790011180E+003	2.7806768E-001	-2.7037326E+002
3	0	1.851295789998549E+003	2.7767891E-001	-2.7038385E+002
3	0	1.851795789985918E+003	2.7733809E-001	-2.7035913E+002
3	0	1.852295789973286E+003	2.7700785E-001	-2.7037326E+002
3	0	1.852795789960655E+003	2.7667555E-001	-2.7036618E+002
3	0	1.853295789948024E+003	2.7633923E-001	-2.7040155E+002
3	0	1.853795789935393E+003	2.7600768E-001	-2.7037677E+002
3	0	1.854295789922762E+003	2.7566949E-001	-2.7037677E+002
3	0	1.854795789910131E+003	2.7531332E-001	-2.7036972E+002
3	0	1.855295789897500E+003	2.7495658E-001	-2.7035913E+002
3	0	1.855795789884869E+003	2.7464738E-001	-2.7038031E+002
3	0	1.856295789872238E+003	2.7435136E-001	-2.7036618E+002
3	0	1.856795789859607E+003	2.7405110E-001	-2.7036267E+002
3	0	1.857295789846976E+003	2.7375370E-001	-2.7036618E+002
3	0	1.857795789834345E+003	2.7345705E-001	-2.7036267E+002
3	0	1.858295789821714E+003	2.7315643E-001	-2.7040155E+002
3	0	1.858795789809083E+003	2.7282816E-001	-2.7036972E+002
3	0	1.859295789796452E+003	2.7249822E-001	-2.7037677E+002
3	0	1.859795789783821E+003	2.7222151E-001	-2.7036618E+002
3	0	1.860295789771189E+003	2.7195126E-001	-2.7036267E+002
3	0	1.860795789758558E+003	2.7167702E-001	-2.7036618E+002
3	0	1.861295789745927E+003	2.7140036E-001	-2.7037326E+002
3	0	1.861795789733296E+003	2.7112442E-001	-2.7038031E+002
3	0	1.862295789720665E+003	2.7084649E-001	-2.7036972E+002
3	0	1.862795789708034E+003	2.7055266E-001	-2.7039447E+002
3	0	1.863295789695403E+003	2.7024746E-001	-2.7039093E+002
3	0	1.863795789682772E+003	2.6998946E-001	-2.7037326E+002
3	0	1.864295789670141E+003	2.6974368E-001	-2.7037677E+002
3	0	1.864795789657510E+003	2.6949790E-001	-2.7038031E+002
3	0	1.865295789644879E+003	2.6925001E-001	-2.7036972E+002
3	0	1.865795789632248E+003	2.6900253E-001	-2.7038031E+002
3	0	1.866295789619617E+003	2.6873374E-001	-2.7039447E+002
3	0	1.866795789606986E+003	2.6846060E-001	-2.7038031E+002
3	0	1.867295789594355E+003	2.6818231E-001	-2.7037677E+002
3	0	1.867795789581724E+003	2.6795381E-001	-2.7038385E+002
3	0	1.868295789569092E+003	2.6773039E-001	-2.7038742E+002
3	0	1.868795789556461E+003	2.6749977E-001	-2.7040506E+002
3	0	1.869295789543830E+003	2.6727369E-001	-2.7040506E+002
3	0	1.869795789531199E+003	2.6704997E-001	-2.7040506E+002
3	0	1.870295789518568E+003	2.6680699E-001	-2.7039093E+002
3	0	1.870795789505937E+003	2.6654974E-001	-2.7038031E+002
3	0	1.871295789493306E+003	2.6628768E-001	-2.7040155E+002
3	0	1.871795789480675E+003	2.6606423E-001	-2.7037326E+002
3	0	1.872295789468044E+003	2.6585996E-001	-2.7035205E+002
3	0	1.872795789455413E+003	2.6565167E-001	-2.7038385E+002
3	0	1.873295789442782E+003	2.6543826E-001	-2.7036972E+002
3	0	1.873795789430151E+003	2.6522323E-001	-2.7038742E+002
3	0	1.874295789417520E+003	2.6500580E-001	-2.7038385E+002
3	0	1.874795789404889E+003	2.6476249E-001	-2.7037677E+002
3	0	1.875295789392258E+003	2.6452810E-001	-2.7036618E+002
3	0	1.875795789379627E+003	2.6433045E-001	-2.7037677E+002
3	0	1.876295789366995E+003	2.6414675E-001	-2.7036267E+002
3	0	1.876795789354364E+003	2.6395783E-001	-2.7040155E+002
3	0	1.877295789341733E+003	2.6377085E-001	-2.7039093E+002
3	0	1.877795789329102E+003	2.6357824E-001	-2.7037677E+002
3	0	1.878295789316471E+003	2.6337916E-001	-2.7037677E+002
3	0	1.878795789303840E+003	2.6316133E-001	-2.7035559E+002
3	0	1.879295789291209E+003	2.6293907E-001	-2.7039093E+002
3	0	1.879795789278578E+003	2.6275805E-001	-2.7039093E+002
3	0	1.880295789265947E+003	2.6259717E-001	-2.7037677E+002
3	0	1.880795789253316E+003	2.6243368E-001	-2.7038742E+002
3	0	1.881295789240685E+003	2.6226550E-001	-2.7035913E+002
3	0	1.881795789228054E+003	2.6208937E-001	-2.7038031E+002
3	0	1.882295789215423E+003	2.6191172E-001	-2.7039093E+002
3	0	1.882795789202792E+003	2.6170734E-001	-2.7037326E+002
3	0	1.883295789190161E+003	2.6149520E-001	-2.7038385E+002
3	0	1.883795789177530E+003	2.6132900E-001	-2.7036267E+002
3	0	1.884295789164898E+003	2.6117927E-001	-2.7038385E+002
3	0	1.884795789152267E+003	2.6102558E-001	-2.7040155E+002
3	0	1.885295789139636E+003	2.6086700E-001	-2.7038742E+002
3	0	1.885795789127005E+003	2.6070866E-001	-2.7038031E+002
3	0	1.886295789114374E+003	2.6054206E-001	-2.7039447E+002
3	0	1.886795789101743E+003	2.6035163E-001	-2.7040155E+002
3	0	1.887295789089112E+003	2.6015136E-001	-2.7039093E+002
3	0	1.887795789076481E+003	2.6000175E-001	-2.7038742E+002
3	0	1.888295789063850E+003	2.5986144E-001	-2.7038385E+002
3	0	1.888795789051219E+003	2.5972182E-001	-2.7037326E+002
3	0	1.889295789038588E+003	2.5957850E-001	-2.7037677E+002
3	0	1.889795789025957E+003	2.5943306E-001	-2.7038031E+002
3	0	1.890295789013326E+003	2.5927925E-001	-2.7035913E+002
3	0	1.890795789000695E+003	2.5910264E-001	-2.7039801E+002
3	0	1.891295788988064E+003	2.5891674E-001	-2.7038385E+002
3	0	1.891795788975433E+003	2.5877389E-001	-2.7035913E+002
3	0	1.892295788962801E+003	2.5865328E-001	-2.7039447E+002
3	0	1.892795788950170E+003	2.5852177E-001	-2.7036267E+002
3	0	1.893295788937539E+003	2.5838426E-001	-2.7039447E+002
3	0	1.893795788924908E+003	2.5824454E-001	-2.7038742E+002
3	0	1.894295788912277E+003	2.5809544E-001	-2.7035913E+002
3	0	1.894795788899646E+003	2.5792497E-001	-2.7039093E+002
3	0	1.895295788887015E+003	2.5774658E-001	-2.7038742E+002
3	0	1.895795788874384E+003	2.5761721E-001	-2.7039447E+002
3	0	1.896295788861753E+003	2.5749704E-001	-2.7036972E+002
3	0	1.896795788849122E+003	2.5737453E-001	-2.7036972E+002
3	0	1.897295788836491E+003	2.5725144E-001	-2.7038385E+002
3	0	1.897795788823860E+003	2.5712377E-001	-2.7038385E+002
3	0	1.898295788811229E+003	2.5698894E-001	-2.7035205E+002
3	0	1.898795788798598E+003	2.5683731E-001	-2.7037326E+002
3	0	1.899295788785967E+003	2.5667280E-001	-2.7036972E+002
3	0	1.899795788773336E+003	2.5655526E-001	-2.7036972E+002
3	0	1.900295788760704E+003	2.5644794E-001	-2.7036972E+002
3	0	1.900795788748073E+003	2.5634003E-001	-2.7038385E+002
3	0	1.901295788735442E+003	2.5622553E-001	-2.7035913E+002
3	0	1.901795788722811E+003	2.5611275E-001	-2.7036267E+002
3	0	1.902295788710180E+003	2.5598767E-001	-2.7035913E+002
3	0	1.902795788697549E+003	2.5583717E-001	-2.7040860E+002
3	0	1.903295788684918E+003	2.5568539E-001	-2.7039801E+002
3	0	1.903795788672287E+003	2.5556934E-001	-2.7041568E+002
3	0	1.904295788659656E+003	2.5547513E-001	-2.7035913E+002
3	0	1.904795788647025E+003	2.5536770E-001	-2.7038742E+002
3	0	1.905295788634394E+003	2.5525939E-001	-2.7038742E+002
3	0	1.905795788621763E+003	2.5515354E-001	-2.7037326E+002
3	0	1.906295788609132E+003	2.5503898E-001	-2.7038031E+002
3	0	1.906795788596501E+003	2.5489697E-001	-2.7036267E+002
3	0	1.907295788583870E+003	2.5475010E-001	-2.7039447E+002
3	0	1.907795788571239E+003	2.5464416E-001	-2.7038742E+002
3	0	1.908295788558607E+003	2.5454897E-001	-2.7037326E+002
3	0	1.908795788545976E+003	2.5445265E-001	-2.7040860E+002
3	0	1.909295788533345E+003	2.5435203E-001	-2.7038742E+002
3	0	1.909795788520714E+003	2.5425324E-001	-2.7036267E+002
3	0	1.910295788508083E+003	2.5414753E-001	-2.7036972E+002
3	0	1.910795788495452E+003	2.5400919E-001	-2.7038031E+002
3	0	1.911295788482821E+003	2.5386187E-001	-2.7035559E+002
3	0	1.911795788470190E+003	2.5376210E-001	-2.7037326E+002
3	0	1.912295788457559E+003	2.5367287E-001	-2.7036972E+002
3	0	1.912795788444928E+003	2.5358009E-001	-2.7038031E+002
3	0	1.913295788432297E+003	2.5347811E-001	-2.7035559E+002
3	0	1.913795788419666E+003	2.5337553E-001	-2.7036618E+002
3	0	1.914295788407035E+003	2.5326163E-001	-2.7037677E+002
3	0	1.914795788394404E+003	2.5313023E-001	-2.7040860E+002
3	0	1.915295788381773E+003	2.5299454E-001	-2.7038031E+002
3	0	1.915795788369142E+003	2.5290215E-001	-2.7038385E+002
3	0	1.916295788356510E+003	2.5282308E-001	-2.7040155E+002
3	0	1.916795788343879E+003	2.5273636E-001	-2.7038031E+002
3	0	1.917295788331248E+003	2.5264335E-001	-2.7038385E+002
3	0	1.917795788318617E+003	2.5255910E-001	-2.7037326E+002
3	0	1.918295788305986E+003	2.5245824E-001	-2.7038031E+002
3	0	1.918795788293355E+003	2.5233769E-001	-2.7039093E+002
3	0	1.919295788280724E+003	2.5220048E-001	-2.7038385E+002
3	0	1.919795788268093E+003	2.5211784E-001	-2.7038031E+002
3	0	1.920295788255462E+003	2.5204331E-001	-2.7041214E+002
3	0	1.920795788242831E+003	2.5196537E-001	-2.7040506E+002
3	0	1.921295788230200E+003	2.5188315E-001	-2.7037677E+002
3	0	1.921795788217569E+003	2.5180247E-001	-2.7039801E+002
3	0	1.922295788204938E+003	2.5171056E-001	-2.7035913E+002
3	0	1.922795788192307E+003	2.5159210E-001	-2.7038385E+002
3	0	1.923295788179676E+003	2.5146836E-001	-2.7038031E+002
3	0	1.923795788167045E+003	2.5138527E-001	-2.7035559E+002
3	0	1.924295788154413E+003	2.5131842E-001	-2.7038385E+002
3	0	1.924795788141782E+003	2.5125045E-001	-2.7040155E+002
3	0	1.925295788129151E+003	2.5117275E-001	-2.7039447E+002
3	0	1.925795788116520E+003	2.5109431E-001	-2.7038031E+002
3	0	1.926295788103889E+003	2.5100884E-001	-2.7039093E+002
3	0	1.926795788091258E+003	2.5089356E-001	-2.7036972E+002
3	0	1.927295788078627E+003	2.5077006E-001	-2.7037326E+002
3	0	1.927795788065996E+003	2.5069183E-001	-2.7036972E+002
3	0	1.928295788053365E+003	2.5062394E-001	-2.7037677E+002
3	0	1.928795788040734E+003	2.5055966E-001	-2.7037677E+002
3	0	1.929295788028103E+003	2.5049269E-001	-2.7039093E+002
3	0	1.929795788015472E+003	2.5041932E-001	-2.7036972E+002
3	0	1.930295788002841E+003	2.5033486E-001	-2.7038742E+002
3	0	1.930319188002250E+003	2.5027055E-001	-2.7037326E+002