EC-Lab ASCII FILE
Nb header lines : 55                          

Open Circuit Voltage

Run on channel : 1 (SN 81504)
User : 
CE vs. WE compliance from -10 V to 10 V
Electrode connection : standard
Potential control : Ewe
Ewe ctrl range : min = -2.50 V, max = 2.50 V
Safety Limits :
	Do not start on E overload
Acquisition started on : 05/07/2026 22:17:50.137
Loaded Setting File :  C:\PEM-WE_measurements\2026\372_IV_IV IrOx, 5 min Pt, 30 min C, etched cathode\new station\Loopeis new\1,46 V different time gaps open cell\Loopeis 1,46V_120s_5_PEIS from 65Hz to 10Hz.mps
Saved on :
	File : L_25_Loopeis 1,46V_120s_5_PEIS from 65Hz to 10Hz_08_OCV_C01.mpr
	Directory : C:\PEM-WE_measurements\2026\372_IV_IV IrOx, 5 min Pt, 30 min C, etched cathode\new station\Loopeis new\1,46 V different time gaps open cell\
	Host : 192.168.0.2
Device : SP-150e (SN .005491)
Address : 192.168.0.91
EC-LAB for windows v11.71 (software)
Internet server v28.00 (firmware)
Command interpretor v14.01 (firmware)
Electrode material : 
Initial state : 
Electrolyte : 
Comments : 
Current amplifier : SP-150eB-20A
Electrode surface area : 0.001 cm²
Characteristic mass : 0.001 g
Equivalent Weight : 0.000 g/eq.
Density : 0.000 g/cm3
Volume (V) : 0.001 cm³
Record Analogic IN 1
Text export
   Mode : Standard
   Time format : Elapsed
Cycle Definition : Charge/Discharge alternance
External device configuration :
   device type : Temperature Probe
   device name : Other
   Analog IN 1 : 
      unit : T/Â°C
      max : 100.000 at 2.000 V
      min : 0.000 at 1.460 V
tR (h:m:s)          0:02:0.0000         
dER/dt (mV/h)       1.0                 
record              <Ewe>               
dER (mV)            10.00               
dtR (s)             0.5000              
E range min (V)     -2.500              
E range max (V)     2.500               

mode	error	time/s	<Ewe/V>	Analog IN 1/V	
3	0	6.049023959546321E+002	1.2390331E+000	-2.7037677E+002
3	0	6.054023959420010E+002	1.2134432E+000	-2.7036267E+002
3	0	6.059023959293700E+002	1.0232203E+000	-2.7039447E+002
3	0	6.064023959167389E+002	5.2623063E-001	-2.7036972E+002
3	0	6.069023959041078E+002	3.5902503E-001	-2.7038031E+002
3	0	6.074023958914768E+002	3.3713263E-001	-2.7037677E+002
3	0	6.079023958788457E+002	3.2838851E-001	-2.7036267E+002
3	0	6.084023958662146E+002	3.2141539E-001	-2.7036267E+002
3	0	6.089023958535836E+002	3.1611454E-001	-2.7036618E+002
3	0	6.094023958409525E+002	3.1210589E-001	-2.7035559E+002
3	0	6.099023958283215E+002	3.0899239E-001	-2.7037326E+002
3	0	6.104023958156904E+002	3.0651408E-001	-2.7036972E+002
3	0	6.109023958030593E+002	3.0448490E-001	-2.7037677E+002
3	0	6.114023957904283E+002	3.0277684E-001	-2.7040155E+002
3	0	6.119023957777972E+002	3.0129689E-001	-2.7038031E+002
3	0	6.124023957651661E+002	2.9998747E-001	-2.7037326E+002
3	0	6.129023957525351E+002	2.9884681E-001	-2.7036618E+002
3	0	6.134023957399040E+002	2.9783410E-001	-2.7038385E+002
3	0	6.139023957272730E+002	2.9689330E-001	-2.7038031E+002
3	0	6.144023957146419E+002	2.9602244E-001	-2.7036267E+002
3	0	6.149023957020108E+002	2.9521081E-001	-2.7036972E+002
3	0	6.154023956893798E+002	2.9443809E-001	-2.7038385E+002
3	0	6.159023956767487E+002	2.9368415E-001	-2.7035559E+002
3	0	6.164023956641176E+002	2.9295224E-001	-2.7039447E+002
3	0	6.169023956514866E+002	2.9226303E-001	-2.7040155E+002
3	0	6.174023956388555E+002	2.9161197E-001	-2.7039447E+002
3	0	6.179023956262245E+002	2.9097065E-001	-2.7039801E+002
3	0	6.184023956135934E+002	2.9035342E-001	-2.7037326E+002
3	0	6.189023956009623E+002	2.8973672E-001	-2.7037326E+002
3	0	6.194023955883313E+002	2.8910697E-001	-2.7038031E+002
3	0	6.199023955757002E+002	2.8851017E-001	-2.7037326E+002
3	0	6.204023955630691E+002	2.8791991E-001	-2.7039447E+002
3	0	6.209023955504381E+002	2.8735486E-001	-2.7037677E+002
3	0	6.214023955378070E+002	2.8681576E-001	-2.7040155E+002
3	0	6.219023955251760E+002	2.8626502E-001	-2.7039093E+002
3	0	6.224023955125449E+002	2.8572839E-001	-2.7039093E+002
3	0	6.229023954999138E+002	2.8519610E-001	-2.7039447E+002
3	0	6.234023954872828E+002	2.8466168E-001	-2.7037677E+002
3	0	6.239023954746517E+002	2.8411204E-001	-2.7037326E+002
3	0	6.244023954620207E+002	2.8354520E-001	-2.7035913E+002
3	0	6.249023954493896E+002	2.8301778E-001	-2.7035205E+002
3	0	6.254023954367585E+002	2.8251463E-001	-2.7036618E+002
3	0	6.259023954241275E+002	2.8202105E-001	-2.7036267E+002
3	0	6.264023954114964E+002	2.8151798E-001	-2.7038031E+002
3	0	6.269023953988653E+002	2.8102905E-001	-2.7039801E+002
3	0	6.274023953862343E+002	2.8053319E-001	-2.7038385E+002
3	0	6.279023953736032E+002	2.8002059E-001	-2.7036267E+002
3	0	6.284023953609722E+002	2.7950230E-001	-2.7039447E+002
3	0	6.289023953483411E+002	2.7901959E-001	-2.7037677E+002
3	0	6.294023953357100E+002	2.7856743E-001	-2.7037677E+002
3	0	6.299023953230790E+002	2.7810988E-001	-2.7038031E+002
3	0	6.304023953104479E+002	2.7764735E-001	-2.7038385E+002
3	0	6.309023952978168E+002	2.7719355E-001	-2.7037677E+002
3	0	6.314023952851858E+002	2.7673075E-001	-2.7038385E+002
3	0	6.319023952725547E+002	2.7624997E-001	-2.7038031E+002
3	0	6.324023952599237E+002	2.7576649E-001	-2.7036618E+002
3	0	6.329023952472926E+002	2.7531525E-001	-2.7037677E+002
3	0	6.334023952346615E+002	2.7489063E-001	-2.7038742E+002
3	0	6.339023952220305E+002	2.7446574E-001	-2.7039447E+002
3	0	6.344023952093994E+002	2.7403915E-001	-2.7038742E+002
3	0	6.349023951967683E+002	2.7361873E-001	-2.7036267E+002
3	0	6.354023951841373E+002	2.7319089E-001	-2.7038031E+002
3	0	6.359023951715062E+002	2.7274325E-001	-2.7039801E+002
3	0	6.364023951588752E+002	2.7229628E-001	-2.7036267E+002
3	0	6.369023951462441E+002	2.7189010E-001	-2.7039447E+002
3	0	6.374023951336130E+002	2.7148843E-001	-2.7039093E+002
3	0	6.379023951209820E+002	2.7109027E-001	-2.7037326E+002
3	0	6.384023951083509E+002	2.7069733E-001	-2.7038385E+002
3	0	6.389023950957198E+002	2.7030283E-001	-2.7036267E+002
3	0	6.394023950830888E+002	2.6990622E-001	-2.7035559E+002
3	0	6.399023950704577E+002	2.6950419E-001	-2.7036618E+002
3	0	6.404023950578267E+002	2.6908702E-001	-2.7038742E+002
3	0	6.409023950451956E+002	2.6870343E-001	-2.7036267E+002
3	0	6.414023950325645E+002	2.6834637E-001	-2.7037326E+002
3	0	6.419023950199335E+002	2.6798120E-001	-2.7035913E+002
3	0	6.424023950073024E+002	2.6761812E-001	-2.7038385E+002
3	0	6.429023949946713E+002	2.6725528E-001	-2.7039447E+002
3	0	6.434023949820403E+002	2.6688990E-001	-2.7038385E+002
3	0	6.439023949694092E+002	2.6650578E-001	-2.7038385E+002
3	0	6.444023949567782E+002	2.6611620E-001	-2.7040155E+002
3	0	6.449023949441471E+002	2.6577121E-001	-2.7037326E+002
3	0	6.454023949315160E+002	2.6543981E-001	-2.7038031E+002
3	0	6.459023949188850E+002	2.6509964E-001	-2.7038385E+002
3	0	6.464023949062539E+002	2.6477194E-001	-2.7035913E+002
3	0	6.469023948936228E+002	2.6445130E-001	-2.7036267E+002
3	0	6.474023948809918E+002	2.6412091E-001	-2.7038031E+002
3	0	6.479023948683607E+002	2.6377419E-001	-2.7036618E+002
3	0	6.484023948557297E+002	2.6341525E-001	-2.7037326E+002
3	0	6.489023948430986E+002	2.6309979E-001	-2.7038385E+002
3	0	6.494023948304675E+002	2.6280260E-001	-2.7035205E+002
3	0	6.499023948178365E+002	2.6249784E-001	-2.7035559E+002
3	0	6.504023948052054E+002	2.6219496E-001	-2.7035913E+002
3	0	6.509023947925743E+002	2.6189533E-001	-2.7038031E+002
3	0	6.514023947799433E+002	2.6158452E-001	-2.7038742E+002
3	0	6.519023947673122E+002	2.6126865E-001	-2.7037677E+002
3	0	6.524023947546812E+002	2.6093522E-001	-2.7037326E+002
3	0	6.529023947420501E+002	2.6063889E-001	-2.7037677E+002
3	0	6.534023947294190E+002	2.6036930E-001	-2.7036618E+002
3	0	6.539023947167880E+002	2.6009613E-001	-2.7038031E+002
3	0	6.544023947041569E+002	2.5982383E-001	-2.7037326E+002
3	0	6.549023946915258E+002	2.5955510E-001	-2.7036618E+002
3	0	6.554023946788948E+002	2.5928068E-001	-2.7039801E+002
3	0	6.559023946662637E+002	2.5898364E-001	-2.7038385E+002
3	0	6.564023946536327E+002	2.5867349E-001	-2.7038031E+002
3	0	6.569023946410016E+002	2.5840247E-001	-2.7036267E+002
3	0	6.574023946283705E+002	2.5815642E-001	-2.7040506E+002
3	0	6.579023946157395E+002	2.5791118E-001	-2.7039447E+002
3	0	6.584023946031084E+002	2.5766283E-001	-2.7039447E+002
3	0	6.589023945904773E+002	2.5741166E-001	-2.7036618E+002
3	0	6.594023945778463E+002	2.5716159E-001	-2.7038031E+002
3	0	6.599023945652152E+002	2.5688565E-001	-2.7037677E+002
3	0	6.604023945525842E+002	2.5660229E-001	-2.7038385E+002
3	0	6.609023945399531E+002	2.5635412E-001	-2.7038742E+002
3	0	6.614023945273220E+002	2.5613126E-001	-2.7036618E+002
3	0	6.619023945146910E+002	2.5590390E-001	-2.7039447E+002
3	0	6.624023945020599E+002	2.5567541E-001	-2.7038385E+002
3	0	6.629023944894288E+002	2.5544089E-001	-2.7036972E+002
3	0	6.634023944767978E+002	2.5520197E-001	-2.7038385E+002
3	0	6.639023944641667E+002	2.5495094E-001	-2.7039447E+002
3	0	6.644023944515357E+002	2.5468600E-001	-2.7038742E+002
3	0	6.649023944389046E+002	2.5445950E-001	-2.7039093E+002
3	0	6.654023944262735E+002	2.5425938E-001	-2.7037326E+002
3	0	6.659023944136425E+002	2.5405505E-001	-2.7035913E+002
3	0	6.664023944010114E+002	2.5384200E-001	-2.7035913E+002
3	0	6.669023943883803E+002	2.5364283E-001	-2.7040155E+002
3	0	6.674023943757493E+002	2.5342664E-001	-2.7040860E+002
3	0	6.679023943631182E+002	2.5319389E-001	-2.7039801E+002
3	0	6.684023943504872E+002	2.5295615E-001	-2.7039447E+002
3	0	6.689023943378561E+002	2.5274828E-001	-2.7036972E+002
3	0	6.694023943252250E+002	2.5255752E-001	-2.7040155E+002
3	0	6.699023943125940E+002	2.5237438E-001	-2.7038031E+002
3	0	6.704023942999629E+002	2.5218451E-001	-2.7038742E+002
3	0	6.709023942873318E+002	2.5199014E-001	-2.7038031E+002
3	0	6.714023942747008E+002	2.5180197E-001	-2.7035205E+002
3	0	6.719023942620697E+002	2.5158536E-001	-2.7038742E+002
3	0	6.724023942494387E+002	2.5135148E-001	-2.7038742E+002
3	0	6.729023942368076E+002	2.5116479E-001	-2.7036618E+002
3	0	6.734023942241765E+002	2.5099608E-001	-2.7036972E+002
3	0	6.739023942115455E+002	2.5082341E-001	-2.7036267E+002
3	0	6.744023941989144E+002	2.5064853E-001	-2.7040155E+002
3	0	6.749023941862833E+002	2.5047228E-001	-2.7038742E+002
3	0	6.754023941736523E+002	2.5029415E-001	-2.7039801E+002
3	0	6.759023941610212E+002	2.5009063E-001	-2.7036972E+002
3	0	6.764023941483902E+002	2.4988100E-001	-2.7038385E+002
3	0	6.769023941357591E+002	2.4970774E-001	-2.7037326E+002
3	0	6.774023941231280E+002	2.4955477E-001	-2.7040155E+002
3	0	6.779023941104970E+002	2.4940337E-001	-2.7040860E+002
3	0	6.784023940978659E+002	2.4924737E-001	-2.7038742E+002
3	0	6.789023940852348E+002	2.4908966E-001	-2.7036972E+002
3	0	6.794023940726038E+002	2.4892691E-001	-2.7037677E+002
3	0	6.799023940599727E+002	2.4873541E-001	-2.7037326E+002
3	0	6.804023940473417E+002	2.4853510E-001	-2.7038742E+002
3	0	6.809023940347106E+002	2.4836902E-001	-2.7037677E+002
3	0	6.814023940220795E+002	2.4822721E-001	-2.7037326E+002
3	0	6.819023940094485E+002	2.4808514E-001	-2.7038031E+002
3	0	6.824023939968174E+002	2.4793588E-001	-2.7035913E+002
3	0	6.829023939841863E+002	2.4778539E-001	-2.7040155E+002
3	0	6.834023939715553E+002	2.4762394E-001	-2.7035559E+002
3	0	6.839023939589242E+002	2.4745169E-001	-2.7038031E+002
3	0	6.844023939462932E+002	2.4725614E-001	-2.7036267E+002
3	0	6.849023939336621E+002	2.4710058E-001	-2.7035205E+002
3	0	6.854023939210310E+002	2.4696554E-001	-2.7038742E+002
3	0	6.859023939084000E+002	2.4683146E-001	-2.7039801E+002
3	0	6.864023938957689E+002	2.4669285E-001	-2.7037677E+002
3	0	6.869023938831378E+002	2.4655230E-001	-2.7037326E+002
3	0	6.874023938705068E+002	2.4640660E-001	-2.7038031E+002
3	0	6.879023938578757E+002	2.4624181E-001	-2.7036267E+002
3	0	6.884023938452447E+002	2.4606088E-001	-2.7035559E+002
3	0	6.889023938326136E+002	2.4592087E-001	-2.7038031E+002
3	0	6.894023938199825E+002	2.4580419E-001	-2.7038031E+002
3	0	6.899023938073515E+002	2.4568385E-001	-2.7036972E+002
3	0	6.904023937947204E+002	2.4555844E-001	-2.7037677E+002
3	0	6.909023937820893E+002	2.4542874E-001	-2.7040155E+002
3	0	6.914023937694583E+002	2.4529420E-001	-2.7040155E+002
3	0	6.919023937568272E+002	2.4513133E-001	-2.7038031E+002
3	0	6.924023937441962E+002	2.4496122E-001	-2.7035913E+002
3	0	6.929023937315651E+002	2.4482538E-001	-2.7036972E+002
3	0	6.934023937189340E+002	2.4471749E-001	-2.7037677E+002
3	0	6.939023937063030E+002	2.4459997E-001	-2.7038385E+002
3	0	6.944023936936719E+002	2.4448460E-001	-2.7036618E+002
3	0	6.949023936810408E+002	2.4437064E-001	-2.7037677E+002
3	0	6.954023936684098E+002	2.4424762E-001	-2.7038742E+002
3	0	6.959023936557787E+002	2.4409576E-001	-2.7038385E+002
3	0	6.964023936431477E+002	2.4393547E-001	-2.7036267E+002
3	0	6.969023936305166E+002	2.4381524E-001	-2.7039093E+002
3	0	6.974023936178855E+002	2.4371886E-001	-2.7035559E+002
3	0	6.979023936052545E+002	2.4360788E-001	-2.7039801E+002
3	0	6.984023935926234E+002	2.4349821E-001	-2.7037677E+002
3	0	6.989023935799923E+002	2.4338695E-001	-2.7035205E+002
3	0	6.994023935673613E+002	2.4327067E-001	-2.7038031E+002
3	0	6.999023935547302E+002	2.4313322E-001	-2.7037677E+002
3	0	7.004023935420992E+002	2.4298595E-001	-2.7038031E+002
3	0	7.009023935294681E+002	2.4287120E-001	-2.7036972E+002
3	0	7.014023935168370E+002	2.4277887E-001	-2.7037326E+002
3	0	7.019023935042060E+002	2.4268429E-001	-2.7037677E+002
3	0	7.024023934915749E+002	2.4257560E-001	-2.7040155E+002
3	0	7.029023934789439E+002	2.4247035E-001	-2.7036972E+002
3	0	7.034023934663128E+002	2.4235497E-001	-2.7036618E+002
3	0	7.039023934536817E+002	2.4221842E-001	-2.7039093E+002
3	0	7.044023934410507E+002	2.4206965E-001	-2.7039801E+002
3	0	7.049023934284196E+002	2.4196331E-001	-2.7038742E+002
3	0	7.054023934157885E+002	2.4187481E-001	-2.7039447E+002
3	0	7.059023934031575E+002	2.4178077E-001	-2.7035205E+002
3	0	7.064023933905264E+002	2.4168682E-001	-2.7038031E+002
3	0	7.069023933778954E+002	2.4159518E-001	-2.7037677E+002
3	0	7.074023933652643E+002	2.4148959E-001	-2.7037326E+002
3	0	7.079023933526332E+002	2.4137188E-001	-2.7037326E+002
3	0	7.084023933400022E+002	2.4122882E-001	-2.7036618E+002
3	0	7.089023933273711E+002	2.4112365E-001	-2.7036972E+002
3	0	7.094023933147400E+002	2.4104542E-001	-2.7038031E+002
3	0	7.099023933021090E+002	2.4096540E-001	-2.7036267E+002
3	0	7.104023932894779E+002	2.4087748E-001	-2.7037326E+002
3	0	7.109023932768469E+002	2.4079022E-001	-2.7036972E+002
3	0	7.114023932642158E+002	2.4069327E-001	-2.7039447E+002
3	0	7.119023932515847E+002	2.4058045E-001	-2.7037677E+002
3	0	7.124023932389537E+002	2.4044845E-001	-2.7038031E+002
3	0	7.129023932263226E+002	2.4035290E-001	-2.7038385E+002
3	0	7.134023932136915E+002	2.4028221E-001	-2.7039093E+002
3	0	7.139023932010605E+002	2.4020575E-001	-2.7039801E+002
3	0	7.144023931884294E+002	2.4012907E-001	-2.7036267E+002
3	0	7.149023931757984E+002	2.4004786E-001	-2.7036618E+002
3	0	7.154023931631673E+002	2.3995692E-001	-2.7036618E+002
3	0	7.159023931505362E+002	2.3983602E-001	-2.7037326E+002
3	0	7.164023931379052E+002	2.3971540E-001	-2.7038742E+002
3	0	7.169023931252741E+002	2.3962545E-001	-2.7037677E+002
3	0	7.174023931126430E+002	2.3955861E-001	-2.7038031E+002
3	0	7.179023931000120E+002	2.3948289E-001	-2.7035559E+002
3	0	7.184023930873809E+002	2.3940828E-001	-2.7036972E+002
3	0	7.189023930747499E+002	2.3932859E-001	-2.7037326E+002
3	0	7.194023930621188E+002	2.3924327E-001	-2.7039093E+002
3	0	7.199023930494877E+002	2.3913763E-001	-2.7039801E+002
3	0	7.204023930368567E+002	2.3902059E-001	-2.7040506E+002
3	0	7.209023930242256E+002	2.3893538E-001	-2.7039093E+002
3	0	7.214023930115945E+002	2.3886895E-001	-2.7038031E+002
3	0	7.219023929989635E+002	2.3880067E-001	-2.7038742E+002
3	0	7.224023929863324E+002	2.3872477E-001	-2.7036618E+002
3	0	7.229023929737014E+002	2.3864400E-001	-2.7039093E+002
3	0	7.234023929610703E+002	2.3855558E-001	-2.7038385E+002
3	0	7.239023929484392E+002	2.3844993E-001	-2.7038031E+002
3	0	7.244023929358082E+002	2.3832476E-001	-2.7036618E+002
3	0	7.244257929352170E+002	2.3827332E-001	-2.7039093E+002