EC-Lab ASCII FILE
Nb header lines : 55                          

Open Circuit Voltage

Run on channel : 1 (SN 81504)
User : 
CE vs. WE compliance from -10 V to 10 V
Electrode connection : standard
Potential control : Ewe
Ewe ctrl range : min = -2.50 V, max = 2.50 V
Safety Limits :
	Do not start on E overload
Acquisition started on : 05/07/2026 22:17:50.137
Loaded Setting File :  C:\PEM-WE_measurements\2026\372_IV_IV IrOx, 5 min Pt, 30 min C, etched cathode\new station\Loopeis new\1,46 V different time gaps open cell\Loopeis 1,46V_120s_5_PEIS from 65Hz to 10Hz.mps
Saved on :
	File : L_25_Loopeis 1,46V_120s_5_PEIS from 65Hz to 10Hz_16_OCV_C01.mpr
	Directory : C:\PEM-WE_measurements\2026\372_IV_IV IrOx, 5 min Pt, 30 min C, etched cathode\new station\Loopeis new\1,46 V different time gaps open cell\
	Host : 192.168.0.2
Device : SP-150e (SN .005491)
Address : 192.168.0.91
EC-LAB for windows v11.71 (software)
Internet server v28.00 (firmware)
Command interpretor v14.01 (firmware)
Electrode material : 
Initial state : 
Electrolyte : 
Comments : 
Current amplifier : SP-150eB-20A
Electrode surface area : 0.001 cm²
Characteristic mass : 0.001 g
Equivalent Weight : 0.000 g/eq.
Density : 0.000 g/cm3
Volume (V) : 0.001 cm³
Record Analogic IN 1
Text export
   Mode : Standard
   Time format : Elapsed
Cycle Definition : Charge/Discharge alternance
External device configuration :
   device type : Temperature Probe
   device name : Other
   Analog IN 1 : 
      unit : T/Â°C
      max : 100.000 at 2.000 V
      min : 0.000 at 1.460 V
tR (h:m:s)          0:02:0.0000         
dER/dt (mV/h)       1.0                 
record              <Ewe>               
dER (mV)            10.00               
dtR (s)             0.5000              
E range min (V)     -2.500              
E range max (V)     2.500               

mode	error	time/s	<Ewe/V>	Analog IN 1/V	
3	0	1.268194785986198E+003	1.2349581E+000	-2.7037677E+002
3	0	1.268694785973566E+003	1.2074406E+000	-2.7039093E+002
3	0	1.269194785960935E+003	9.9592024E-001	-2.7039447E+002
3	0	1.269694785948304E+003	5.0542635E-001	-2.7036972E+002
3	0	1.270194785935673E+003	3.5493249E-001	-2.7036267E+002
3	0	1.270694785923042E+003	3.3534491E-001	-2.7037326E+002
3	0	1.271194785910411E+003	3.2681715E-001	-2.7035913E+002
3	0	1.271694785897780E+003	3.2000738E-001	-2.7040155E+002
3	0	1.272194785885149E+003	3.1482211E-001	-2.7036618E+002
3	0	1.272694785872518E+003	3.1089967E-001	-2.7037326E+002
3	0	1.273194785859887E+003	3.0785167E-001	-2.7035205E+002
3	0	1.273694785847256E+003	3.0541486E-001	-2.7035913E+002
3	0	1.274194785834625E+003	3.0342185E-001	-2.7038742E+002
3	0	1.274694785821994E+003	3.0175304E-001	-2.7039447E+002
3	0	1.275194785809363E+003	3.0031106E-001	-2.7037677E+002
3	0	1.275694785796732E+003	2.9902300E-001	-2.7039093E+002
3	0	1.276194785784101E+003	2.9787487E-001	-2.7038385E+002
3	0	1.276694785771469E+003	2.9685390E-001	-2.7036972E+002
3	0	1.277194785758838E+003	2.9592931E-001	-2.7036972E+002
3	0	1.277694785746207E+003	2.9506955E-001	-2.7038385E+002
3	0	1.278194785733576E+003	2.9426095E-001	-2.7037326E+002
3	0	1.278694785720945E+003	2.9350930E-001	-2.7038031E+002
3	0	1.279194785708314E+003	2.9277712E-001	-2.7037677E+002
3	0	1.279694785695683E+003	2.9205033E-001	-2.7038742E+002
3	0	1.280194785683052E+003	2.9133302E-001	-2.7038031E+002
3	0	1.280694785670421E+003	2.9067957E-001	-2.7036972E+002
3	0	1.281194785657790E+003	2.9005206E-001	-2.7036618E+002
3	0	1.281694785645159E+003	2.8943798E-001	-2.7037326E+002
3	0	1.282194785632528E+003	2.8883767E-001	-2.7037677E+002
3	0	1.282694785619897E+003	2.8825149E-001	-2.7038742E+002
3	0	1.283194785607266E+003	2.8766412E-001	-2.7038385E+002
3	0	1.283694785594635E+003	2.8706226E-001	-2.7037326E+002
3	0	1.284194785582004E+003	2.8645509E-001	-2.7037326E+002
3	0	1.284694785569372E+003	2.8589091E-001	-2.7039093E+002
3	0	1.285194785556741E+003	2.8534910E-001	-2.7039447E+002
3	0	1.285694785544110E+003	2.8480205E-001	-2.7036972E+002
3	0	1.286194785531479E+003	2.8427330E-001	-2.7037326E+002
3	0	1.286694785518848E+003	2.8374287E-001	-2.7037677E+002
3	0	1.287194785506217E+003	2.8320321E-001	-2.7037677E+002
3	0	1.287694785493586E+003	2.8265622E-001	-2.7038031E+002
3	0	1.288194785480955E+003	2.8211236E-001	-2.7038742E+002
3	0	1.288694785468324E+003	2.8159550E-001	-2.7036618E+002
3	0	1.289194785455693E+003	2.8109497E-001	-2.7034851E+002
3	0	1.289694785443062E+003	2.8060371E-001	-2.7037677E+002
3	0	1.290194785430431E+003	2.8011680E-001	-2.7038742E+002
3	0	1.290694785417800E+003	2.7963021E-001	-2.7038031E+002
3	0	1.291194785405169E+003	2.7914923E-001	-2.7037326E+002
3	0	1.291694785392538E+003	2.7864638E-001	-2.7036267E+002
3	0	1.292194785379907E+003	2.7813780E-001	-2.7037677E+002
3	0	1.292694785367275E+003	2.7766481E-001	-2.7038742E+002
3	0	1.293194785354644E+003	2.7720109E-001	-2.7039801E+002
3	0	1.293694785342013E+003	2.7674076E-001	-2.7036267E+002
3	0	1.294194785329382E+003	2.7628762E-001	-2.7037326E+002
3	0	1.294694785316751E+003	2.7584440E-001	-2.7037326E+002
3	0	1.295194785304120E+003	2.7539265E-001	-2.7035559E+002
3	0	1.295694785291489E+003	2.7492750E-001	-2.7039447E+002
3	0	1.296194785278858E+003	2.7446029E-001	-2.7038742E+002
3	0	1.296694785266227E+003	2.7402815E-001	-2.7038742E+002
3	0	1.297194785253596E+003	2.7360061E-001	-2.7036618E+002
3	0	1.297694785240965E+003	2.7318031E-001	-2.7036267E+002
3	0	1.298194785228334E+003	2.7275565E-001	-2.7040155E+002
3	0	1.298694785215703E+003	2.7234584E-001	-2.7037677E+002
3	0	1.299194785203072E+003	2.7193281E-001	-2.7035205E+002
3	0	1.299694785190441E+003	2.7149823E-001	-2.7037326E+002
3	0	1.300194785177810E+003	2.7105129E-001	-2.7038385E+002
3	0	1.300694785165178E+003	2.7065125E-001	-2.7033789E+002
3	0	1.301194785152547E+003	2.7025804E-001	-2.7039447E+002
3	0	1.301694785139916E+003	2.6987013E-001	-2.7037677E+002
3	0	1.302194785127285E+003	2.6948911E-001	-2.7038031E+002
3	0	1.302694785114654E+003	2.6910332E-001	-2.7036618E+002
3	0	1.303194785102023E+003	2.6871571E-001	-2.7035913E+002
3	0	1.303694785089392E+003	2.6831466E-001	-2.7036618E+002
3	0	1.304194785076761E+003	2.6790622E-001	-2.7038385E+002
3	0	1.304694785064130E+003	2.6753473E-001	-2.7039093E+002
3	0	1.305194785051499E+003	2.6717469E-001	-2.7040155E+002
3	0	1.305694785038868E+003	2.6681229E-001	-2.7038742E+002
3	0	1.306194785026237E+003	2.6645634E-001	-2.7039447E+002
3	0	1.306694785013606E+003	2.6610392E-001	-2.7035913E+002
3	0	1.307194785000975E+003	2.6573879E-001	-2.7039093E+002
3	0	1.307694784988344E+003	2.6535517E-001	-2.7039093E+002
3	0	1.308194784975713E+003	2.6498330E-001	-2.7036972E+002
3	0	1.308694784963081E+003	2.6465285E-001	-2.7038385E+002
3	0	1.309194784950450E+003	2.6434213E-001	-2.7038385E+002
3	0	1.309694784937819E+003	2.6402101E-001	-2.7035913E+002
3	0	1.310194784925188E+003	2.6369852E-001	-2.7036618E+002
3	0	1.310694784912557E+003	2.6337820E-001	-2.7037326E+002
3	0	1.311194784899926E+003	2.6304701E-001	-2.7036618E+002
3	0	1.311694784887295E+003	2.6269865E-001	-2.7038031E+002
3	0	1.312194784874664E+003	2.6234293E-001	-2.7036618E+002
3	0	1.312694784862033E+003	2.6203340E-001	-2.7040155E+002
3	0	1.313194784849402E+003	2.6174298E-001	-2.7038385E+002
3	0	1.313694784836771E+003	2.6145154E-001	-2.7039801E+002
3	0	1.314194784824140E+003	2.6115450E-001	-2.7038031E+002
3	0	1.314694784811509E+003	2.6087219E-001	-2.7036267E+002
3	0	1.315194784798878E+003	2.6057085E-001	-2.7038385E+002
3	0	1.315694784786247E+003	2.6024711E-001	-2.7038031E+002
3	0	1.316194784773616E+003	2.5992176E-001	-2.7035913E+002
3	0	1.316694784760984E+003	2.5963718E-001	-2.7036972E+002
3	0	1.317194784748353E+003	2.5937095E-001	-2.7038385E+002
3	0	1.317694784735722E+003	2.5910702E-001	-2.7038385E+002
3	0	1.318194784723091E+003	2.5883245E-001	-2.7037326E+002
3	0	1.318694784710460E+003	2.5856537E-001	-2.7036618E+002
3	0	1.319194784697829E+003	2.5828528E-001	-2.7040860E+002
3	0	1.319694784685198E+003	2.5799263E-001	-2.7038385E+002
3	0	1.320194784672567E+003	2.5769186E-001	-2.7037326E+002
3	0	1.320694784659936E+003	2.5742692E-001	-2.7040155E+002
3	0	1.321194784647305E+003	2.5717849E-001	-2.7036972E+002
3	0	1.321694784634674E+003	2.5692931E-001	-2.7036618E+002
3	0	1.322194784622043E+003	2.5668710E-001	-2.7040155E+002
3	0	1.322694784609412E+003	2.5643677E-001	-2.7035913E+002
3	0	1.323194784596781E+003	2.5618696E-001	-2.7038385E+002
3	0	1.323694784584150E+003	2.5591823E-001	-2.7039093E+002
3	0	1.324194784571519E+003	2.5563645E-001	-2.7036972E+002
3	0	1.324694784558887E+003	2.5538716E-001	-2.7039801E+002
3	0	1.325194784546256E+003	2.5516567E-001	-2.7035559E+002
3	0	1.325694784533625E+003	2.5494686E-001	-2.7036972E+002
3	0	1.326194784520994E+003	2.5472164E-001	-2.7038031E+002
3	0	1.326694784508363E+003	2.5449660E-001	-2.7039801E+002
3	0	1.327194784495732E+003	2.5425988E-001	-2.7038385E+002
3	0	1.327694784483101E+003	2.5400332E-001	-2.7037326E+002
3	0	1.328194784470470E+003	2.5373551E-001	-2.7036267E+002
3	0	1.328694784457839E+003	2.5351116E-001	-2.7038742E+002
3	0	1.329194784445208E+003	2.5330338E-001	-2.7039801E+002
3	0	1.329694784432577E+003	2.5309971E-001	-2.7037326E+002
3	0	1.330194784419946E+003	2.5289539E-001	-2.7037677E+002
3	0	1.330694784407315E+003	2.5268617E-001	-2.7037326E+002
3	0	1.331194784394684E+003	2.5247186E-001	-2.7039093E+002
3	0	1.331694784382053E+003	2.5224093E-001	-2.7039093E+002
3	0	1.332194784369422E+003	2.5199726E-001	-2.7036972E+002
3	0	1.332694784356790E+003	2.5180039E-001	-2.7035559E+002
3	0	1.333194784344159E+003	2.5161707E-001	-2.7037677E+002
3	0	1.333694784331528E+003	2.5142831E-001	-2.7037326E+002
3	0	1.334194784318897E+003	2.5124043E-001	-2.7036267E+002
3	0	1.334694784306266E+003	2.5105599E-001	-2.7038385E+002
3	0	1.335194784293635E+003	2.5085741E-001	-2.7036972E+002
3	0	1.335694784281004E+003	2.5064659E-001	-2.7037677E+002
3	0	1.336194784268373E+003	2.5042164E-001	-2.7039801E+002
3	0	1.336694784255742E+003	2.5023937E-001	-2.7038385E+002
3	0	1.337194784243111E+003	2.5007287E-001	-2.7035205E+002
3	0	1.337694784230480E+003	2.4990475E-001	-2.7036972E+002
3	0	1.338194784217849E+003	2.4973461E-001	-2.7039093E+002
3	0	1.338694784205218E+003	2.4955863E-001	-2.7036972E+002
3	0	1.339194784192587E+003	2.4938859E-001	-2.7036618E+002
3	0	1.339694784179956E+003	2.4918915E-001	-2.7036618E+002
3	0	1.340194784167325E+003	2.4897738E-001	-2.7039447E+002
3	0	1.340694784154693E+003	2.4880889E-001	-2.7040860E+002
3	0	1.341194784142062E+003	2.4865530E-001	-2.7035913E+002
3	0	1.341694784129431E+003	2.4850264E-001	-2.7038385E+002
3	0	1.342194784116800E+003	2.4833873E-001	-2.7036267E+002
3	0	1.342694784104169E+003	2.4818316E-001	-2.7036972E+002
3	0	1.343194784091538E+003	2.4801910E-001	-2.7038385E+002
3	0	1.343694784078907E+003	2.4783492E-001	-2.7039447E+002
3	0	1.344194784066276E+003	2.4763437E-001	-2.7037677E+002
3	0	1.344694784053645E+003	2.4747781E-001	-2.7038385E+002
3	0	1.345194784041014E+003	2.4733493E-001	-2.7038385E+002
3	0	1.345694784028383E+003	2.4719137E-001	-2.7037677E+002
3	0	1.346194784015752E+003	2.4704257E-001	-2.7040860E+002
3	0	1.346694784003121E+003	2.4689466E-001	-2.7038031E+002
3	0	1.347194783990490E+003	2.4673192E-001	-2.7038742E+002
3	0	1.347694783977859E+003	2.4655616E-001	-2.7039093E+002
3	0	1.348194783965228E+003	2.4637161E-001	-2.7038742E+002
3	0	1.348694783952596E+003	2.4622105E-001	-2.7037326E+002
3	0	1.349194783939965E+003	2.4608988E-001	-2.7038742E+002
3	0	1.349694783927334E+003	2.4596111E-001	-2.7038385E+002
3	0	1.350194783914703E+003	2.4582952E-001	-2.7037326E+002
3	0	1.350694783902072E+003	2.4569401E-001	-2.7037677E+002
3	0	1.351194783889441E+003	2.4554667E-001	-2.7039093E+002
3	0	1.351694783876810E+003	2.4537863E-001	-2.7039447E+002
3	0	1.352194783864179E+003	2.4519713E-001	-2.7038385E+002
3	0	1.352694783851548E+003	2.4506383E-001	-2.7039447E+002
3	0	1.353194783838917E+003	2.4494113E-001	-2.7037326E+002
3	0	1.353694783826286E+003	2.4481004E-001	-2.7036267E+002
3	0	1.354194783813655E+003	2.4467972E-001	-2.7038385E+002
3	0	1.354694783801024E+003	2.4455436E-001	-2.7036618E+002
3	0	1.355194783788393E+003	2.4441956E-001	-2.7037326E+002
3	0	1.355694783775762E+003	2.4426793E-001	-2.7039093E+002
3	0	1.356194783763131E+003	2.4410316E-001	-2.7037326E+002
3	0	1.356694783750499E+003	2.4397850E-001	-2.7039801E+002
3	0	1.357194783737868E+003	2.4386878E-001	-2.7039093E+002
3	0	1.357694783725237E+003	2.4375601E-001	-2.7036267E+002
3	0	1.358194783712606E+003	2.4363787E-001	-2.7034851E+002
3	0	1.358694783699975E+003	2.4352150E-001	-2.7038742E+002
3	0	1.359194783687344E+003	2.4340172E-001	-2.7038742E+002
3	0	1.359694783674713E+003	2.4325885E-001	-2.7036618E+002
3	0	1.360194783662082E+003	2.4310535E-001	-2.7039093E+002
3	0	1.360694783649451E+003	2.4298759E-001	-2.7038385E+002
3	0	1.361194783636820E+003	2.4288490E-001	-2.7036618E+002
3	0	1.361694783624189E+003	2.4278575E-001	-2.7038385E+002
3	0	1.362194783611558E+003	2.4268134E-001	-2.7038385E+002
3	0	1.362694783598927E+003	2.4257790E-001	-2.7039801E+002
3	0	1.363194783586296E+003	2.4245656E-001	-2.7038385E+002
3	0	1.363694783573665E+003	2.4231903E-001	-2.7038031E+002
3	0	1.364194783561034E+003	2.4217238E-001	-2.7039801E+002
3	0	1.364694783548402E+003	2.4206205E-001	-2.7035913E+002
3	0	1.365194783535771E+003	2.4196334E-001	-2.7039093E+002
3	0	1.365694783523140E+003	2.4186270E-001	-2.7035913E+002
3	0	1.366194783510509E+003	2.4175772E-001	-2.7037326E+002
3	0	1.366694783497878E+003	2.4165212E-001	-2.7037326E+002
3	0	1.367194783485247E+003	2.4153678E-001	-2.7035205E+002
3	0	1.367694783472616E+003	2.4140389E-001	-2.7036972E+002
3	0	1.368194783459985E+003	2.4125548E-001	-2.7038742E+002
3	0	1.368694783447354E+003	2.4114212E-001	-2.7038385E+002
3	0	1.369194783434723E+003	2.4104987E-001	-2.7035913E+002
3	0	1.369694783422092E+003	2.4095379E-001	-2.7036972E+002
3	0	1.370194783409461E+003	2.4085657E-001	-2.7035913E+002
3	0	1.370694783396830E+003	2.4075851E-001	-2.7038385E+002
3	0	1.371194783384199E+003	2.4065150E-001	-2.7038031E+002
3	0	1.371694783371568E+003	2.4052560E-001	-2.7036972E+002
3	0	1.372194783358937E+003	2.4038416E-001	-2.7038031E+002
3	0	1.372694783346305E+003	2.4028140E-001	-2.7036267E+002
3	0	1.373194783333674E+003	2.4020319E-001	-2.7038031E+002
3	0	1.373694783321043E+003	2.4012002E-001	-2.7039447E+002
3	0	1.374194783308412E+003	2.4003339E-001	-2.7039093E+002
3	0	1.374694783295781E+003	2.3994191E-001	-2.7038385E+002
3	0	1.375194783283150E+003	2.3984659E-001	-2.7036618E+002
3	0	1.375694783270519E+003	2.3972906E-001	-2.7039801E+002
3	0	1.376194783257888E+003	2.3959789E-001	-2.7038742E+002
3	0	1.376694783245257E+003	2.3950185E-001	-2.7038385E+002
3	0	1.377194783232626E+003	2.3942460E-001	-2.7039801E+002
3	0	1.377694783219995E+003	2.3934041E-001	-2.7038385E+002
3	0	1.378194783207364E+003	2.3926055E-001	-2.7036972E+002
3	0	1.378694783194733E+003	2.3917730E-001	-2.7039093E+002
3	0	1.379194783182102E+003	2.3908830E-001	-2.7038742E+002
3	0	1.379694783169471E+003	2.3897913E-001	-2.7039093E+002
3	0	1.380194783156840E+003	2.3885754E-001	-2.7036972E+002
3	0	1.380694783144208E+003	2.3876905E-001	-2.7041568E+002
3	0	1.381194783131577E+003	2.3870037E-001	-2.7038742E+002
3	0	1.381694783118946E+003	2.3862466E-001	-2.7037677E+002
3	0	1.382194783106315E+003	2.3854156E-001	-2.7039093E+002
3	0	1.382694783093684E+003	2.3846622E-001	-2.7037326E+002
3	0	1.383194783081053E+003	2.3837413E-001	-2.7035559E+002
3	0	1.383694783068422E+003	2.3827527E-001	-2.7039093E+002
3	0	1.384194783055791E+003	2.3815259E-001	-2.7038031E+002
3	0	1.384694783043160E+003	2.3807091E-001	-2.7036972E+002
3	0	1.385194783030529E+003	2.3800538E-001	-2.7036267E+002
3	0	1.385694783017898E+003	2.3793471E-001	-2.7037677E+002
3	0	1.386194783005267E+003	2.3786072E-001	-2.7035559E+002
3	0	1.386694782992636E+003	2.3778534E-001	-2.7038742E+002
3	0	1.387194782980005E+003	2.3769435E-001	-2.7039093E+002
3	0	1.387694782967374E+003	2.3758417E-001	-2.7036267E+002
3	0	1.387719382966752E+003	2.3751985E-001	-2.7040860E+002