EC-Lab ASCII FILE
Nb header lines : 55                          

Open Circuit Voltage

Run on channel : 1 (SN 81504)
User : 
CE vs. WE compliance from -10 V to 10 V
Electrode connection : standard
Potential control : Ewe
Ewe ctrl range : min = -2.50 V, max = 2.50 V
Safety Limits :
	Do not start on E overload
Acquisition started on : 05/07/2026 22:17:50.137
Loaded Setting File :  C:\PEM-WE_measurements\2026\372_IV_IV IrOx, 5 min Pt, 30 min C, etched cathode\new station\Loopeis new\1,46 V different time gaps open cell\Loopeis 1,46V_120s_5_PEIS from 65Hz to 10Hz.mps
Saved on :
	File : L_25_Loopeis 1,46V_120s_5_PEIS from 65Hz to 10Hz_04_OCV_C01.mpr
	Directory : C:\PEM-WE_measurements\2026\372_IV_IV IrOx, 5 min Pt, 30 min C, etched cathode\new station\Loopeis new\1,46 V different time gaps open cell\
	Host : 192.168.0.2
Device : SP-150e (SN .005491)
Address : 192.168.0.91
EC-LAB for windows v11.71 (software)
Internet server v28.00 (firmware)
Command interpretor v14.01 (firmware)
Electrode material : 
Initial state : 
Electrolyte : 
Comments : 
Current amplifier : SP-150eB-20A
Electrode surface area : 0.001 cm²
Characteristic mass : 0.001 g
Equivalent Weight : 0.000 g/eq.
Density : 0.000 g/cm3
Volume (V) : 0.001 cm³
Record Analogic IN 1
Text export
   Mode : Standard
   Time format : Elapsed
Cycle Definition : Charge/Discharge alternance
External device configuration :
   device type : Temperature Probe
   device name : Other
   Analog IN 1 : 
      unit : T/Â°C
      max : 100.000 at 2.000 V
      min : 0.000 at 1.460 V
tR (h:m:s)          0:02:0.0000         
dER/dt (mV/h)       1.0                 
record              <Ewe>               
dER (mV)            10.00               
dtR (s)             0.5000              
E range min (V)     -2.500              
E range max (V)     2.500               

mode	error	time/s	<Ewe/V>	Analog IN 1/V	
3	0	2.754656010438339E+002	1.2432275E+000	-2.7038742E+002
3	0	2.759656010312028E+002	1.2242169E+000	-2.7037677E+002
3	0	2.764656010185718E+002	1.0764931E+000	-2.7039447E+002
3	0	2.769656010059407E+002	5.8992285E-001	-2.7037326E+002
3	0	2.774656009933096E+002	3.7546578E-001	-2.7035559E+002
3	0	2.779656009806786E+002	3.4609357E-001	-2.7035913E+002
3	0	2.784656009680475E+002	3.3661929E-001	-2.7036267E+002
3	0	2.789656009554164E+002	3.2931179E-001	-2.7036267E+002
3	0	2.794656009427854E+002	3.2381302E-001	-2.7037677E+002
3	0	2.799656009301543E+002	3.1968367E-001	-2.7036972E+002
3	0	2.804656009175233E+002	3.1651640E-001	-2.7036618E+002
3	0	2.809656009048922E+002	3.1400263E-001	-2.7037326E+002
3	0	2.814656008922611E+002	3.1199455E-001	-2.7036618E+002
3	0	2.819656008796301E+002	3.1031451E-001	-2.7036267E+002
3	0	2.824656008669990E+002	3.0887222E-001	-2.7038385E+002
3	0	2.829656008543679E+002	3.0762523E-001	-2.7037677E+002
3	0	2.834656008417369E+002	3.0650032E-001	-2.7036972E+002
3	0	2.839656008291058E+002	3.0547303E-001	-2.7038742E+002
3	0	2.844656008164748E+002	3.0451241E-001	-2.7036972E+002
3	0	2.849656008038437E+002	3.0361518E-001	-2.7038742E+002
3	0	2.854656007912126E+002	3.0280614E-001	-2.7036267E+002
3	0	2.859656007785816E+002	3.0204856E-001	-2.7038742E+002
3	0	2.864656007659505E+002	3.0131775E-001	-2.7037326E+002
3	0	2.869656007533195E+002	3.0062369E-001	-2.7038031E+002
3	0	2.874656007406884E+002	2.9995224E-001	-2.7040155E+002
3	0	2.879656007280573E+002	2.9929140E-001	-2.7037677E+002
3	0	2.884656007154263E+002	2.9863295E-001	-2.7037326E+002
3	0	2.889656007027952E+002	2.9797807E-001	-2.7036972E+002
3	0	2.894656006901641E+002	2.9737231E-001	-2.7040155E+002
3	0	2.899656006775331E+002	2.9677606E-001	-2.7039093E+002
3	0	2.904656006649020E+002	2.9618752E-001	-2.7036267E+002
3	0	2.909656006522710E+002	2.9561517E-001	-2.7038742E+002
3	0	2.914656006396399E+002	2.9505140E-001	-2.7037677E+002
3	0	2.919656006270088E+002	2.9448241E-001	-2.7038031E+002
3	0	2.924656006143778E+002	2.9390272E-001	-2.7040155E+002
3	0	2.929656006017467E+002	2.9332712E-001	-2.7035559E+002
3	0	2.934656005891156E+002	2.9278830E-001	-2.7040155E+002
3	0	2.939656005764846E+002	2.9225263E-001	-2.7037326E+002
3	0	2.944656005638535E+002	2.9172894E-001	-2.7036267E+002
3	0	2.949656005512225E+002	2.9120824E-001	-2.7037677E+002
3	0	2.954656005385914E+002	2.9069266E-001	-2.7035205E+002
3	0	2.959656005259603E+002	2.9016450E-001	-2.7040155E+002
3	0	2.964656005133293E+002	2.8962615E-001	-2.7038742E+002
3	0	2.969656005006982E+002	2.8909323E-001	-2.7037677E+002
3	0	2.974656004880671E+002	2.8860375E-001	-2.7037326E+002
3	0	2.979656004754361E+002	2.8810790E-001	-2.7038385E+002
3	0	2.984656004628050E+002	2.8761333E-001	-2.7036972E+002
3	0	2.989656004501740E+002	2.8713274E-001	-2.7036972E+002
3	0	2.994656004375429E+002	2.8665304E-001	-2.7038031E+002
3	0	2.999656004249118E+002	2.8616357E-001	-2.7037326E+002
3	0	3.004656004122808E+002	2.8566048E-001	-2.7038742E+002
3	0	3.009656003996497E+002	2.8516144E-001	-2.7037677E+002
3	0	3.014656003870186E+002	2.8469938E-001	-2.7037677E+002
3	0	3.019656003743876E+002	2.8423515E-001	-2.7036267E+002
3	0	3.024656003617565E+002	2.8377277E-001	-2.7039093E+002
3	0	3.029656003491255E+002	2.8332278E-001	-2.7039801E+002
3	0	3.034656003364944E+002	2.8287205E-001	-2.7037677E+002
3	0	3.039656003238633E+002	2.8241679E-001	-2.7038385E+002
3	0	3.044656003112323E+002	2.8194878E-001	-2.7038385E+002
3	0	3.049656002986012E+002	2.8147870E-001	-2.7039801E+002
3	0	3.054656002859701E+002	2.8105658E-001	-2.7040155E+002
3	0	3.059656002733391E+002	2.8063121E-001	-2.7039093E+002
3	0	3.064656002607080E+002	2.8021330E-001	-2.7041568E+002
3	0	3.069656002480770E+002	2.7980027E-001	-2.7036618E+002
3	0	3.074656002354459E+002	2.7937371E-001	-2.7038031E+002
3	0	3.079656002228148E+002	2.7892992E-001	-2.7037677E+002
3	0	3.084656002101838E+002	2.7851048E-001	-2.7035205E+002
3	0	3.089656001975527E+002	2.7810115E-001	-2.7036972E+002
3	0	3.094656001849216E+002	2.7772215E-001	-2.7037677E+002
3	0	3.099656001722906E+002	2.7734342E-001	-2.7034851E+002
3	0	3.104656001596595E+002	2.7696386E-001	-2.7039093E+002
3	0	3.109656001470285E+002	2.7658445E-001	-2.7039447E+002
3	0	3.114656001343974E+002	2.7619979E-001	-2.7038385E+002
3	0	3.119656001217663E+002	2.7580729E-001	-2.7036618E+002
3	0	3.124656001091353E+002	2.7539226E-001	-2.7036972E+002
3	0	3.129656000965042E+002	2.7499002E-001	-2.7035913E+002
3	0	3.134656000838731E+002	2.7463722E-001	-2.7038031E+002
3	0	3.139656000712421E+002	2.7429220E-001	-2.7038742E+002
3	0	3.144656000586110E+002	2.7393371E-001	-2.7035913E+002
3	0	3.149656000459800E+002	2.7358174E-001	-2.7039447E+002
3	0	3.154656000333489E+002	2.7322489E-001	-2.7037677E+002
3	0	3.159656000207178E+002	2.7285674E-001	-2.7036972E+002
3	0	3.164656000080868E+002	2.7248591E-001	-2.7038385E+002
3	0	3.169655999954557E+002	2.7211592E-001	-2.7037677E+002
3	0	3.174655999828246E+002	2.7178892E-001	-2.7039801E+002
3	0	3.179655999701936E+002	2.7146086E-001	-2.7039093E+002
3	0	3.184655999575625E+002	2.7113837E-001	-2.7036972E+002
3	0	3.189655999449315E+002	2.7082071E-001	-2.7038385E+002
3	0	3.194655999323004E+002	2.7049965E-001	-2.7036267E+002
3	0	3.199655999196693E+002	2.7016017E-001	-2.7037326E+002
3	0	3.204655999070383E+002	2.6980892E-001	-2.7039801E+002
3	0	3.209655998944072E+002	2.6947123E-001	-2.7038742E+002
3	0	3.214655998817761E+002	2.6917309E-001	-2.7037326E+002
3	0	3.219655998691451E+002	2.6887712E-001	-2.7034851E+002
3	0	3.224655998565140E+002	2.6857889E-001	-2.7036618E+002
3	0	3.229655998438830E+002	2.6828456E-001	-2.7040506E+002
3	0	3.234655998312519E+002	2.6799065E-001	-2.7038031E+002
3	0	3.239655998186208E+002	2.6768535E-001	-2.7038385E+002
3	0	3.244655998059898E+002	2.6735830E-001	-2.7038031E+002
3	0	3.249655997933587E+002	2.6704833E-001	-2.7036972E+002
3	0	3.254655997807276E+002	2.6677716E-001	-2.7039093E+002
3	0	3.259655997680966E+002	2.6651442E-001	-2.7036972E+002
3	0	3.264655997554655E+002	2.6623929E-001	-2.7038031E+002
3	0	3.269655997428345E+002	2.6597530E-001	-2.7037326E+002
3	0	3.274655997302034E+002	2.6570719E-001	-2.7037677E+002
3	0	3.279655997175723E+002	2.6543212E-001	-2.7039801E+002
3	0	3.284655997049413E+002	2.6513788E-001	-2.7040506E+002
3	0	3.289655996923102E+002	2.6484671E-001	-2.7036618E+002
3	0	3.294655996796791E+002	2.6460814E-001	-2.7039801E+002
3	0	3.299655996670481E+002	2.6437473E-001	-2.7036267E+002
3	0	3.304655996544170E+002	2.6413020E-001	-2.7038385E+002
3	0	3.309655996417860E+002	2.6388994E-001	-2.7038031E+002
3	0	3.314655996291549E+002	2.6364672E-001	-2.7039093E+002
3	0	3.319655996165238E+002	2.6338714E-001	-2.7035913E+002
3	0	3.324655996038928E+002	2.6311359E-001	-2.7037326E+002
3	0	3.329655995912617E+002	2.6284298E-001	-2.7036972E+002
3	0	3.334655995786306E+002	2.6262376E-001	-2.7040506E+002
3	0	3.339655995659996E+002	2.6240313E-001	-2.7036972E+002
3	0	3.344655995533685E+002	2.6218402E-001	-2.7036972E+002
3	0	3.349655995407375E+002	2.6196572E-001	-2.7038385E+002
3	0	3.354655995281064E+002	2.6174107E-001	-2.7038742E+002
3	0	3.359655995154753E+002	2.6150036E-001	-2.7036972E+002
3	0	3.364655995028443E+002	2.6124769E-001	-2.7037677E+002
3	0	3.369655994902132E+002	2.6100451E-001	-2.7036267E+002
3	0	3.374655994775821E+002	2.6080221E-001	-2.7039093E+002
3	0	3.379655994649511E+002	2.6060396E-001	-2.7038385E+002
3	0	3.384655994523200E+002	2.6039881E-001	-2.7037677E+002
3	0	3.389655994396890E+002	2.6019871E-001	-2.7037326E+002
3	0	3.394655994270579E+002	2.5999609E-001	-2.7039447E+002
3	0	3.399655994144268E+002	2.5977919E-001	-2.7038385E+002
3	0	3.404655994017958E+002	2.5954351E-001	-2.7038742E+002
3	0	3.409655993891647E+002	2.5930715E-001	-2.7037326E+002
3	0	3.414655993765336E+002	2.5912333E-001	-2.7036267E+002
3	0	3.419655993639026E+002	2.5893742E-001	-2.7035559E+002
3	0	3.424655993512715E+002	2.5874782E-001	-2.7037677E+002
3	0	3.429655993386405E+002	2.5856242E-001	-2.7038742E+002
3	0	3.434655993260094E+002	2.5837582E-001	-2.7036267E+002
3	0	3.439655993133783E+002	2.5817209E-001	-2.7038742E+002
3	0	3.444655993007473E+002	2.5794882E-001	-2.7036972E+002
3	0	3.449655992881162E+002	2.5774211E-001	-2.7038385E+002
3	0	3.454655992754851E+002	2.5756311E-001	-2.7037677E+002
3	0	3.459655992628541E+002	2.5739992E-001	-2.7037677E+002
3	0	3.464655992502230E+002	2.5723052E-001	-2.7037326E+002
3	0	3.469655992375920E+002	2.5706133E-001	-2.7038031E+002
3	0	3.474655992249609E+002	2.5690037E-001	-2.7037677E+002
3	0	3.479655992123298E+002	2.5671938E-001	-2.7038385E+002
3	0	3.484655991996988E+002	2.5651425E-001	-2.7041214E+002
3	0	3.489655991870677E+002	2.5632063E-001	-2.7040155E+002
3	0	3.494655991744366E+002	2.5616363E-001	-2.7036618E+002
3	0	3.499655991618056E+002	2.5601378E-001	-2.7041214E+002
3	0	3.504655991491745E+002	2.5585973E-001	-2.7041568E+002
3	0	3.509655991365435E+002	2.5570327E-001	-2.7034851E+002
3	0	3.514655991239124E+002	2.5554740E-001	-2.7037677E+002
3	0	3.519655991112813E+002	2.5537655E-001	-2.7039093E+002
3	0	3.524655990986503E+002	2.5518769E-001	-2.7038742E+002
3	0	3.529655990860192E+002	2.5500226E-001	-2.7039093E+002
3	0	3.534655990733881E+002	2.5486603E-001	-2.7038031E+002
3	0	3.539655990607571E+002	2.5473297E-001	-2.7040506E+002
3	0	3.544655990481260E+002	2.5459260E-001	-2.7039447E+002
3	0	3.549655990354950E+002	2.5445452E-001	-2.7035205E+002
3	0	3.554655990228639E+002	2.5431278E-001	-2.7039447E+002
3	0	3.559655990102328E+002	2.5414744E-001	-2.7038031E+002
3	0	3.564655989976018E+002	2.5396347E-001	-2.7036618E+002
3	0	3.569655989849707E+002	2.5378355E-001	-2.7037677E+002
3	0	3.574655989723396E+002	2.5365087E-001	-2.7036267E+002
3	0	3.579655989597086E+002	2.5352237E-001	-2.7037677E+002
3	0	3.584655989470775E+002	2.5338468E-001	-2.7038742E+002
3	0	3.589655989344465E+002	2.5324753E-001	-2.7038031E+002
3	0	3.594655989218154E+002	2.5311473E-001	-2.7038385E+002
3	0	3.599655989091843E+002	2.5296217E-001	-2.7037326E+002
3	0	3.604655988965533E+002	2.5278711E-001	-2.7039801E+002
3	0	3.609655988839222E+002	2.5261119E-001	-2.7038385E+002
3	0	3.614655988712911E+002	2.5248882E-001	-2.7038385E+002
3	0	3.619655988586601E+002	2.5236818E-001	-2.7037326E+002
3	0	3.624655988460290E+002	2.5224239E-001	-2.7035559E+002
3	0	3.629655988333980E+002	2.5211015E-001	-2.7035559E+002
3	0	3.634655988207669E+002	2.5198305E-001	-2.7039447E+002
3	0	3.639655988081358E+002	2.5183541E-001	-2.7037326E+002
3	0	3.644655987955048E+002	2.5167355E-001	-2.7039801E+002
3	0	3.649655987828737E+002	2.5150642E-001	-2.7038385E+002
3	0	3.654655987702427E+002	2.5139129E-001	-2.7036972E+002
3	0	3.659655987576116E+002	2.5128871E-001	-2.7035913E+002
3	0	3.664655987449805E+002	2.5117663E-001	-2.7038742E+002
3	0	3.669655987323495E+002	2.5106424E-001	-2.7035913E+002
3	0	3.674655987197184E+002	2.5094983E-001	-2.7038385E+002
3	0	3.679655987070873E+002	2.5081968E-001	-2.7038031E+002
3	0	3.684655986944563E+002	2.5066298E-001	-2.7038031E+002
3	0	3.689655986818252E+002	2.5051436E-001	-2.7035913E+002
3	0	3.694655986691942E+002	2.5041291E-001	-2.7039093E+002
3	0	3.699655986565631E+002	2.5031191E-001	-2.7036618E+002
3	0	3.704655986439320E+002	2.5020856E-001	-2.7039801E+002
3	0	3.709655986313010E+002	2.5009939E-001	-2.7036267E+002
3	0	3.714655986186699E+002	2.4999374E-001	-2.7037677E+002
3	0	3.719655986060388E+002	2.4987379E-001	-2.7035559E+002
3	0	3.724655985934078E+002	2.4973354E-001	-2.7038385E+002
3	0	3.729655985807767E+002	2.4959622E-001	-2.7040155E+002
3	0	3.734655985681457E+002	2.4950387E-001	-2.7039093E+002
3	0	3.739655985555146E+002	2.4941312E-001	-2.7040506E+002
3	0	3.744655985428835E+002	2.4931903E-001	-2.7038742E+002
3	0	3.749655985302525E+002	2.4922149E-001	-2.7037677E+002
3	0	3.754655985176214E+002	2.4911684E-001	-2.7038385E+002
3	0	3.759655985049903E+002	2.4899833E-001	-2.7036972E+002
3	0	3.764655984923593E+002	2.4885936E-001	-2.7037677E+002
3	0	3.769655984797282E+002	2.4872269E-001	-2.7037677E+002
3	0	3.774655984670972E+002	2.4863544E-001	-2.7040155E+002
3	0	3.779655984544661E+002	2.4855496E-001	-2.7037326E+002
3	0	3.784655984418350E+002	2.4846232E-001	-2.7037326E+002
3	0	3.789655984292040E+002	2.4837181E-001	-2.7039447E+002
3	0	3.794655984165729E+002	2.4827322E-001	-2.7036618E+002
3	0	3.799655984039418E+002	2.4816534E-001	-2.7038742E+002
3	0	3.804655983913108E+002	2.4803378E-001	-2.7039801E+002
3	0	3.809655983786797E+002	2.4790336E-001	-2.7038385E+002
3	0	3.814655983660487E+002	2.4781546E-001	-2.7036618E+002
3	0	3.819655983534176E+002	2.4773395E-001	-2.7038385E+002
3	0	3.824655983407865E+002	2.4763981E-001	-2.7040506E+002
3	0	3.829655983281555E+002	2.4755308E-001	-2.7036972E+002
3	0	3.834655983155244E+002	2.4746610E-001	-2.7036267E+002
3	0	3.839655983028933E+002	2.4735904E-001	-2.7036972E+002
3	0	3.844655982902623E+002	2.4723271E-001	-2.7036267E+002
3	0	3.849655982776312E+002	2.4709959E-001	-2.7038742E+002
3	0	3.854655982650002E+002	2.4702176E-001	-2.7038385E+002
3	0	3.859655982523691E+002	2.4694991E-001	-2.7036618E+002
3	0	3.864655982397380E+002	2.4686356E-001	-2.7038385E+002
3	0	3.869655982271070E+002	2.4678467E-001	-2.7038031E+002
3	0	3.874655982144759E+002	2.4670213E-001	-2.7038031E+002
3	0	3.879655982018448E+002	2.4660912E-001	-2.7036618E+002
3	0	3.884655981892138E+002	2.4648449E-001	-2.7038385E+002
3	0	3.889655981765827E+002	2.4636969E-001	-2.7036618E+002
3	0	3.894655981639517E+002	2.4630125E-001	-2.7036618E+002
3	0	3.899655981513206E+002	2.4623424E-001	-2.7037677E+002
3	0	3.904655981386895E+002	2.4616081E-001	-2.7038031E+002
3	0	3.909655981260585E+002	2.4608670E-001	-2.7036618E+002
3	0	3.914655981134274E+002	2.4600829E-001	-2.7039447E+002
3	0	3.919655981007963E+002	2.4591438E-001	-2.7039447E+002
3	0	3.924655980881653E+002	2.4579352E-001	-2.7036618E+002
3	0	3.929655980755342E+002	2.4568273E-001	-2.7034497E+002
3	0	3.934655980629032E+002	2.4561615E-001	-2.7038031E+002
3	0	3.939655980502721E+002	2.4555182E-001	-2.7036972E+002
3	0	3.944655980376410E+002	2.4548487E-001	-2.7038742E+002
3	0	3.949655980250100E+002	2.4541099E-001	-2.7038385E+002
3	0	3.949889980244188E+002	2.4536990E-001	-2.7036618E+002