EC-Lab ASCII FILE
Nb header lines : 55                          

Open Circuit Voltage

Run on channel : 1 (SN 81504)
User : 
CE vs. WE compliance from -10 V to 10 V
Electrode connection : standard
Potential control : Ewe
Ewe ctrl range : min = -2.50 V, max = 2.50 V
Safety Limits :
	Do not start on E overload
Acquisition started on : 05/07/2026 22:17:50.137
Loaded Setting File :  C:\PEM-WE_measurements\2026\372_IV_IV IrOx, 5 min Pt, 30 min C, etched cathode\new station\Loopeis new\1,46 V different time gaps open cell\Loopeis 1,46V_120s_5_PEIS from 65Hz to 10Hz.mps
Saved on :
	File : L_25_Loopeis 1,46V_120s_5_PEIS from 65Hz to 10Hz_02_OCV_C01.mpr
	Directory : C:\PEM-WE_measurements\2026\372_IV_IV IrOx, 5 min Pt, 30 min C, etched cathode\new station\Loopeis new\1,46 V different time gaps open cell\
	Host : 192.168.0.2
Device : SP-150e (SN .005491)
Address : 192.168.0.91
EC-LAB for windows v11.71 (software)
Internet server v28.00 (firmware)
Command interpretor v14.01 (firmware)
Electrode material : 
Initial state : 
Electrolyte : 
Comments : 
Current amplifier : SP-150eB-20A
Electrode surface area : 0.001 cm²
Characteristic mass : 0.001 g
Equivalent Weight : 0.000 g/eq.
Density : 0.000 g/cm3
Volume (V) : 0.001 cm³
Record Analogic IN 1
Text export
   Mode : Standard
   Time format : Elapsed
Cycle Definition : Charge/Discharge alternance
External device configuration :
   device type : Temperature Probe
   device name : Other
   Analog IN 1 : 
      unit : T/Â°C
      max : 100.000 at 2.000 V
      min : 0.000 at 1.460 V
tR (h:m:s)          0:02:0.0000         
dER/dt (mV/h)       1.0                 
record              <Ewe>               
dER (mV)            10.00               
dtR (s)             0.5000              
E range min (V)     -2.500              
E range max (V)     2.500               

mode	error	time/s	<Ewe/V>	Analog IN 1/V	
3	0	4.549979885057837E+001	1.2392261E+000	-2.7034851E+002
3	0	4.599979883794731E+001	1.2083527E+000	-2.7038742E+002
3	0	4.649979882531625E+001	1.0007128E+000	-2.7037326E+002
3	0	4.699979881268519E+001	5.0846612E-001	-2.7036267E+002
3	0	4.749979880005412E+001	3.5719848E-001	-2.7036972E+002
3	0	4.799979878742306E+001	3.3737117E-001	-2.7041568E+002
3	0	4.849979877479200E+001	3.2872099E-001	-2.7038385E+002
3	0	4.899979876216094E+001	3.2182965E-001	-2.7034851E+002
3	0	4.949979874952987E+001	3.1660172E-001	-2.7037326E+002
3	0	4.999979873689881E+001	3.1265244E-001	-2.7038031E+002
3	0	5.049979872426775E+001	3.0958456E-001	-2.7037677E+002
3	0	5.099979871163669E+001	3.0714086E-001	-2.7038385E+002
3	0	5.149979869900562E+001	3.0513075E-001	-2.7040155E+002
3	0	5.199979868637456E+001	3.0343446E-001	-2.7037677E+002
3	0	5.249979867374350E+001	3.0196872E-001	-2.7037326E+002
3	0	5.299979866111244E+001	3.0065659E-001	-2.7038385E+002
3	0	5.349979864848137E+001	2.9950199E-001	-2.7036972E+002
3	0	5.399979863585031E+001	2.9849565E-001	-2.7038385E+002
3	0	5.449979862321925E+001	2.9756910E-001	-2.7035205E+002
3	0	5.499979861058819E+001	2.9670939E-001	-2.7039093E+002
3	0	5.549979859795712E+001	2.9590175E-001	-2.7041214E+002
3	0	5.599979858532606E+001	2.9513368E-001	-2.7037326E+002
3	0	5.649979857269500E+001	2.9438445E-001	-2.7037326E+002
3	0	5.699979856006394E+001	2.9364344E-001	-2.7037326E+002
3	0	5.749979854743287E+001	2.9295129E-001	-2.7037677E+002
3	0	5.799979853480181E+001	2.9230541E-001	-2.7036972E+002
3	0	5.849979852217075E+001	2.9167551E-001	-2.7036972E+002
3	0	5.899979850953969E+001	2.9105425E-001	-2.7037326E+002
3	0	5.949979849690862E+001	2.9044956E-001	-2.7039093E+002
3	0	5.999979848427756E+001	2.8985617E-001	-2.7039093E+002
3	0	6.049979847164650E+001	2.8925312E-001	-2.7038385E+002
3	0	6.099979845901544E+001	2.8863999E-001	-2.7040506E+002
3	0	6.149979844638438E+001	2.8805521E-001	-2.7038385E+002
3	0	6.199979843375331E+001	2.8749979E-001	-2.7035205E+002
3	0	6.249979842112225E+001	2.8695887E-001	-2.7036972E+002
3	0	6.299979840849119E+001	2.8641629E-001	-2.7037677E+002
3	0	6.349979839586013E+001	2.8589091E-001	-2.7036267E+002
3	0	6.399979838322906E+001	2.8536266E-001	-2.7038385E+002
3	0	6.449979837059800E+001	2.8482562E-001	-2.7039093E+002
3	0	6.499979835796694E+001	2.8427193E-001	-2.7036972E+002
3	0	6.549979834533588E+001	2.8373751E-001	-2.7037326E+002
3	0	6.599979833270481E+001	2.8324336E-001	-2.7036618E+002
3	0	6.649979832007375E+001	2.8275114E-001	-2.7038385E+002
3	0	6.699979830744269E+001	2.8226578E-001	-2.7037326E+002
3	0	6.749979829481163E+001	2.8178293E-001	-2.7038385E+002
3	0	6.799979828218056E+001	2.8128815E-001	-2.7039447E+002
3	0	6.849979826954950E+001	2.8078580E-001	-2.7037326E+002
3	0	6.899979825691844E+001	2.8026739E-001	-2.7038031E+002
3	0	6.949979824428738E+001	2.7978140E-001	-2.7038031E+002
3	0	6.999979823165631E+001	2.7932906E-001	-2.7037677E+002
3	0	7.049979821902525E+001	2.7887133E-001	-2.7037326E+002
3	0	7.099979820639419E+001	2.7841637E-001	-2.7037326E+002
3	0	7.149979819376313E+001	2.7797085E-001	-2.7038031E+002
3	0	7.199979818113206E+001	2.7752465E-001	-2.7039093E+002
3	0	7.249979816850100E+001	2.7705798E-001	-2.7038385E+002
3	0	7.299979815586994E+001	2.7657562E-001	-2.7037326E+002
3	0	7.349979814323888E+001	2.7612117E-001	-2.7038742E+002
3	0	7.399979813060781E+001	2.7569574E-001	-2.7040506E+002
3	0	7.449979811797675E+001	2.7526698E-001	-2.7038385E+002
3	0	7.499979810534569E+001	2.7484456E-001	-2.7035559E+002
3	0	7.549979809271463E+001	2.7443489E-001	-2.7039093E+002
3	0	7.599979808008356E+001	2.7401581E-001	-2.7037677E+002
3	0	7.649979806745250E+001	2.7358758E-001	-2.7037677E+002
3	0	7.699979805482144E+001	2.7314210E-001	-2.7036972E+002
3	0	7.749979804219038E+001	2.7271953E-001	-2.7036972E+002
3	0	7.799979802955932E+001	2.7233472E-001	-2.7036972E+002
3	0	7.849979801692825E+001	2.7195570E-001	-2.7038385E+002
3	0	7.899979800429719E+001	2.7155834E-001	-2.7037326E+002
3	0	7.949979799166613E+001	2.7116987E-001	-2.7039447E+002
3	0	7.999979797903507E+001	2.7077711E-001	-2.7037326E+002
3	0	8.049979796640400E+001	2.7037683E-001	-2.7038385E+002
3	0	8.099979795377294E+001	2.6995918E-001	-2.7035559E+002
3	0	8.149979794114188E+001	2.6957968E-001	-2.7037677E+002
3	0	8.199979792851082E+001	2.6922905E-001	-2.7036618E+002
3	0	8.249979791587975E+001	2.6886827E-001	-2.7039447E+002
3	0	8.299979790324869E+001	2.6851848E-001	-2.7038031E+002
3	0	8.349979789061763E+001	2.6816753E-001	-2.7036267E+002
3	0	8.399979787798657E+001	2.6781532E-001	-2.7039801E+002
3	0	8.449979786535550E+001	2.6744899E-001	-2.7036972E+002
3	0	8.499979785272444E+001	2.6706982E-001	-2.7039801E+002
3	0	8.549979784009338E+001	2.6671836E-001	-2.7035913E+002
3	0	8.599979782746232E+001	2.6639360E-001	-2.7037677E+002
3	0	8.649979781483125E+001	2.6606780E-001	-2.7037677E+002
3	0	8.699979780220019E+001	2.6574394E-001	-2.7036618E+002
3	0	8.749979778956913E+001	2.6541761E-001	-2.7038031E+002
3	0	8.799979777693807E+001	2.6508924E-001	-2.7038031E+002
3	0	8.849979776430700E+001	2.6475197E-001	-2.7037677E+002
3	0	8.899979775167594E+001	2.6440820E-001	-2.7036972E+002
3	0	8.949979773904488E+001	2.6408496E-001	-2.7038742E+002
3	0	8.999979772641382E+001	2.6379204E-001	-2.7037677E+002
3	0	9.049979771378275E+001	2.6349866E-001	-2.7037677E+002
3	0	9.099979770115169E+001	2.6320192E-001	-2.7038031E+002
3	0	9.149979768852063E+001	2.6290229E-001	-2.7037677E+002
3	0	9.199979767588957E+001	2.6260582E-001	-2.7035913E+002
3	0	9.249979766325851E+001	2.6228973E-001	-2.7038031E+002
3	0	9.299979765062744E+001	2.6196265E-001	-2.7037326E+002
3	0	9.349979763799638E+001	2.6166752E-001	-2.7037326E+002
3	0	9.399979762536532E+001	2.6139709E-001	-2.7036267E+002
3	0	9.449979761273426E+001	2.6113224E-001	-2.7039801E+002
3	0	9.499979760010319E+001	2.6086104E-001	-2.7036618E+002
3	0	9.549979758747213E+001	2.6059350E-001	-2.7037677E+002
3	0	9.599979757484107E+001	2.6032490E-001	-2.7038385E+002
3	0	9.649979756221001E+001	2.6003689E-001	-2.7037326E+002
3	0	9.699979754957894E+001	2.5974026E-001	-2.7035559E+002
3	0	9.749979753694788E+001	2.5947571E-001	-2.7040860E+002
3	0	9.799979752431682E+001	2.5923425E-001	-2.7038742E+002
3	0	9.849979751168576E+001	2.5898850E-001	-2.7036267E+002
3	0	9.899979749905469E+001	2.5874120E-001	-2.7038742E+002
3	0	9.949979748642363E+001	2.5849178E-001	-2.7035559E+002
3	0	9.999979747379257E+001	2.5823915E-001	-2.7037326E+002
3	0	1.004997974611615E+002	2.5797227E-001	-2.7038031E+002
3	0	1.009997974485304E+002	2.5769234E-001	-2.7039093E+002
3	0	1.014997974358994E+002	2.5743920E-001	-2.7036972E+002
3	0	1.019997974232683E+002	2.5721413E-001	-2.7038385E+002
3	0	1.024997974106373E+002	2.5699371E-001	-2.7040155E+002
3	0	1.029997973980062E+002	2.5677064E-001	-2.7037326E+002
3	0	1.034997973853751E+002	2.5654674E-001	-2.7038385E+002
3	0	1.039997973727441E+002	2.5632536E-001	-2.7037677E+002
3	0	1.044997973601130E+002	2.5608158E-001	-2.7040860E+002
3	0	1.049997973474819E+002	2.5582272E-001	-2.7036267E+002
3	0	1.054997973348509E+002	2.5559923E-001	-2.7037677E+002
3	0	1.059997973222198E+002	2.5540036E-001	-2.7039801E+002
3	0	1.064997973095888E+002	2.5519490E-001	-2.7037677E+002
3	0	1.069997972969577E+002	2.5498924E-001	-2.7038031E+002
3	0	1.074997972843266E+002	2.5479147E-001	-2.7036267E+002
3	0	1.079997972716956E+002	2.5458679E-001	-2.7035559E+002
3	0	1.084997972590645E+002	2.5435969E-001	-2.7037326E+002
3	0	1.089997972464334E+002	2.5412765E-001	-2.7038385E+002
3	0	1.094997972338024E+002	2.5391698E-001	-2.7036972E+002
3	0	1.099997972211713E+002	2.5373662E-001	-2.7036267E+002
3	0	1.104997972085403E+002	2.5356337E-001	-2.7039093E+002
3	0	1.109997971959092E+002	2.5337496E-001	-2.7037326E+002
3	0	1.114997971832781E+002	2.5318810E-001	-2.7036618E+002
3	0	1.119997971706471E+002	2.5300133E-001	-2.7039801E+002
3	0	1.124997971580160E+002	2.5279620E-001	-2.7037677E+002
3	0	1.129997971453849E+002	2.5257021E-001	-2.7037677E+002
3	0	1.134997971327539E+002	2.5237685E-001	-2.7037326E+002
3	0	1.139997971201228E+002	2.5221342E-001	-2.7038385E+002
3	0	1.144997971074918E+002	2.5204855E-001	-2.7037677E+002
3	0	1.149997970948607E+002	2.5187793E-001	-2.7039801E+002
3	0	1.154997970822296E+002	2.5171205E-001	-2.7036618E+002
3	0	1.159997970695986E+002	2.5154272E-001	-2.7039093E+002
3	0	1.164997970569675E+002	2.5134617E-001	-2.7034851E+002
3	0	1.169997970443364E+002	2.5113869E-001	-2.7038742E+002
3	0	1.174997970317054E+002	2.5095841E-001	-2.7038385E+002
3	0	1.179997970190743E+002	2.5080633E-001	-2.7037677E+002
3	0	1.184997970064433E+002	2.5065404E-001	-2.7035559E+002
3	0	1.189997969938122E+002	2.5050050E-001	-2.7036618E+002
3	0	1.194997969811811E+002	2.5034064E-001	-2.7037326E+002
3	0	1.199997969685501E+002	2.5017875E-001	-2.7038031E+002
3	0	1.204997969559190E+002	2.5000292E-001	-2.7039447E+002
3	0	1.209997969432879E+002	2.4980360E-001	-2.7036972E+002
3	0	1.214997969306569E+002	2.4963064E-001	-2.7038742E+002
3	0	1.219997969180258E+002	2.4948967E-001	-2.7037326E+002
3	0	1.224997969053948E+002	2.4934936E-001	-2.7036267E+002
3	0	1.229997968927637E+002	2.4920622E-001	-2.7038742E+002
3	0	1.234997968801326E+002	2.4906546E-001	-2.7037326E+002
3	0	1.239997968675016E+002	2.4891657E-001	-2.7036972E+002
3	0	1.244997968548705E+002	2.4874762E-001	-2.7038031E+002
3	0	1.249997968422394E+002	2.4856645E-001	-2.7039801E+002
3	0	1.254997968296084E+002	2.4840829E-001	-2.7036618E+002
3	0	1.259997968169773E+002	2.4828397E-001	-2.7038742E+002
3	0	1.264997968043463E+002	2.4815202E-001	-2.7038385E+002
3	0	1.269997967917152E+002	2.4802208E-001	-2.7038742E+002
3	0	1.274997967790841E+002	2.4789904E-001	-2.7036618E+002
3	0	1.279997967664531E+002	2.4775988E-001	-2.7037326E+002
3	0	1.284997967538220E+002	2.4760048E-001	-2.7038742E+002
3	0	1.289997967411909E+002	2.4742346E-001	-2.7038385E+002
3	0	1.294997967285599E+002	2.4727674E-001	-2.7039093E+002
3	0	1.299997967159288E+002	2.4715768E-001	-2.7039093E+002
3	0	1.304997967032978E+002	2.4703193E-001	-2.7036267E+002
3	0	1.309997966906667E+002	2.4691102E-001	-2.7039093E+002
3	0	1.314997966780356E+002	2.4678515E-001	-2.7038385E+002
3	0	1.319997966654046E+002	2.4666283E-001	-2.7038031E+002
3	0	1.324997966527735E+002	2.4651670E-001	-2.7038742E+002
3	0	1.329997966401424E+002	2.4635026E-001	-2.7037326E+002
3	0	1.334997966275114E+002	2.4621363E-001	-2.7036618E+002
3	0	1.339997966148803E+002	2.4610294E-001	-2.7040506E+002
3	0	1.344997966022493E+002	2.4599054E-001	-2.7038385E+002
3	0	1.349997965896182E+002	2.4587989E-001	-2.7037326E+002
3	0	1.354997965769871E+002	2.4576780E-001	-2.7038385E+002
3	0	1.359997965643561E+002	2.4565150E-001	-2.7039447E+002
3	0	1.364997965517250E+002	2.4551578E-001	-2.7036267E+002
3	0	1.369997965390940E+002	2.4536520E-001	-2.7039801E+002
3	0	1.374997965264629E+002	2.4523996E-001	-2.7039447E+002
3	0	1.379997965138318E+002	2.4513710E-001	-2.7037677E+002
3	0	1.384997965012008E+002	2.4503370E-001	-2.7040860E+002
3	0	1.389997964885697E+002	2.4493039E-001	-2.7039447E+002
3	0	1.394997964759386E+002	2.4482301E-001	-2.7034851E+002
3	0	1.399997964633076E+002	2.4470724E-001	-2.7037326E+002
3	0	1.404997964506765E+002	2.4457553E-001	-2.7037677E+002
3	0	1.409997964380455E+002	2.4441855E-001	-2.7036618E+002
3	0	1.414997964254144E+002	2.4429408E-001	-2.7036618E+002
3	0	1.419997964127833E+002	2.4419548E-001	-2.7036618E+002
3	0	1.424997964001523E+002	2.4410123E-001	-2.7040860E+002
3	0	1.429997963875212E+002	2.4400175E-001	-2.7036267E+002
3	0	1.434997963748901E+002	2.4390320E-001	-2.7038742E+002
3	0	1.439997963622591E+002	2.4379764E-001	-2.7039093E+002
3	0	1.444997963496280E+002	2.4367689E-001	-2.7036618E+002
3	0	1.449997963369970E+002	2.4353820E-001	-2.7036267E+002
3	0	1.454997963243659E+002	2.4342787E-001	-2.7036618E+002
3	0	1.459997963117348E+002	2.4334267E-001	-2.7036618E+002
3	0	1.464997962991038E+002	2.4325064E-001	-2.7037677E+002
3	0	1.469997962864727E+002	2.4315253E-001	-2.7038385E+002
3	0	1.474997962738416E+002	2.4305688E-001	-2.7035559E+002
3	0	1.479997962612106E+002	2.4295837E-001	-2.7038385E+002
3	0	1.484997962485795E+002	2.4284002E-001	-2.7035913E+002
3	0	1.489997962359485E+002	2.4270843E-001	-2.7036618E+002
3	0	1.494997962233174E+002	2.4260141E-001	-2.7040155E+002
3	0	1.499997962106863E+002	2.4252418E-001	-2.7036267E+002
3	0	1.504997961980553E+002	2.4244264E-001	-2.7039801E+002
3	0	1.509997961854242E+002	2.4235584E-001	-2.7039447E+002
3	0	1.514997961727931E+002	2.4227376E-001	-2.7038742E+002
3	0	1.519997961601621E+002	2.4217509E-001	-2.7036618E+002
3	0	1.524997961475310E+002	2.4206732E-001	-2.7040860E+002
3	0	1.529997961349000E+002	2.4194486E-001	-2.7038385E+002
3	0	1.534997961222689E+002	2.4184994E-001	-2.7038385E+002
3	0	1.539997961096378E+002	2.4177718E-001	-2.7039801E+002
3	0	1.544997960970068E+002	2.4169940E-001	-2.7038031E+002
3	0	1.549997960843757E+002	2.4162020E-001	-2.7037677E+002
3	0	1.554997960717446E+002	2.4154598E-001	-2.7038742E+002
3	0	1.559997960591136E+002	2.4146485E-001	-2.7040155E+002
3	0	1.564997960464825E+002	2.4136604E-001	-2.7036618E+002
3	0	1.569997960338515E+002	2.4124217E-001	-2.7039801E+002
3	0	1.574997960212204E+002	2.4115145E-001	-2.7036972E+002
3	0	1.579997960085893E+002	2.4108453E-001	-2.7036267E+002
3	0	1.584997959959583E+002	2.4100475E-001	-2.7039447E+002
3	0	1.589997959833272E+002	2.4093381E-001	-2.7038385E+002
3	0	1.594997959706961E+002	2.4086154E-001	-2.7038385E+002
3	0	1.599997959580651E+002	2.4078073E-001	-2.7036267E+002
3	0	1.604997959454340E+002	2.4068217E-001	-2.7037677E+002
3	0	1.609997959328030E+002	2.4055995E-001	-2.7036618E+002
3	0	1.614997959201719E+002	2.4046430E-001	-2.7037677E+002
3	0	1.619997959075408E+002	2.4039724E-001	-2.7036618E+002
3	0	1.624997958949098E+002	2.4032655E-001	-2.7037677E+002
3	0	1.629997958822787E+002	2.4025911E-001	-2.7039093E+002
3	0	1.634997958696476E+002	2.4018775E-001	-2.7038742E+002
3	0	1.639997958570166E+002	2.4011368E-001	-2.7038742E+002
3	0	1.644997958443855E+002	2.4002016E-001	-2.7039093E+002
3	0	1.649997958317545E+002	2.3990574E-001	-2.7038742E+002
3	0	1.650001958317444E+002	2.3989193E-001	-2.7039093E+002