EC-Lab ASCII FILE
Nb header lines : 55                          

Open Circuit Voltage

Run on channel : 1 (SN 81504)
User : 
CE vs. WE compliance from -10 V to 10 V
Electrode connection : standard
Potential control : Ewe
Ewe ctrl range : min = -2.50 V, max = 2.50 V
Safety Limits :
	Do not start on E overload
Acquisition started on : 05/07/2026 22:17:50.137
Loaded Setting File :  C:\PEM-WE_measurements\2026\372_IV_IV IrOx, 5 min Pt, 30 min C, etched cathode\new station\Loopeis new\1,46 V different time gaps open cell\Loopeis 1,46V_120s_5_PEIS from 65Hz to 10Hz.mps
Saved on :
	File : L_25_Loopeis 1,46V_120s_5_PEIS from 65Hz to 10Hz_14_OCV_C01.mpr
	Directory : C:\PEM-WE_measurements\2026\372_IV_IV IrOx, 5 min Pt, 30 min C, etched cathode\new station\Loopeis new\1,46 V different time gaps open cell\
	Host : 192.168.0.2
Device : SP-150e (SN .005491)
Address : 192.168.0.91
EC-LAB for windows v11.71 (software)
Internet server v28.00 (firmware)
Command interpretor v14.01 (firmware)
Electrode material : 
Initial state : 
Electrolyte : 
Comments : 
Current amplifier : SP-150eB-20A
Electrode surface area : 0.001 cm²
Characteristic mass : 0.001 g
Equivalent Weight : 0.000 g/eq.
Density : 0.000 g/cm3
Volume (V) : 0.001 cm³
Record Analogic IN 1
Text export
   Mode : Standard
   Time format : Elapsed
Cycle Definition : Charge/Discharge alternance
External device configuration :
   device type : Temperature Probe
   device name : Other
   Analog IN 1 : 
      unit : T/Â°C
      max : 100.000 at 2.000 V
      min : 0.000 at 1.460 V
tR (h:m:s)          0:02:0.0000         
dER/dt (mV/h)       1.0                 
record              <Ewe>               
dER (mV)            10.00               
dtR (s)             0.5000              
E range min (V)     -2.500              
E range max (V)     2.500               

mode	error	time/s	<Ewe/V>	Analog IN 1/V	
3	0	1.101574186801590E+003	1.2354926E+000	-2.7037326E+002
3	0	1.102074186788959E+003	1.2007120E+000	-2.7039801E+002
3	0	1.102574186776328E+003	9.6262789E-001	-2.7038385E+002
3	0	1.103074186763697E+003	4.8644122E-001	-2.7038031E+002
3	0	1.103574186751066E+003	3.5188836E-001	-2.7038742E+002
3	0	1.104074186738435E+003	3.3439681E-001	-2.7037326E+002
3	0	1.104574186725804E+003	3.2604158E-001	-2.7037326E+002
3	0	1.105074186713173E+003	3.1935135E-001	-2.7038031E+002
3	0	1.105574186700542E+003	3.1425118E-001	-2.7038031E+002
3	0	1.106074186687911E+003	3.1036779E-001	-2.7038742E+002
3	0	1.106574186675280E+003	3.0734530E-001	-2.7040506E+002
3	0	1.107074186662649E+003	3.0492213E-001	-2.7035559E+002
3	0	1.107574186650018E+003	3.0292392E-001	-2.7035205E+002
3	0	1.108074186637386E+003	3.0121797E-001	-2.7038385E+002
3	0	1.108574186624755E+003	2.9975864E-001	-2.7039093E+002
3	0	1.109074186612124E+003	2.9850966E-001	-2.7037326E+002
3	0	1.109574186599493E+003	2.9739791E-001	-2.7039447E+002
3	0	1.110074186586862E+003	2.9638544E-001	-2.7038385E+002
3	0	1.110574186574231E+003	2.9545721E-001	-2.7037677E+002
3	0	1.111074186561600E+003	2.9460070E-001	-2.7039093E+002
3	0	1.111574186548969E+003	2.9377657E-001	-2.7038031E+002
3	0	1.112074186536338E+003	2.9297867E-001	-2.7037677E+002
3	0	1.112574186523707E+003	2.9222175E-001	-2.7038742E+002
3	0	1.113074186511076E+003	2.9151979E-001	-2.7035205E+002
3	0	1.113574186498445E+003	2.9085296E-001	-2.7038031E+002
3	0	1.114074186485814E+003	2.9019985E-001	-2.7036267E+002
3	0	1.114574186473183E+003	2.8957707E-001	-2.7038385E+002
3	0	1.115074186460552E+003	2.8895846E-001	-2.7040155E+002
3	0	1.115574186447921E+003	2.8834850E-001	-2.7037677E+002
3	0	1.116074186435289E+003	2.8771365E-001	-2.7039093E+002
3	0	1.116574186422658E+003	2.8710446E-001	-2.7038742E+002
3	0	1.117074186410027E+003	2.8653243E-001	-2.7038385E+002
3	0	1.117574186397396E+003	2.8597477E-001	-2.7037326E+002
3	0	1.118074186384765E+003	2.8542006E-001	-2.7037677E+002
3	0	1.118574186372134E+003	2.8487155E-001	-2.7038742E+002
3	0	1.119074186359503E+003	2.8433579E-001	-2.7036618E+002
3	0	1.119574186346872E+003	2.8378454E-001	-2.7039447E+002
3	0	1.120074186334241E+003	2.8322020E-001	-2.7039093E+002
3	0	1.120574186321610E+003	2.8266433E-001	-2.7037326E+002
3	0	1.121074186308979E+003	2.8215584E-001	-2.7036972E+002
3	0	1.121574186296348E+003	2.8164735E-001	-2.7038742E+002
3	0	1.122074186283717E+003	2.8114370E-001	-2.7037326E+002
3	0	1.122574186271086E+003	2.8064677E-001	-2.7037326E+002
3	0	1.123074186258455E+003	2.8014612E-001	-2.7039447E+002
3	0	1.123574186245824E+003	2.7963722E-001	-2.7037326E+002
3	0	1.124074186233192E+003	2.7911636E-001	-2.7038385E+002
3	0	1.124574186220561E+003	2.7860883E-001	-2.7033789E+002
3	0	1.125074186207930E+003	2.7813333E-001	-2.7038385E+002
3	0	1.125574186195299E+003	2.7765766E-001	-2.7039447E+002
3	0	1.126074186182668E+003	2.7718642E-001	-2.7035913E+002
3	0	1.126574186170037E+003	2.7672619E-001	-2.7036972E+002
3	0	1.127074186157406E+003	2.7626330E-001	-2.7038031E+002
3	0	1.127574186144775E+003	2.7579427E-001	-2.7037677E+002
3	0	1.128074186132144E+003	2.7530691E-001	-2.7036972E+002
3	0	1.128574186119513E+003	2.7483666E-001	-2.7035913E+002
3	0	1.129074186106882E+003	2.7440718E-001	-2.7038385E+002
3	0	1.129574186094251E+003	2.7397537E-001	-2.7037677E+002
3	0	1.130074186081620E+003	2.7354449E-001	-2.7038031E+002
3	0	1.130574186068989E+003	2.7311087E-001	-2.7034851E+002
3	0	1.131074186056358E+003	2.7268630E-001	-2.7036618E+002
3	0	1.131574186043727E+003	2.7225885E-001	-2.7039093E+002
3	0	1.132074186031095E+003	2.7181259E-001	-2.7039093E+002
3	0	1.132574186018464E+003	2.7137387E-001	-2.7036618E+002
3	0	1.133074186005833E+003	2.7097350E-001	-2.7038385E+002
3	0	1.133574185993202E+003	2.7057880E-001	-2.7036618E+002
3	0	1.134074185980571E+003	2.7017772E-001	-2.7036972E+002
3	0	1.134574185967940E+003	2.6978853E-001	-2.7040155E+002
3	0	1.135074185955309E+003	2.6940832E-001	-2.7037326E+002
3	0	1.135574185942678E+003	2.6899591E-001	-2.7039093E+002
3	0	1.136074185930047E+003	2.6857340E-001	-2.7039093E+002
3	0	1.136574185917416E+003	2.6817197E-001	-2.7037677E+002
3	0	1.137074185904785E+003	2.6780224E-001	-2.7036267E+002
3	0	1.137574185892154E+003	2.6743507E-001	-2.7040155E+002
3	0	1.138074185879523E+003	2.6706964E-001	-2.7036618E+002
3	0	1.138574185866892E+003	2.6670477E-001	-2.7039093E+002
3	0	1.139074185854261E+003	2.6634538E-001	-2.7039447E+002
3	0	1.139574185841630E+003	2.6597309E-001	-2.7036618E+002
3	0	1.140074185828998E+003	2.6558954E-001	-2.7036267E+002
3	0	1.140574185816367E+003	2.6521426E-001	-2.7039447E+002
3	0	1.141074185803736E+003	2.6487947E-001	-2.7036972E+002
3	0	1.141574185791105E+003	2.6455438E-001	-2.7037326E+002
3	0	1.142074185778474E+003	2.6421639E-001	-2.7038385E+002
3	0	1.142574185765843E+003	2.6388842E-001	-2.7039093E+002
3	0	1.143074185753212E+003	2.6356030E-001	-2.7039801E+002
3	0	1.143574185740581E+003	2.6322052E-001	-2.7036972E+002
3	0	1.144074185727950E+003	2.6286215E-001	-2.7038385E+002
3	0	1.144574185715319E+003	2.6251683E-001	-2.7038031E+002
3	0	1.145074185702688E+003	2.6220340E-001	-2.7037677E+002
3	0	1.145574185690057E+003	2.6189315E-001	-2.7036267E+002
3	0	1.146074185677426E+003	2.6158458E-001	-2.7038385E+002
3	0	1.146574185664795E+003	2.6128212E-001	-2.7035913E+002
3	0	1.147074185652164E+003	2.6097116E-001	-2.7035913E+002
3	0	1.147574185639533E+003	2.6065078E-001	-2.7038385E+002
3	0	1.148074185626901E+003	2.6031616E-001	-2.7037326E+002
3	0	1.148574185614270E+003	2.5999847E-001	-2.7039447E+002
3	0	1.149074185601639E+003	2.5971842E-001	-2.7038385E+002
3	0	1.149574185589008E+003	2.5944179E-001	-2.7036267E+002
3	0	1.150074185576377E+003	2.5916359E-001	-2.7037677E+002
3	0	1.150574185563746E+003	2.5888962E-001	-2.7039447E+002
3	0	1.151074185551115E+003	2.5861233E-001	-2.7035559E+002
3	0	1.151574185538484E+003	2.5832149E-001	-2.7037326E+002
3	0	1.152074185525853E+003	2.5802201E-001	-2.7038031E+002
3	0	1.152574185513222E+003	2.5773075E-001	-2.7038031E+002
3	0	1.153074185500591E+003	2.5747472E-001	-2.7038742E+002
3	0	1.153574185487960E+003	2.5721925E-001	-2.7034851E+002
3	0	1.154074185475329E+003	2.5696358E-001	-2.7038742E+002
3	0	1.154574185462698E+003	2.5671166E-001	-2.7035205E+002
3	0	1.155074185450067E+003	2.5645489E-001	-2.7038742E+002
3	0	1.155574185437436E+003	2.5619137E-001	-2.7036972E+002
3	0	1.156074185424804E+003	2.5590837E-001	-2.7036267E+002
3	0	1.156574185412173E+003	2.5564015E-001	-2.7038031E+002
3	0	1.157074185399542E+003	2.5540954E-001	-2.7038031E+002
3	0	1.157574185386911E+003	2.5517973E-001	-2.7039093E+002
3	0	1.158074185374280E+003	2.5495067E-001	-2.7040155E+002
3	0	1.158574185361649E+003	2.5472233E-001	-2.7036618E+002
3	0	1.159074185349018E+003	2.5449589E-001	-2.7038385E+002
3	0	1.159574185336387E+003	2.5425616E-001	-2.7036267E+002
3	0	1.160074185323756E+003	2.5399813E-001	-2.7036618E+002
3	0	1.160574185311125E+003	2.5374848E-001	-2.7037326E+002
3	0	1.161074185298494E+003	2.5353470E-001	-2.7039801E+002
3	0	1.161574185285863E+003	2.5332215E-001	-2.7038031E+002
3	0	1.162074185273232E+003	2.5311708E-001	-2.7037677E+002
3	0	1.162574185260601E+003	2.5291133E-001	-2.7036267E+002
3	0	1.163074185247970E+003	2.5269583E-001	-2.7036618E+002
3	0	1.163574185235339E+003	2.5246838E-001	-2.7038385E+002
3	0	1.164074185222707E+003	2.5222668E-001	-2.7039447E+002
3	0	1.164574185210076E+003	2.5199208E-001	-2.7035913E+002
3	0	1.165074185197445E+003	2.5179711E-001	-2.7038385E+002
3	0	1.165574185184814E+003	2.5160092E-001	-2.7037326E+002
3	0	1.166074185172183E+003	2.5140560E-001	-2.7039801E+002
3	0	1.166574185159552E+003	2.5121093E-001	-2.7038385E+002
3	0	1.167074185146921E+003	2.5101063E-001	-2.7038031E+002
3	0	1.167574185134290E+003	2.5079909E-001	-2.7037326E+002
3	0	1.168074185121659E+003	2.5056833E-001	-2.7039093E+002
3	0	1.168574185109028E+003	2.5035557E-001	-2.7037677E+002
3	0	1.169074185096397E+003	2.5017595E-001	-2.7036972E+002
3	0	1.169574185083766E+003	2.5000250E-001	-2.7036972E+002
3	0	1.170074185071135E+003	2.4983072E-001	-2.7037677E+002
3	0	1.170574185058504E+003	2.4965824E-001	-2.7040155E+002
3	0	1.171074185045873E+003	2.4947740E-001	-2.7036618E+002
3	0	1.171574185033242E+003	2.4928577E-001	-2.7038385E+002
3	0	1.172074185020610E+003	2.4907364E-001	-2.7036972E+002
3	0	1.172574185007979E+003	2.4887599E-001	-2.7038031E+002
3	0	1.173074184995348E+003	2.4871346E-001	-2.7037326E+002
3	0	1.173574184982717E+003	2.4855085E-001	-2.7038742E+002
3	0	1.174074184970086E+003	2.4839440E-001	-2.7039447E+002
3	0	1.174574184957455E+003	2.4823879E-001	-2.7038742E+002
3	0	1.175074184944824E+003	2.4807642E-001	-2.7035559E+002
3	0	1.175574184932193E+003	2.4789998E-001	-2.7036267E+002
3	0	1.176074184919562E+003	2.4769770E-001	-2.7039801E+002
3	0	1.176574184906931E+003	2.4751788E-001	-2.7039801E+002
3	0	1.177074184894300E+003	2.4736920E-001	-2.7038031E+002
3	0	1.177574184881669E+003	2.4722074E-001	-2.7039093E+002
3	0	1.178074184869038E+003	2.4707682E-001	-2.7040506E+002
3	0	1.178574184856407E+003	2.4692884E-001	-2.7038031E+002
3	0	1.179074184843776E+003	2.4678034E-001	-2.7036618E+002
3	0	1.179574184831145E+003	2.4661590E-001	-2.7038031E+002
3	0	1.180074184818513E+003	2.4643314E-001	-2.7038031E+002
3	0	1.180574184805882E+003	2.4625763E-001	-2.7037326E+002
3	0	1.181074184793251E+003	2.4611703E-001	-2.7036972E+002
3	0	1.181574184780620E+003	2.4598165E-001	-2.7038742E+002
3	0	1.182074184767989E+003	2.4584623E-001	-2.7039093E+002
3	0	1.182574184755358E+003	2.4571124E-001	-2.7041568E+002
3	0	1.183074184742727E+003	2.4557528E-001	-2.7038031E+002
3	0	1.183574184730096E+003	2.4541324E-001	-2.7037326E+002
3	0	1.184074184717465E+003	2.4523598E-001	-2.7037677E+002
3	0	1.184574184704834E+003	2.4507613E-001	-2.7038031E+002
3	0	1.185074184692203E+003	2.4493878E-001	-2.7036618E+002
3	0	1.185574184679572E+003	2.4480431E-001	-2.7039093E+002
3	0	1.186074184666941E+003	2.4466823E-001	-2.7036618E+002
3	0	1.186574184654310E+003	2.4453326E-001	-2.7036618E+002
3	0	1.187074184641679E+003	2.4439725E-001	-2.7036267E+002
3	0	1.187574184629048E+003	2.4424139E-001	-2.7035205E+002
3	0	1.188074184616416E+003	2.4406561E-001	-2.7037677E+002
3	0	1.188574184603785E+003	2.4390550E-001	-2.7038385E+002
3	0	1.189074184591154E+003	2.4378748E-001	-2.7038742E+002
3	0	1.189574184578523E+003	2.4366774E-001	-2.7036618E+002
3	0	1.190074184565892E+003	2.4354847E-001	-2.7038742E+002
3	0	1.190574184553261E+003	2.4342395E-001	-2.7036267E+002
3	0	1.191074184540630E+003	2.4330270E-001	-2.7036618E+002
3	0	1.191574184527999E+003	2.4316503E-001	-2.7039093E+002
3	0	1.192074184515368E+003	2.4300897E-001	-2.7038031E+002
3	0	1.192574184502737E+003	2.4286649E-001	-2.7037326E+002
3	0	1.193074184490106E+003	2.4275899E-001	-2.7039801E+002
3	0	1.193574184477475E+003	2.4265090E-001	-2.7038742E+002
3	0	1.194074184464844E+003	2.4254850E-001	-2.7038031E+002
3	0	1.194574184452213E+003	2.4243525E-001	-2.7036972E+002
3	0	1.195074184439582E+003	2.4231640E-001	-2.7038031E+002
3	0	1.195574184426951E+003	2.4218780E-001	-2.7039093E+002
3	0	1.196074184414319E+003	2.4203548E-001	-2.7038385E+002
3	0	1.196574184401688E+003	2.4190618E-001	-2.7040860E+002
3	0	1.197074184389057E+003	2.4180748E-001	-2.7038742E+002
3	0	1.197574184376426E+003	2.4171093E-001	-2.7034851E+002
3	0	1.198074184363795E+003	2.4160641E-001	-2.7039093E+002
3	0	1.198574184351164E+003	2.4150424E-001	-2.7038031E+002
3	0	1.199074184338533E+003	2.4140190E-001	-2.7038742E+002
3	0	1.199574184325902E+003	2.4127652E-001	-2.7038031E+002
3	0	1.200074184313271E+003	2.4113746E-001	-2.7038385E+002
3	0	1.200574184300640E+003	2.4101195E-001	-2.7038031E+002
3	0	1.201074184288009E+003	2.4092096E-001	-2.7038031E+002
3	0	1.201574184275378E+003	2.4082915E-001	-2.7036972E+002
3	0	1.202074184262747E+003	2.4073368E-001	-2.7039093E+002
3	0	1.202574184250116E+003	2.4063809E-001	-2.7037677E+002
3	0	1.203074184237485E+003	2.4053636E-001	-2.7034851E+002
3	0	1.203574184224854E+003	2.4042122E-001	-2.7037677E+002
3	0	1.204074184212222E+003	2.4028805E-001	-2.7036618E+002
3	0	1.204574184199591E+003	2.4016722E-001	-2.7040860E+002
3	0	1.205074184186960E+003	2.4007994E-001	-2.7036972E+002
3	0	1.205574184174329E+003	2.3999755E-001	-2.7039801E+002
3	0	1.206074184161698E+003	2.3990627E-001	-2.7040506E+002
3	0	1.206574184149067E+003	2.3981598E-001	-2.7039447E+002
3	0	1.207074184136436E+003	2.3971763E-001	-2.7038031E+002
3	0	1.207574184123805E+003	2.3960535E-001	-2.7036972E+002
3	0	1.208074184111174E+003	2.3947184E-001	-2.7038385E+002
3	0	1.208574184098543E+003	2.3935047E-001	-2.7038031E+002
3	0	1.209074184085912E+003	2.3926269E-001	-2.7036618E+002
3	0	1.209574184073281E+003	2.3917466E-001	-2.7038385E+002
3	0	1.210074184060650E+003	2.3909472E-001	-2.7036618E+002
3	0	1.210574184048019E+003	2.3900892E-001	-2.7036618E+002
3	0	1.211074184035388E+003	2.3893102E-001	-2.7036972E+002
3	0	1.211574184022757E+003	2.3882404E-001	-2.7039447E+002
3	0	1.212074184010125E+003	2.3869716E-001	-2.7037326E+002
3	0	1.212574183997494E+003	2.3857930E-001	-2.7036267E+002
3	0	1.213074183984863E+003	2.3850732E-001	-2.7038385E+002
3	0	1.213574183972232E+003	2.3843092E-001	-2.7036972E+002
3	0	1.214074183959601E+003	2.3835859E-001	-2.7039447E+002
3	0	1.214574183946970E+003	2.3828211E-001	-2.7039801E+002
3	0	1.215074183934339E+003	2.3819856E-001	-2.7036972E+002
3	0	1.215574183921708E+003	2.3809916E-001	-2.7038385E+002
3	0	1.216074183909077E+003	2.3798241E-001	-2.7036267E+002
3	0	1.216574183896446E+003	2.3787796E-001	-2.7036972E+002
3	0	1.217074183883815E+003	2.3780839E-001	-2.7037326E+002
3	0	1.217574183871184E+003	2.3773620E-001	-2.7038385E+002
3	0	1.218074183858553E+003	2.3767555E-001	-2.7037326E+002
3	0	1.218574183845922E+003	2.3759955E-001	-2.7038031E+002
3	0	1.219074183833291E+003	2.3752125E-001	-2.7038742E+002
3	0	1.219574183820660E+003	2.3742455E-001	-2.7038742E+002
3	0	1.220074183808028E+003	2.3730911E-001	-2.7035913E+002
3	0	1.220574183795397E+003	2.3720589E-001	-2.7038031E+002
3	0	1.221074183782766E+003	2.3713624E-001	-2.7039093E+002
3	0	1.221074583782756E+003	2.3706752E-001	-2.7036618E+002