EC-Lab ASCII FILE
Nb header lines : 55                          

Open Circuit Voltage

Run on channel : 1 (SN 81504)
User : 
CE vs. WE compliance from -10 V to 10 V
Electrode connection : standard
Potential control : Ewe
Ewe ctrl range : min = -2.50 V, max = 2.50 V
Safety Limits :
	Do not start on E overload
Acquisition started on : 05/07/2026 22:17:50.137
Loaded Setting File :  C:\PEM-WE_measurements\2026\372_IV_IV IrOx, 5 min Pt, 30 min C, etched cathode\new station\Loopeis new\1,46 V different time gaps open cell\Loopeis 1,46V_120s_5_PEIS from 65Hz to 10Hz.mps
Saved on :
	File : L_25_Loopeis 1,46V_120s_5_PEIS from 65Hz to 10Hz_06_OCV_C01.mpr
	Directory : C:\PEM-WE_measurements\2026\372_IV_IV IrOx, 5 min Pt, 30 min C, etched cathode\new station\Loopeis new\1,46 V different time gaps open cell\
	Host : 192.168.0.2
Device : SP-150e (SN .005491)
Address : 192.168.0.91
EC-LAB for windows v11.71 (software)
Internet server v28.00 (firmware)
Command interpretor v14.01 (firmware)
Electrode material : 
Initial state : 
Electrolyte : 
Comments : 
Current amplifier : SP-150eB-20A
Electrode surface area : 0.001 cm²
Characteristic mass : 0.001 g
Equivalent Weight : 0.000 g/eq.
Density : 0.000 g/cm3
Volume (V) : 0.001 cm³
Record Analogic IN 1
Text export
   Mode : Standard
   Time format : Elapsed
Cycle Definition : Charge/Discharge alternance
External device configuration :
   device type : Temperature Probe
   device name : Other
   Analog IN 1 : 
      unit : T/Â°C
      max : 100.000 at 2.000 V
      min : 0.000 at 1.460 V
tR (h:m:s)          0:02:0.0000         
dER/dt (mV/h)       1.0                 
record              <Ewe>               
dER (mV)            10.00               
dtR (s)             0.5000              
E range min (V)     -2.500              
E range max (V)     2.500               

mode	error	time/s	<Ewe/V>	Analog IN 1/V	
3	0	4.404895968749770E+002	1.2365440E+000	-2.7040506E+002
3	0	4.409895968623459E+002	1.2058103E+000	-2.7038742E+002
3	0	4.414895968497149E+002	9.8709065E-001	-2.7040155E+002
3	0	4.419895968370838E+002	4.9958259E-001	-2.7038031E+002
3	0	4.424895968244527E+002	3.5678157E-001	-2.7038031E+002
3	0	4.429895968118217E+002	3.3794117E-001	-2.7037677E+002
3	0	4.434895967991906E+002	3.2926965E-001	-2.7039093E+002
3	0	4.439895967865596E+002	3.2238317E-001	-2.7037677E+002
3	0	4.444895967739285E+002	3.1714502E-001	-2.7039093E+002
3	0	4.449895967612974E+002	3.1316379E-001	-2.7039093E+002
3	0	4.454895967486664E+002	3.1009722E-001	-2.7036618E+002
3	0	4.459895967360353E+002	3.0765852E-001	-2.7040860E+002
3	0	4.464895967234042E+002	3.0564669E-001	-2.7035913E+002
3	0	4.469895967107732E+002	3.0395603E-001	-2.7038385E+002
3	0	4.474895966981421E+002	3.0250764E-001	-2.7038385E+002
3	0	4.479895966855111E+002	3.0122188E-001	-2.7035205E+002
3	0	4.484895966728800E+002	3.0005038E-001	-2.7038031E+002
3	0	4.489895966602489E+002	2.9898295E-001	-2.7038031E+002
3	0	4.494895966476179E+002	2.9804999E-001	-2.7038742E+002
3	0	4.499895966349868E+002	2.9718900E-001	-2.7037677E+002
3	0	4.504895966223557E+002	2.9637656E-001	-2.7038385E+002
3	0	4.509895966097247E+002	2.9560819E-001	-2.7036972E+002
3	0	4.514895965970936E+002	2.9487753E-001	-2.7038742E+002
3	0	4.519895965844626E+002	2.9415986E-001	-2.7038031E+002
3	0	4.524895965718315E+002	2.9344758E-001	-2.7038385E+002
3	0	4.529895965592004E+002	2.9275310E-001	-2.7038031E+002
3	0	4.534895965465694E+002	2.9211852E-001	-2.7037326E+002
3	0	4.539895965339383E+002	2.9150560E-001	-2.7039447E+002
3	0	4.544895965213072E+002	2.9089403E-001	-2.7038742E+002
3	0	4.549895965086762E+002	2.9030582E-001	-2.7038031E+002
3	0	4.554895964960451E+002	2.8972682E-001	-2.7037677E+002
3	0	4.559895964834141E+002	2.8914061E-001	-2.7040506E+002
3	0	4.564895964707830E+002	2.8854367E-001	-2.7040860E+002
3	0	4.569895964581519E+002	2.8794566E-001	-2.7035205E+002
3	0	4.574895964455209E+002	2.8739589E-001	-2.7038385E+002
3	0	4.579895964328898E+002	2.8686327E-001	-2.7039801E+002
3	0	4.584895964202587E+002	2.8632841E-001	-2.7036972E+002
3	0	4.589895964076277E+002	2.8580004E-001	-2.7038742E+002
3	0	4.594895963949966E+002	2.8527877E-001	-2.7038742E+002
3	0	4.599895963823656E+002	2.8474632E-001	-2.7038031E+002
3	0	4.604895963697345E+002	2.8420025E-001	-2.7038031E+002
3	0	4.609895963571034E+002	2.8365153E-001	-2.7038385E+002
3	0	4.614895963444724E+002	2.8315160E-001	-2.7038385E+002
3	0	4.619895963318413E+002	2.8266338E-001	-2.7039093E+002
3	0	4.624895963192103E+002	2.8217965E-001	-2.7039447E+002
3	0	4.629895963065792E+002	2.8168872E-001	-2.7037677E+002
3	0	4.634895962939481E+002	2.8120789E-001	-2.7038742E+002
3	0	4.639895962813171E+002	2.8071544E-001	-2.7038385E+002
3	0	4.644895962686860E+002	2.8020304E-001	-2.7037326E+002
3	0	4.649895962560549E+002	2.7970326E-001	-2.7039093E+002
3	0	4.654895962434239E+002	2.7924255E-001	-2.7036618E+002
3	0	4.659895962307928E+002	2.7879193E-001	-2.7039447E+002
3	0	4.664895962181618E+002	2.7833849E-001	-2.7035913E+002
3	0	4.669895962055307E+002	2.7789116E-001	-2.7036618E+002
3	0	4.674895961928996E+002	2.7744985E-001	-2.7037326E+002
3	0	4.679895961802686E+002	2.7699479E-001	-2.7038385E+002
3	0	4.684895961676375E+002	2.7652201E-001	-2.7040155E+002
3	0	4.689895961550064E+002	2.7605614E-001	-2.7040155E+002
3	0	4.694895961423754E+002	2.7563387E-001	-2.7038031E+002
3	0	4.699895961297443E+002	2.7521944E-001	-2.7035913E+002
3	0	4.704895961171133E+002	2.7480593E-001	-2.7038385E+002
3	0	4.709895961044822E+002	2.7439433E-001	-2.7038742E+002
3	0	4.714895960918511E+002	2.7398133E-001	-2.7037677E+002
3	0	4.719895960792201E+002	2.7356139E-001	-2.7036972E+002
3	0	4.724895960665890E+002	2.7312660E-001	-2.7035913E+002
3	0	4.729895960539579E+002	2.7269378E-001	-2.7038385E+002
3	0	4.734895960413269E+002	2.7231139E-001	-2.7036618E+002
3	0	4.739895960286958E+002	2.7193415E-001	-2.7039093E+002
3	0	4.744895960160648E+002	2.7154565E-001	-2.7036972E+002
3	0	4.749895960034337E+002	2.7116564E-001	-2.7036267E+002
3	0	4.754895959908026E+002	2.7079114E-001	-2.7036972E+002
3	0	4.759895959781716E+002	2.7039552E-001	-2.7039093E+002
3	0	4.764895959655405E+002	2.6998195E-001	-2.7038031E+002
3	0	4.769895959529094E+002	2.6959246E-001	-2.7037677E+002
3	0	4.774895959402784E+002	2.6923966E-001	-2.7038031E+002
3	0	4.779895959276473E+002	2.6888952E-001	-2.7040860E+002
3	0	4.784895959150163E+002	2.6853645E-001	-2.7040860E+002
3	0	4.789895959023852E+002	2.6818869E-001	-2.7040506E+002
3	0	4.794895958897541E+002	2.6784125E-001	-2.7036267E+002
3	0	4.799895958771231E+002	2.6747924E-001	-2.7037326E+002
3	0	4.804895958644920E+002	2.6710618E-001	-2.7040155E+002
3	0	4.809895958518609E+002	2.6673460E-001	-2.7038385E+002
3	0	4.814895958392299E+002	2.6640227E-001	-2.7036618E+002
3	0	4.819895958265988E+002	2.6607999E-001	-2.7040155E+002
3	0	4.824895958139678E+002	2.6575598E-001	-2.7038031E+002
3	0	4.829895958013367E+002	2.6543033E-001	-2.7038385E+002
3	0	4.834895957887056E+002	2.6510802E-001	-2.7036618E+002
3	0	4.839895957760746E+002	2.6477695E-001	-2.7036267E+002
3	0	4.844895957634435E+002	2.6443678E-001	-2.7038385E+002
3	0	4.849895957508124E+002	2.6409313E-001	-2.7039093E+002
3	0	4.854895957381814E+002	2.6379982E-001	-2.7038742E+002
3	0	4.859895957255503E+002	2.6351106E-001	-2.7036972E+002
3	0	4.864895957129193E+002	2.6322219E-001	-2.7036972E+002
3	0	4.869895957002882E+002	2.6292974E-001	-2.7037326E+002
3	0	4.874895956876571E+002	2.6264259E-001	-2.7038742E+002
3	0	4.879895956750261E+002	2.6233763E-001	-2.7038031E+002
3	0	4.884895956623950E+002	2.6201802E-001	-2.7037677E+002
3	0	4.889895956497639E+002	2.6170284E-001	-2.7036972E+002
3	0	4.894895956371329E+002	2.6143062E-001	-2.7037326E+002
3	0	4.899895956245018E+002	2.6116592E-001	-2.7040155E+002
3	0	4.904895956118708E+002	2.6090014E-001	-2.7037326E+002
3	0	4.909895955992397E+002	2.6063651E-001	-2.7039447E+002
3	0	4.914895955866086E+002	2.6037192E-001	-2.7038742E+002
3	0	4.919895955739776E+002	2.6009884E-001	-2.7039801E+002
3	0	4.924895955613465E+002	2.5980768E-001	-2.7036618E+002
3	0	4.929895955487154E+002	2.5952551E-001	-2.7038742E+002
3	0	4.934895955360844E+002	2.5928441E-001	-2.7038385E+002
3	0	4.939895955234533E+002	2.5904390E-001	-2.7041214E+002
3	0	4.944895955108223E+002	2.5880849E-001	-2.7036618E+002
3	0	4.949895954981912E+002	2.5855580E-001	-2.7036267E+002
3	0	4.954895954855601E+002	2.5831467E-001	-2.7035913E+002
3	0	4.959895954729291E+002	2.5806713E-001	-2.7039093E+002
3	0	4.964895954602980E+002	2.5779867E-001	-2.7041214E+002
3	0	4.969895954476669E+002	2.5753036E-001	-2.7036618E+002
3	0	4.974895954350359E+002	2.5730944E-001	-2.7038742E+002
3	0	4.979895954224048E+002	2.5709042E-001	-2.7039093E+002
3	0	4.984895954097738E+002	2.5686869E-001	-2.7037326E+002
3	0	4.989895953971427E+002	2.5665423E-001	-2.7039447E+002
3	0	4.994895953845116E+002	2.5643972E-001	-2.7036972E+002
3	0	4.999895953718806E+002	2.5620824E-001	-2.7038031E+002
3	0	5.004895953592495E+002	2.5595224E-001	-2.7038385E+002
3	0	5.009895953466184E+002	2.5570470E-001	-2.7038031E+002
3	0	5.014895953339874E+002	2.5549650E-001	-2.7040860E+002
3	0	5.019895953213563E+002	2.5529337E-001	-2.7040506E+002
3	0	5.024895953087253E+002	2.5509042E-001	-2.7038031E+002
3	0	5.029895952960942E+002	2.5488698E-001	-2.7038385E+002
3	0	5.034895952834631E+002	2.5468391E-001	-2.7035913E+002
3	0	5.039895952708321E+002	2.5447106E-001	-2.7038385E+002
3	0	5.044895952582010E+002	2.5423515E-001	-2.7039447E+002
3	0	5.049895952455699E+002	2.5400758E-001	-2.7038742E+002
3	0	5.054895952329389E+002	2.5381613E-001	-2.7036618E+002
3	0	5.059895952203078E+002	2.5363922E-001	-2.7039801E+002
3	0	5.064895952076768E+002	2.5345668E-001	-2.7040155E+002
3	0	5.069895951950457E+002	2.5326601E-001	-2.7036267E+002
3	0	5.074895951824146E+002	2.5309068E-001	-2.7037677E+002
3	0	5.079895951697836E+002	2.5289920E-001	-2.7036267E+002
3	0	5.084895951571525E+002	2.5268239E-001	-2.7039447E+002
3	0	5.089895951445214E+002	2.5247502E-001	-2.7038031E+002
3	0	5.094895951318904E+002	2.5230777E-001	-2.7039801E+002
3	0	5.099895951192593E+002	2.5214484E-001	-2.7038385E+002
3	0	5.104895951066283E+002	2.5197667E-001	-2.7037326E+002
3	0	5.109895950939972E+002	2.5181100E-001	-2.7038031E+002
3	0	5.114895950813661E+002	2.5164098E-001	-2.7039093E+002
3	0	5.119895950687351E+002	2.5144777E-001	-2.7038031E+002
3	0	5.124895950561040E+002	2.5123808E-001	-2.7039093E+002
3	0	5.129895950434729E+002	2.5104237E-001	-2.7036618E+002
3	0	5.134895950308419E+002	2.5088263E-001	-2.7036618E+002
3	0	5.139895950182108E+002	2.5072831E-001	-2.7038385E+002
3	0	5.144895950055798E+002	2.5057101E-001	-2.7035913E+002
3	0	5.149895949929487E+002	2.5040835E-001	-2.7036267E+002
3	0	5.154895949803176E+002	2.5024849E-001	-2.7038031E+002
3	0	5.159895949676866E+002	2.5007448E-001	-2.7038031E+002
3	0	5.164895949550555E+002	2.4988043E-001	-2.7038385E+002
3	0	5.169895949424244E+002	2.4969430E-001	-2.7035913E+002
3	0	5.174895949297934E+002	2.4954896E-001	-2.7037677E+002
3	0	5.179895949171623E+002	2.4940623E-001	-2.7036972E+002
3	0	5.184895949045313E+002	2.4926236E-001	-2.7036618E+002
3	0	5.189895948919002E+002	2.4911375E-001	-2.7037326E+002
3	0	5.194895948792691E+002	2.4896391E-001	-2.7040155E+002
3	0	5.199895948666381E+002	2.4880330E-001	-2.7038385E+002
3	0	5.204895948540070E+002	2.4862054E-001	-2.7038385E+002
3	0	5.209895948413759E+002	2.4844867E-001	-2.7037677E+002
3	0	5.214895948287449E+002	2.4831089E-001	-2.7037677E+002
3	0	5.219895948161138E+002	2.4818504E-001	-2.7038031E+002
3	0	5.224895948034828E+002	2.4804427E-001	-2.7036618E+002
3	0	5.229895947908517E+002	2.4791335E-001	-2.7036972E+002
3	0	5.234895947782206E+002	2.4776773E-001	-2.7038385E+002
3	0	5.239895947655896E+002	2.4761824E-001	-2.7040860E+002
3	0	5.244895947529585E+002	2.4744098E-001	-2.7037677E+002
3	0	5.249895947403274E+002	2.4728383E-001	-2.7036267E+002
3	0	5.254895947276964E+002	2.4716040E-001	-2.7038031E+002
3	0	5.259895947150653E+002	2.4703854E-001	-2.7038385E+002
3	0	5.264895947024343E+002	2.4691342E-001	-2.7036972E+002
3	0	5.269895946898032E+002	2.4679027E-001	-2.7037326E+002
3	0	5.274895946771721E+002	2.4667050E-001	-2.7036972E+002
3	0	5.279895946645411E+002	2.4653170E-001	-2.7036267E+002
3	0	5.284895946519100E+002	2.4637558E-001	-2.7034497E+002
3	0	5.289895946392789E+002	2.4622880E-001	-2.7039447E+002
3	0	5.294895946266479E+002	2.4611886E-001	-2.7038031E+002
3	0	5.299895946140168E+002	2.4600925E-001	-2.7036267E+002
3	0	5.304895946013858E+002	2.4589798E-001	-2.7036618E+002
3	0	5.309895945887547E+002	2.4578400E-001	-2.7036972E+002
3	0	5.314895945761236E+002	2.4566790E-001	-2.7037326E+002
3	0	5.319895945634926E+002	2.4554400E-001	-2.7037326E+002
3	0	5.324895945508615E+002	2.4539618E-001	-2.7038742E+002
3	0	5.329895945382304E+002	2.4525458E-001	-2.7036972E+002
3	0	5.334895945255994E+002	2.4515499E-001	-2.7036267E+002
3	0	5.339895945129683E+002	2.4506012E-001	-2.7039447E+002
3	0	5.344895945003373E+002	2.4495983E-001	-2.7036618E+002
3	0	5.349895944877062E+002	2.4485654E-001	-2.7038742E+002
3	0	5.354895944750751E+002	2.4474862E-001	-2.7040506E+002
3	0	5.359895944624441E+002	2.4462618E-001	-2.7037677E+002
3	0	5.364895944498130E+002	2.4448358E-001	-2.7039093E+002
3	0	5.369895944371820E+002	2.4435267E-001	-2.7036972E+002
3	0	5.374895944245509E+002	2.4425462E-001	-2.7038742E+002
3	0	5.379895944119198E+002	2.4416290E-001	-2.7038742E+002
3	0	5.384895943992888E+002	2.4406573E-001	-2.7039093E+002
3	0	5.389895943866577E+002	2.4396814E-001	-2.7039801E+002
3	0	5.394895943740266E+002	2.4386951E-001	-2.7039093E+002
3	0	5.399895943613956E+002	2.4375623E-001	-2.7040155E+002
3	0	5.404895943487645E+002	2.4361396E-001	-2.7037677E+002
3	0	5.409895943361335E+002	2.4348614E-001	-2.7036267E+002
3	0	5.414895943235024E+002	2.4339874E-001	-2.7038742E+002
3	0	5.419895943108713E+002	2.4330749E-001	-2.7036972E+002
3	0	5.424895942982403E+002	2.4321176E-001	-2.7039801E+002
3	0	5.429895942856092E+002	2.4312018E-001	-2.7037326E+002
3	0	5.434895942729781E+002	2.4302340E-001	-2.7039447E+002
3	0	5.439895942603471E+002	2.4290456E-001	-2.7037326E+002
3	0	5.444895942477160E+002	2.4277432E-001	-2.7036972E+002
3	0	5.449895942350850E+002	2.4264711E-001	-2.7038742E+002
3	0	5.454895942224539E+002	2.4256505E-001	-2.7037677E+002
3	0	5.459895942098228E+002	2.4248169E-001	-2.7040506E+002
3	0	5.464895941971918E+002	2.4239974E-001	-2.7037326E+002
3	0	5.469895941845607E+002	2.4231307E-001	-2.7036267E+002
3	0	5.474895941719296E+002	2.4222252E-001	-2.7036267E+002
3	0	5.479895941592986E+002	2.4211891E-001	-2.7035913E+002
3	0	5.484895941466675E+002	2.4199298E-001	-2.7039801E+002
3	0	5.489895941340365E+002	2.4187987E-001	-2.7037326E+002
3	0	5.494895941214054E+002	2.4180248E-001	-2.7037326E+002
3	0	5.499895941087743E+002	2.4172747E-001	-2.7037677E+002
3	0	5.504895940961433E+002	2.4165075E-001	-2.7035559E+002
3	0	5.509895940835122E+002	2.4157186E-001	-2.7037677E+002
3	0	5.514895940708811E+002	2.4149559E-001	-2.7034851E+002
3	0	5.519895940582501E+002	2.4139988E-001	-2.7037677E+002
3	0	5.524895940456190E+002	2.4127933E-001	-2.7037677E+002
3	0	5.529895940329880E+002	2.4116473E-001	-2.7037677E+002
3	0	5.534895940203569E+002	2.4109779E-001	-2.7038385E+002
3	0	5.539895940077258E+002	2.4102961E-001	-2.7038742E+002
3	0	5.544895939950948E+002	2.4095722E-001	-2.7038385E+002
3	0	5.549895939824637E+002	2.4088062E-001	-2.7035913E+002
3	0	5.554895939698326E+002	2.4080528E-001	-2.7038742E+002
3	0	5.559895939572016E+002	2.4070999E-001	-2.7037677E+002
3	0	5.564895939445705E+002	2.4059758E-001	-2.7036972E+002
3	0	5.569895939319395E+002	2.4048983E-001	-2.7036267E+002
3	0	5.574895939193084E+002	2.4042296E-001	-2.7038031E+002
3	0	5.579895939066773E+002	2.4035949E-001	-2.7038385E+002
3	0	5.584895938940463E+002	2.4029706E-001	-2.7039093E+002
3	0	5.589895938814152E+002	2.4022825E-001	-2.7038385E+002
3	0	5.594895938687841E+002	2.4015710E-001	-2.7039801E+002
3	0	5.599895938561531E+002	2.4006666E-001	-2.7037677E+002
3	0	5.599899938561430E+002	2.3995872E-001	-2.7038385E+002