EC-Lab ASCII FILE
Nb header lines : 55                          

Open Circuit Voltage

Run on channel : 1 (SN 81504)
User : 
CE vs. WE compliance from -10 V to 10 V
Electrode connection : standard
Potential control : Ewe
Ewe ctrl range : min = -2.50 V, max = 2.50 V
Safety Limits :
	Do not start on E overload
Acquisition started on : 05/07/2026 22:17:50.137
Loaded Setting File :  C:\PEM-WE_measurements\2026\372_IV_IV IrOx, 5 min Pt, 30 min C, etched cathode\new station\Loopeis new\1,46 V different time gaps open cell\Loopeis 1,46V_120s_5_PEIS from 65Hz to 10Hz.mps
Saved on :
	File : L_25_Loopeis 1,46V_120s_5_PEIS from 65Hz to 10Hz_18_OCV_C01.mpr
	Directory : C:\PEM-WE_measurements\2026\372_IV_IV IrOx, 5 min Pt, 30 min C, etched cathode\new station\Loopeis new\1,46 V different time gaps open cell\
	Host : 192.168.0.2
Device : SP-150e (SN .005491)
Address : 192.168.0.91
EC-LAB for windows v11.71 (software)
Internet server v28.00 (firmware)
Command interpretor v14.01 (firmware)
Electrode material : 
Initial state : 
Electrolyte : 
Comments : 
Current amplifier : SP-150eB-20A
Electrode surface area : 0.001 cm²
Characteristic mass : 0.001 g
Equivalent Weight : 0.000 g/eq.
Density : 0.000 g/cm3
Volume (V) : 0.001 cm³
Record Analogic IN 1
Text export
   Mode : Standard
   Time format : Elapsed
Cycle Definition : Charge/Discharge alternance
External device configuration :
   device type : Temperature Probe
   device name : Other
   Analog IN 1 : 
      unit : T/Â°C
      max : 100.000 at 2.000 V
      min : 0.000 at 1.460 V
tR (h:m:s)          0:02:0.0000         
dER/dt (mV/h)       1.0                 
record              <Ewe>               
dER (mV)            10.00               
dtR (s)             0.5000              
E range min (V)     -2.500              
E range max (V)     2.500               

mode	error	time/s	<Ewe/V>	Analog IN 1/V	
3	0	1.433219981817310E+003	1.2342080E+000	-2.7035559E+002
3	0	1.433719981804679E+003	1.1988502E+000	-2.7036618E+002
3	0	1.434219981792048E+003	9.5038724E-001	-2.7036972E+002
3	0	1.434719981779417E+003	4.7919646E-001	-2.7038385E+002
3	0	1.435219981766786E+003	3.5119671E-001	-2.7037677E+002
3	0	1.435719981754155E+003	3.3461109E-001	-2.7036618E+002
3	0	1.436219981741524E+003	3.2628125E-001	-2.7038031E+002
3	0	1.436719981728893E+003	3.1964773E-001	-2.7034851E+002
3	0	1.437219981716262E+003	3.1460664E-001	-2.7040506E+002
3	0	1.437719981703631E+003	3.1076497E-001	-2.7040506E+002
3	0	1.438219981691000E+003	3.0777463E-001	-2.7038742E+002
3	0	1.438719981678369E+003	3.0537483E-001	-2.7039093E+002
3	0	1.439219981665738E+003	3.0340016E-001	-2.7038031E+002
3	0	1.439719981653107E+003	3.0171403E-001	-2.7037326E+002
3	0	1.440219981640475E+003	3.0024916E-001	-2.7037326E+002
3	0	1.440719981627844E+003	2.9898581E-001	-2.7040860E+002
3	0	1.441219981615213E+003	2.9787716E-001	-2.7035913E+002
3	0	1.441719981602582E+003	2.9686639E-001	-2.7036267E+002
3	0	1.442219981589951E+003	2.9594162E-001	-2.7037677E+002
3	0	1.442719981577320E+003	2.9507780E-001	-2.7039093E+002
3	0	1.443219981564689E+003	2.9426026E-001	-2.7039801E+002
3	0	1.443719981552058E+003	2.9347247E-001	-2.7038031E+002
3	0	1.444219981539427E+003	2.9270685E-001	-2.7037677E+002
3	0	1.444719981526796E+003	2.9200515E-001	-2.7039093E+002
3	0	1.445219981514165E+003	2.9133195E-001	-2.7034851E+002
3	0	1.445719981501534E+003	2.9068571E-001	-2.7038031E+002
3	0	1.446219981488903E+003	2.9005355E-001	-2.7038742E+002
3	0	1.446719981476272E+003	2.8943834E-001	-2.7039093E+002
3	0	1.447219981463641E+003	2.8882575E-001	-2.7035913E+002
3	0	1.447719981451010E+003	2.8821358E-001	-2.7038742E+002
3	0	1.448219981438378E+003	2.8758541E-001	-2.7036972E+002
3	0	1.448719981425747E+003	2.8700873E-001	-2.7038385E+002
3	0	1.449219981413116E+003	2.8644827E-001	-2.7036972E+002
3	0	1.449719981400485E+003	2.8588739E-001	-2.7037677E+002
3	0	1.450219981387854E+003	2.8533849E-001	-2.7041214E+002
3	0	1.450719981375223E+003	2.8479648E-001	-2.7037326E+002
3	0	1.451219981362592E+003	2.8426000E-001	-2.7038742E+002
3	0	1.451719981349961E+003	2.8369913E-001	-2.7038031E+002
3	0	1.452219981337330E+003	2.8314030E-001	-2.7038742E+002
3	0	1.452719981324699E+003	2.8261706E-001	-2.7036618E+002
3	0	1.453219981312068E+003	2.8211612E-001	-2.7036972E+002
3	0	1.453719981299437E+003	2.8161481E-001	-2.7036618E+002
3	0	1.454219981286806E+003	2.8110722E-001	-2.7038385E+002
3	0	1.454719981274175E+003	2.8061649E-001	-2.7039093E+002
3	0	1.455219981261544E+003	2.8010863E-001	-2.7036972E+002
3	0	1.455719981248913E+003	2.7960074E-001	-2.7036618E+002
3	0	1.456219981236281E+003	2.7908456E-001	-2.7040860E+002
3	0	1.456719981223650E+003	2.7860743E-001	-2.7038742E+002
3	0	1.457219981211019E+003	2.7814463E-001	-2.7037677E+002
3	0	1.457719981198388E+003	2.7768463E-001	-2.7039093E+002
3	0	1.458219981185757E+003	2.7722299E-001	-2.7039093E+002
3	0	1.458719981173126E+003	2.7676424E-001	-2.7035913E+002
3	0	1.459219981160495E+003	2.7630159E-001	-2.7039093E+002
3	0	1.459719981147864E+003	2.7582270E-001	-2.7036267E+002
3	0	1.460219981135233E+003	2.7534041E-001	-2.7037677E+002
3	0	1.460719981122602E+003	2.7489948E-001	-2.7039093E+002
3	0	1.461219981109971E+003	2.7447537E-001	-2.7039447E+002
3	0	1.461719981097340E+003	2.7404416E-001	-2.7035913E+002
3	0	1.462219981084709E+003	2.7361873E-001	-2.7038031E+002
3	0	1.462719981072078E+003	2.7318940E-001	-2.7037326E+002
3	0	1.463219981059447E+003	2.7276415E-001	-2.7036267E+002
3	0	1.463719981046816E+003	2.7232212E-001	-2.7038031E+002
3	0	1.464219981034184E+003	2.7187958E-001	-2.7038385E+002
3	0	1.464719981021553E+003	2.7146858E-001	-2.7038385E+002
3	0	1.465219981008922E+003	2.7107537E-001	-2.7035559E+002
3	0	1.465719980996291E+003	2.7068049E-001	-2.7038031E+002
3	0	1.466219980983660E+003	2.7028471E-001	-2.7036618E+002
3	0	1.466719980971029E+003	2.6988980E-001	-2.7037677E+002
3	0	1.467219980958398E+003	2.6949981E-001	-2.7036972E+002
3	0	1.467719980945767E+003	2.6909372E-001	-2.7039447E+002
3	0	1.468219980933136E+003	2.6867172E-001	-2.7039801E+002
3	0	1.468719980920505E+003	2.6829326E-001	-2.7040155E+002
3	0	1.469219980907874E+003	2.6792401E-001	-2.7036618E+002
3	0	1.469719980895243E+003	2.6756239E-001	-2.7038031E+002
3	0	1.470219980882612E+003	2.6719996E-001	-2.7035913E+002
3	0	1.470719980869981E+003	2.6683986E-001	-2.7038385E+002
3	0	1.471219980857350E+003	2.6647222E-001	-2.7037326E+002
3	0	1.471719980844719E+003	2.6609635E-001	-2.7038031E+002
3	0	1.472219980832087E+003	2.6570851E-001	-2.7036618E+002
3	0	1.472719980819456E+003	2.6536757E-001	-2.7037677E+002
3	0	1.473219980806825E+003	2.6502821E-001	-2.7034851E+002
3	0	1.473719980794194E+003	2.6470014E-001	-2.7036618E+002
3	0	1.474219980781563E+003	2.6437280E-001	-2.7036267E+002
3	0	1.474719980768932E+003	2.6404864E-001	-2.7038742E+002
3	0	1.475219980756301E+003	2.6372415E-001	-2.7038385E+002
3	0	1.475719980743670E+003	2.6336893E-001	-2.7038031E+002
3	0	1.476219980731039E+003	2.6301393E-001	-2.7037677E+002
3	0	1.476719980718408E+003	2.6269567E-001	-2.7037326E+002
3	0	1.477219980705777E+003	2.6239204E-001	-2.7036618E+002
3	0	1.477719980693146E+003	2.6209232E-001	-2.7039093E+002
3	0	1.478219980680515E+003	2.6178899E-001	-2.7037326E+002
3	0	1.478719980667884E+003	2.6148874E-001	-2.7038031E+002
3	0	1.479219980655253E+003	2.6118264E-001	-2.7036972E+002
3	0	1.479719980642622E+003	2.6085755E-001	-2.7036972E+002
3	0	1.480219980629990E+003	2.6052800E-001	-2.7036618E+002
3	0	1.480719980617359E+003	2.6023847E-001	-2.7036618E+002
3	0	1.481219980604728E+003	2.5996098E-001	-2.7041214E+002
3	0	1.481719980592097E+003	2.5968969E-001	-2.7038031E+002
3	0	1.482219980579466E+003	2.5941798E-001	-2.7037326E+002
3	0	1.482719980566835E+003	2.5914592E-001	-2.7036972E+002
3	0	1.483219980554204E+003	2.5886521E-001	-2.7039447E+002
3	0	1.483719980541573E+003	2.5857049E-001	-2.7039447E+002
3	0	1.484219980528942E+003	2.5826669E-001	-2.7036972E+002
3	0	1.484719980516311E+003	2.5800359E-001	-2.7037677E+002
3	0	1.485219980503680E+003	2.5775066E-001	-2.7039093E+002
3	0	1.485719980491049E+003	2.5750142E-001	-2.7036972E+002
3	0	1.486219980478418E+003	2.5725248E-001	-2.7036618E+002
3	0	1.486719980465787E+003	2.5699320E-001	-2.7036972E+002
3	0	1.487219980453156E+003	2.5674635E-001	-2.7036972E+002
3	0	1.487719980440525E+003	2.5646397E-001	-2.7036267E+002
3	0	1.488219980427893E+003	2.5617763E-001	-2.7039801E+002
3	0	1.488719980415262E+003	2.5593263E-001	-2.7038031E+002
3	0	1.489219980402631E+003	2.5570357E-001	-2.7040155E+002
3	0	1.489719980390000E+003	2.5547212E-001	-2.7037677E+002
3	0	1.490219980377369E+003	2.5523931E-001	-2.7038031E+002
3	0	1.490719980364738E+003	2.5501099E-001	-2.7038385E+002
3	0	1.491219980352107E+003	2.5477654E-001	-2.7038385E+002
3	0	1.491719980339476E+003	2.5452548E-001	-2.7037677E+002
3	0	1.492219980326845E+003	2.5426650E-001	-2.7036618E+002
3	0	1.492719980314214E+003	2.5404263E-001	-2.7036618E+002
3	0	1.493219980301583E+003	2.5383255E-001	-2.7039093E+002
3	0	1.493719980288952E+003	2.5362828E-001	-2.7036267E+002
3	0	1.494219980276321E+003	2.5341985E-001	-2.7038031E+002
3	0	1.494719980263690E+003	2.5321335E-001	-2.7035559E+002
3	0	1.495219980251059E+003	2.5299993E-001	-2.7038031E+002
3	0	1.495719980238428E+003	2.5275505E-001	-2.7037326E+002
3	0	1.496219980225796E+003	2.5251183E-001	-2.7035559E+002
3	0	1.496719980213165E+003	2.5230905E-001	-2.7038031E+002
3	0	1.497219980200534E+003	2.5211272E-001	-2.7038031E+002
3	0	1.497719980187903E+003	2.5192025E-001	-2.7034497E+002
3	0	1.498219980175272E+003	2.5172696E-001	-2.7037326E+002
3	0	1.498719980162641E+003	2.5153607E-001	-2.7039093E+002
3	0	1.499219980150010E+003	2.5133488E-001	-2.7039093E+002
3	0	1.499719980137379E+003	2.5111505E-001	-2.7038742E+002
3	0	1.500219980124748E+003	2.5088984E-001	-2.7037326E+002
3	0	1.500719980112117E+003	2.5070131E-001	-2.7036618E+002
3	0	1.501219980099486E+003	2.5052726E-001	-2.7037677E+002
3	0	1.501719980086855E+003	2.5035203E-001	-2.7035913E+002
3	0	1.502219980074224E+003	2.5017238E-001	-2.7036618E+002
3	0	1.502719980061593E+003	2.4999723E-001	-2.7039801E+002
3	0	1.503219980048962E+003	2.4981813E-001	-2.7038031E+002
3	0	1.503719980036331E+003	2.4961706E-001	-2.7036972E+002
3	0	1.504219980023699E+003	2.4940936E-001	-2.7039093E+002
3	0	1.504719980011068E+003	2.4924046E-001	-2.7039801E+002
3	0	1.505219979998437E+003	2.4908128E-001	-2.7038385E+002
3	0	1.505719979985806E+003	2.4892040E-001	-2.7038031E+002
3	0	1.506219979973175E+003	2.4875741E-001	-2.7038742E+002
3	0	1.506719979960544E+003	2.4859507E-001	-2.7037326E+002
3	0	1.507219979947913E+003	2.4842133E-001	-2.7038742E+002
3	0	1.507719979935282E+003	2.4822831E-001	-2.7039447E+002
3	0	1.508219979922651E+003	2.4803099E-001	-2.7037326E+002
3	0	1.508719979910020E+003	2.4787049E-001	-2.7036267E+002
3	0	1.509219979897389E+003	2.4771541E-001	-2.7036618E+002
3	0	1.509719979884758E+003	2.4756859E-001	-2.7037677E+002
3	0	1.510219979872127E+003	2.4741367E-001	-2.7039093E+002
3	0	1.510719979859496E+003	2.4726385E-001	-2.7036618E+002
3	0	1.511219979846865E+003	2.4710335E-001	-2.7038742E+002
3	0	1.511719979834234E+003	2.4692397E-001	-2.7037326E+002
3	0	1.512219979821602E+003	2.4673964E-001	-2.7037326E+002
3	0	1.512719979808971E+003	2.4659464E-001	-2.7040155E+002
3	0	1.513219979796340E+003	2.4645890E-001	-2.7039801E+002
3	0	1.513719979783709E+003	2.4632670E-001	-2.7039093E+002
3	0	1.514219979771078E+003	2.4618742E-001	-2.7038031E+002
3	0	1.514719979758447E+003	2.4605076E-001	-2.7036267E+002
3	0	1.515219979745816E+003	2.4590574E-001	-2.7040155E+002
3	0	1.515719979733185E+003	2.4573873E-001	-2.7038742E+002
3	0	1.516219979720554E+003	2.4556649E-001	-2.7038742E+002
3	0	1.516719979707923E+003	2.4542907E-001	-2.7039447E+002
3	0	1.517219979695292E+003	2.4530876E-001	-2.7038031E+002
3	0	1.517719979682661E+003	2.4518865E-001	-2.7036972E+002
3	0	1.518219979670030E+003	2.4506336E-001	-2.7038031E+002
3	0	1.518719979657399E+003	2.4493758E-001	-2.7036972E+002
3	0	1.519219979644768E+003	2.4479738E-001	-2.7036618E+002
3	0	1.519719979632137E+003	2.4463497E-001	-2.7037326E+002
3	0	1.520219979619505E+003	2.4446946E-001	-2.7037677E+002
3	0	1.520719979606874E+003	2.4434631E-001	-2.7036267E+002
3	0	1.521219979594243E+003	2.4423204E-001	-2.7039447E+002
3	0	1.521719979581612E+003	2.4412037E-001	-2.7036267E+002
3	0	1.522219979568981E+003	2.4400465E-001	-2.7038742E+002
3	0	1.522719979556350E+003	2.4389225E-001	-2.7037677E+002
3	0	1.523219979543719E+003	2.4376796E-001	-2.7036267E+002
3	0	1.523719979531088E+003	2.4361952E-001	-2.7035913E+002
3	0	1.524219979518457E+003	2.4346229E-001	-2.7037677E+002
3	0	1.524719979505826E+003	2.4334605E-001	-2.7037326E+002
3	0	1.525219979493195E+003	2.4324220E-001	-2.7035913E+002
3	0	1.525719979480564E+003	2.4313436E-001	-2.7037326E+002
3	0	1.526219979467933E+003	2.4302596E-001	-2.7035559E+002
3	0	1.526719979455302E+003	2.4291490E-001	-2.7035913E+002
3	0	1.527219979442671E+003	2.4279234E-001	-2.7038031E+002
3	0	1.527719979430040E+003	2.4265243E-001	-2.7039447E+002
3	0	1.528219979417408E+003	2.4249290E-001	-2.7037677E+002
3	0	1.528719979404777E+003	2.4237637E-001	-2.7035913E+002
3	0	1.529219979392146E+003	2.4227230E-001	-2.7037677E+002
3	0	1.529719979379515E+003	2.4217395E-001	-2.7038031E+002
3	0	1.530219979366884E+003	2.4207012E-001	-2.7035913E+002
3	0	1.530719979354253E+003	2.4196078E-001	-2.7036267E+002
3	0	1.531219979341622E+003	2.4184930E-001	-2.7038031E+002
3	0	1.531719979328991E+003	2.4171393E-001	-2.7037326E+002
3	0	1.532219979316360E+003	2.4156623E-001	-2.7038031E+002
3	0	1.532719979303729E+003	2.4145839E-001	-2.7038031E+002
3	0	1.533219979291098E+003	2.4136530E-001	-2.7036267E+002
3	0	1.533719979278467E+003	2.4127536E-001	-2.7039093E+002
3	0	1.534219979265836E+003	2.4117975E-001	-2.7036972E+002
3	0	1.534719979253205E+003	2.4108189E-001	-2.7039801E+002
3	0	1.535219979240574E+003	2.4098219E-001	-2.7037677E+002
3	0	1.535719979227943E+003	2.4085832E-001	-2.7039093E+002
3	0	1.536219979215311E+003	2.4072210E-001	-2.7038385E+002
3	0	1.536719979202680E+003	2.4062647E-001	-2.7035205E+002
3	0	1.537219979190049E+003	2.4054103E-001	-2.7038742E+002
3	0	1.537719979177418E+003	2.4045900E-001	-2.7038031E+002
3	0	1.538219979164787E+003	2.4036221E-001	-2.7034497E+002
3	0	1.538719979152156E+003	2.4027674E-001	-2.7037677E+002
3	0	1.539219979139525E+003	2.4018036E-001	-2.7035913E+002
3	0	1.539719979126894E+003	2.4006143E-001	-2.7039093E+002
3	0	1.540219979114263E+003	2.3993453E-001	-2.7036618E+002
3	0	1.540719979101632E+003	2.3984215E-001	-2.7036972E+002
3	0	1.541219979089001E+003	2.3976098E-001	-2.7039093E+002
3	0	1.541719979076370E+003	2.3968680E-001	-2.7038385E+002
3	0	1.542219979063739E+003	2.3960546E-001	-2.7038742E+002
3	0	1.542719979051108E+003	2.3952396E-001	-2.7038031E+002
3	0	1.543219979038477E+003	2.3943153E-001	-2.7038742E+002
3	0	1.543719979025846E+003	2.3931772E-001	-2.7038742E+002
3	0	1.544219979013214E+003	2.3918617E-001	-2.7036972E+002
3	0	1.544719979000583E+003	2.3910417E-001	-2.7040155E+002
3	0	1.545219978987952E+003	2.3902957E-001	-2.7039801E+002
3	0	1.545719978975321E+003	2.3895821E-001	-2.7036618E+002
3	0	1.546219978962690E+003	2.3888065E-001	-2.7036972E+002
3	0	1.546719978950059E+003	2.3879968E-001	-2.7036618E+002
3	0	1.547219978937428E+003	2.3871139E-001	-2.7040860E+002
3	0	1.547719978924797E+003	2.3859122E-001	-2.7036972E+002
3	0	1.548219978912166E+003	2.3846659E-001	-2.7036267E+002
3	0	1.548719978899535E+003	2.3838033E-001	-2.7037677E+002
3	0	1.549219978886904E+003	2.3830700E-001	-2.7038742E+002
3	0	1.549719978874273E+003	2.3823225E-001	-2.7040506E+002
3	0	1.550219978861642E+003	2.3815323E-001	-2.7036267E+002
3	0	1.550719978849011E+003	2.3808080E-001	-2.7038742E+002
3	0	1.551219978836380E+003	2.3799461E-001	-2.7039447E+002
3	0	1.551719978823749E+003	2.3787475E-001	-2.7039093E+002
3	0	1.552219978811117E+003	2.3775505E-001	-2.7037677E+002
3	0	1.552719978798486E+003	2.3767303E-001	-2.7039447E+002
3	0	1.552720378798476E+003	2.3764004E-001	-2.7041214E+002