EC-Lab ASCII FILE
Nb header lines : 48                          

Open Circuit Voltage

Run on channel : 1 (SN 81504)
User : 
CE vs. WE compliance from -10 V to 10 V
Electrode connection : standard
Potential control : Ewe
Ewe ctrl range : min = -2.50 V, max = 2.50 V
Safety Limits :
	Do not start on E overload
Acquisition started on : 05/07/2026 23:27:51.851
Loaded Setting File :  C:\PEM-WE_measurements\2026\372_IV_IV IrOx, 5 min Pt, 30 min C, etched cathode\new station\Loopeis new\1,46 V different time gaps open cell\Loopeis 1,46V_180s_2_PEIS from 65kHz to 10kHz.mps
Saved on :
	File : L_27_Loopeis 1,46V_180s_2_PEIS from 65kHz to 10kHz_14_OCV_C01.mpr
	Directory : C:\PEM-WE_measurements\2026\372_IV_IV IrOx, 5 min Pt, 30 min C, etched cathode\new station\Loopeis new\1,46 V different time gaps open cell\
	Host : 192.168.0.2
Device : SP-150e (SN .005491)
Address : 192.168.0.91
EC-LAB for windows v11.71 (software)
Internet server v28.00 (firmware)
Command interpretor v14.01 (firmware)
Electrode material : 
Initial state : 
Electrolyte : 
Comments : 
Current amplifier : SP-150eB-20A
Electrode surface area : 0.001 cm²
Characteristic mass : 0.001 g
Equivalent Weight : 0.000 g/eq.
Density : 0.000 g/cm3
Volume (V) : 0.001 cm³
Record Analogic IN 1
Text export
   Mode : Standard
   Time format : Elapsed
Cycle Definition : Charge/Discharge alternance
tR (h:m:s)          0:03:0.0000         
dER/dt (mV/h)       1.0                 
record              <Ewe>               
dER (mV)            10.00               
dtR (s)             0.5000              
E range min (V)     -2.500              
E range max (V)     2.500               

mode	error	time/s	<Ewe/V>	Analog IN 1/V	
3	0	1.395521174569876E+003	1.2187772E+000	-1.1064836E-004
3	0	1.396021174557245E+003	1.1677504E+000	-5.3391734E-005
3	0	1.396521174544614E+003	7.9060918E-001	-7.2477276E-005
3	0	1.397021174531983E+003	4.1599670E-001	-5.3391734E-005
3	0	1.397521174519352E+003	3.4416044E-001	2.2950437E-005
3	0	1.398021174506721E+003	3.3259130E-001	6.1121522E-005
3	0	1.398521174494090E+003	3.2500404E-001	-1.6790499E-004
3	0	1.399021174481459E+003	3.1903028E-001	-7.2477276E-005
3	0	1.399521174468828E+003	3.1445763E-001	-1.2973390E-004
3	0	1.400021174456197E+003	3.1092942E-001	-1.5220648E-005
3	0	1.400521174443566E+003	3.0813235E-001	3.8648941E-006
3	0	1.401021174430934E+003	3.0585888E-001	-5.3391734E-005
3	0	1.401521174418303E+003	3.0395654E-001	8.0207064E-005
3	0	1.402021174405672E+003	3.0231333E-001	-3.4306191E-005
3	0	1.402521174393041E+003	3.0088201E-001	6.1121522E-005
3	0	1.403021174380410E+003	2.9964423E-001	3.8648941E-006
3	0	1.403521174367779E+003	2.9853383E-001	2.2950437E-005
3	0	1.404021174355148E+003	2.9752353E-001	-7.2477276E-005
3	0	1.404521174342517E+003	2.9659325E-001	-1.4881945E-004
3	0	1.405021174329886E+003	2.9572874E-001	-5.3391734E-005
3	0	1.405521174317255E+003	2.9490367E-001	2.2950437E-005
3	0	1.406021174304624E+003	2.9410386E-001	8.0207064E-005
3	0	1.406521174291993E+003	2.9333794E-001	-5.3391734E-005
3	0	1.407021174279362E+003	2.9263145E-001	9.9292607E-005
3	0	1.407521174266731E+003	2.9194516E-001	-7.2477276E-005
3	0	1.408021174254100E+003	2.9128617E-001	8.0207064E-005
3	0	1.408521174241469E+003	2.9064783E-001	6.1121522E-005
3	0	1.409021174228837E+003	2.9002669E-001	1.1837815E-004
3	0	1.409521174216206E+003	2.8940830E-001	1.1837815E-004
3	0	1.410021174203575E+003	2.8878739E-001	4.2035979E-005
3	0	1.410521174190944E+003	2.8817543E-001	2.2950437E-005
3	0	1.411021174178313E+003	2.8760070E-001	-5.3391734E-005
3	0	1.411521174165682E+003	2.8703865E-001	6.1121522E-005
3	0	1.412021174153051E+003	2.8648081E-001	-7.2477276E-005
3	0	1.412521174140420E+003	2.8593427E-001	3.8648941E-006
3	0	1.413021174127789E+003	2.8539860E-001	-3.4306191E-005
3	0	1.413521174115158E+003	2.8485480E-001	-5.3391734E-005
3	0	1.414021174102527E+003	2.8430322E-001	-7.2477276E-005
3	0	1.414521174089896E+003	2.8375402E-001	-1.6790499E-004
3	0	1.415021174077265E+003	2.8325281E-001	4.2035979E-005
3	0	1.415521174064634E+003	2.8274319E-001	3.8648941E-006
3	0	1.416021174052003E+003	2.8225121E-001	-7.2477276E-005
3	0	1.416521174039372E+003	2.8175431E-001	2.2950437E-005
3	0	1.417021174026740E+003	2.8126615E-001	-7.2477276E-005
3	0	1.417521174014109E+003	2.8077370E-001	-7.2477276E-005
3	0	1.418021174001478E+003	2.8026932E-001	-1.6790499E-004
3	0	1.418521173988847E+003	2.7976745E-001	2.2950437E-005
3	0	1.419021173976216E+003	2.7930731E-001	-1.5220648E-005
3	0	1.419521173963585E+003	2.7885175E-001	-1.2973390E-004
3	0	1.420021173950954E+003	2.7839714E-001	4.2035979E-005
3	0	1.420521173938323E+003	2.7794635E-001	2.2950437E-005
3	0	1.421021173925692E+003	2.7750275E-001	-1.4881945E-004
3	0	1.421521173913061E+003	2.7703893E-001	3.8648941E-006
3	0	1.422021173900430E+003	2.7656865E-001	4.2035979E-005
3	0	1.422521173887799E+003	2.7610186E-001	1.1837815E-004
3	0	1.423021173875168E+003	2.7567986E-001	8.0207064E-005
3	0	1.423521173862537E+003	2.7524960E-001	-9.1562819E-005
3	0	1.424021173849906E+003	2.7483168E-001	-3.4306191E-005
3	0	1.424521173837275E+003	2.7442372E-001	-3.4306191E-005
3	0	1.425021173824643E+003	2.7401033E-001	8.0207064E-005
3	0	1.425521173812012E+003	2.7359006E-001	-1.2973390E-004
3	0	1.426021173799381E+003	2.7315331E-001	-1.2973390E-004
3	0	1.426521173786750E+003	2.7271998E-001	-9.1562819E-005
3	0	1.427021173774119E+003	2.7233353E-001	2.2950437E-005
3	0	1.427521173761488E+003	2.7194476E-001	-1.1064836E-004
3	0	1.428021173748857E+003	2.7155340E-001	-3.4306191E-005
3	0	1.428521173736226E+003	2.7117231E-001	-5.3391734E-005
3	0	1.429021173723595E+003	2.7078971E-001	-5.3391734E-005
3	0	1.429521173710964E+003	2.7039662E-001	-3.4306191E-005
3	0	1.430021173698333E+003	2.6998883E-001	-7.2477276E-005
3	0	1.430521173685702E+003	2.6959383E-001	-5.3391734E-005
3	0	1.431021173673071E+003	2.6924020E-001	-1.5220648E-005
3	0	1.431521173660440E+003	2.6887539E-001	-3.4306191E-005
3	0	1.432021173647809E+003	2.6851588E-001	-3.4306191E-005
3	0	1.432521173635178E+003	2.6816937E-001	1.3746369E-004
3	0	1.433021173622546E+003	2.6781440E-001	6.1121522E-005
3	0	1.433521173609915E+003	2.6745307E-001	-9.1562819E-005
3	0	1.434021173597284E+003	2.6707739E-001	-7.2477276E-005
3	0	1.434521173584653E+003	2.6670441E-001	6.1121522E-005
3	0	1.435021173572022E+003	2.6637676E-001	4.2035979E-005
3	0	1.435521173559391E+003	2.6604876E-001	-7.2477276E-005
3	0	1.436021173546760E+003	2.6572645E-001	-7.2477276E-005
3	0	1.436521173534129E+003	2.6540485E-001	-5.3391734E-005
3	0	1.437021173521498E+003	2.6508442E-001	2.2950437E-005
3	0	1.437521173508867E+003	2.6475695E-001	3.8648941E-006
3	0	1.438021173496236E+003	2.6441541E-001	-9.1562819E-005
3	0	1.438521173483605E+003	2.6407826E-001	6.1121522E-005
3	0	1.439021173470974E+003	2.6378107E-001	1.3746369E-004
3	0	1.439521173458343E+003	2.6348236E-001	-1.1064836E-004
3	0	1.440021173445712E+003	2.6318771E-001	-7.2477276E-005
3	0	1.440521173433081E+003	2.6288831E-001	-3.4306191E-005
3	0	1.441021173420449E+003	2.6259282E-001	1.1837815E-004
3	0	1.441521173407818E+003	2.6229030E-001	-7.2477276E-005
3	0	1.442021173395187E+003	2.6197153E-001	-1.5220648E-005
3	0	1.442521173382556E+003	2.6165357E-001	3.8648941E-006
3	0	1.443021173369925E+003	2.6137918E-001	-5.3391734E-005
3	0	1.443521173357294E+003	2.6110595E-001	4.2035979E-005
3	0	1.444021173344663E+003	2.6083386E-001	3.8648941E-006
3	0	1.444521173332032E+003	2.6056525E-001	-3.4306191E-005
3	0	1.445021173319401E+003	2.6029733E-001	3.8648941E-006
3	0	1.445521173306770E+003	2.6001686E-001	9.9292607E-005
3	0	1.446021173294139E+003	2.5972414E-001	-1.5220648E-005
3	0	1.446521173281508E+003	2.5943705E-001	1.3746369E-004
3	0	1.447021173268877E+003	2.5919253E-001	9.9292607E-005
3	0	1.447521173256246E+003	2.5894344E-001	-7.2477276E-005
3	0	1.448021173243615E+003	2.5869077E-001	-5.3391734E-005
3	0	1.448521173230984E+003	2.5844899E-001	-7.2477276E-005
3	0	1.449021173218352E+003	2.5819734E-001	-1.4881945E-004
3	0	1.449521173205721E+003	2.5795004E-001	6.1121522E-005
3	0	1.450021173193090E+003	2.5767782E-001	-1.5220648E-005
3	0	1.450521173180459E+003	2.5740710E-001	-3.4306191E-005
3	0	1.451021173167828E+003	2.5717646E-001	8.0207064E-005
3	0	1.451521173155197E+003	2.5694445E-001	-3.4306191E-005
3	0	1.452021173142566E+003	2.5671479E-001	-9.1562819E-005
3	0	1.452521173129935E+003	2.5648209E-001	-1.4881945E-004
3	0	1.453021173117304E+003	2.5624931E-001	-1.5220648E-005
3	0	1.453521173104673E+003	2.5601059E-001	3.8648941E-006
3	0	1.454021173092042E+003	2.5576088E-001	-1.1064836E-004
3	0	1.454521173079411E+003	2.5550610E-001	4.2035979E-005
3	0	1.455021173066780E+003	2.5529391E-001	-1.1064836E-004
3	0	1.455521173054149E+003	2.5508496E-001	-3.4306191E-005
3	0	1.456021173041518E+003	2.5487792E-001	-1.5220648E-005
3	0	1.456521173028887E+003	2.5466406E-001	3.8648941E-006
3	0	1.457021173016255E+003	2.5442591E-001	-1.5220648E-005
3	0	1.457521173003624E+003	2.5421375E-001	-3.4306191E-005
3	0	1.458021172990993E+003	2.5399882E-001	-9.1562819E-005
3	0	1.458521172978362E+003	2.5378221E-001	-5.3391734E-005
3	0	1.459021172965731E+003	2.5361398E-001	-3.4306191E-005
3	0	1.459521172953100E+003	2.5342408E-001	-1.2973390E-004
3	0	1.460021172940469E+003	2.5322777E-001	-1.4881945E-004
3	0	1.460521172927838E+003	2.5304744E-001	-1.5220648E-005
3	0	1.461021172915207E+003	2.5286108E-001	-3.4306191E-005
3	0	1.461521172902576E+003	2.5265452E-001	-5.3391734E-005
3	0	1.462021172889945E+003	2.5242519E-001	2.2950437E-005
3	0	1.462521172877314E+003	2.5219601E-001	4.2035979E-005
3	0	1.463021172864683E+003	2.5201565E-001	-5.3391734E-005
3	0	1.463521172852052E+003	2.5184950E-001	-9.1562819E-005
3	0	1.464021172839421E+003	2.5167328E-001	6.1121522E-005
3	0	1.464521172826790E+003	2.5149670E-001	6.1121522E-005
3	0	1.465021172814158E+003	2.5131318E-001	-3.4306191E-005
3	0	1.465521172801527E+003	2.5112486E-001	3.8648941E-006
3	0	1.466021172788896E+003	2.5091264E-001	3.8648941E-006
3	0	1.466521172776265E+003	2.5070804E-001	-1.4881945E-004
3	0	1.467021172763634E+003	2.5054374E-001	-7.2477276E-005
3	0	1.467521172751003E+003	2.5038812E-001	-3.4306191E-005
3	0	1.468021172738372E+003	2.5022992E-001	9.9292607E-005
3	0	1.468521172725741E+003	2.5006461E-001	2.2950437E-005
3	0	1.469021172713110E+003	2.4990755E-001	-5.3391734E-005
3	0	1.469521172700479E+003	2.4972907E-001	-1.6790499E-004
3	0	1.470021172687848E+003	2.4953288E-001	-1.5220648E-005
3	0	1.470521172675217E+003	2.4933781E-001	-9.1562819E-005
3	0	1.471021172662586E+003	2.4918902E-001	8.0207064E-005
3	0	1.471521172649955E+003	2.4904205E-001	-1.5220648E-005
3	0	1.472021172637324E+003	2.4888782E-001	6.1121522E-005
3	0	1.472521172624693E+003	2.4873897E-001	-1.5220648E-005
3	0	1.473021172612061E+003	2.4858229E-001	-1.1064836E-004
3	0	1.473521172599430E+003	2.4840821E-001	-1.5220648E-005
3	0	1.474021172586799E+003	2.4822618E-001	-1.2973390E-004
3	0	1.474521172574168E+003	2.4804506E-001	4.2035979E-005
3	0	1.475021172561537E+003	2.4790157E-001	-3.4306191E-005
3	0	1.475521172548906E+003	2.4777152E-001	-7.2477276E-005
3	0	1.476021172536275E+003	2.4762596E-001	-5.3391734E-005
3	0	1.476521172523644E+003	2.4748597E-001	-7.2477276E-005
3	0	1.477021172511013E+003	2.4733892E-001	9.9292607E-005
3	0	1.477521172498382E+003	2.4718465E-001	-1.6790499E-004
3	0	1.478021172485751E+003	2.4700531E-001	-3.4306191E-005
3	0	1.478521172473120E+003	2.4682435E-001	-3.4306191E-005
3	0	1.479021172460489E+003	2.4669981E-001	6.1121522E-005
3	0	1.479521172447858E+003	2.4658026E-001	-9.1562819E-005
3	0	1.480021172435227E+003	2.4645211E-001	2.2950437E-005
3	0	1.480521172422596E+003	2.4632621E-001	3.8648941E-006
3	0	1.481021172409964E+003	2.4619003E-001	2.2950437E-005
3	0	1.481521172397333E+003	2.4604394E-001	-9.1562819E-005
3	0	1.482021172384702E+003	2.4587694E-001	-1.5220648E-005
3	0	1.482521172372071E+003	2.4571069E-001	-1.1064836E-004
3	0	1.483021172359440E+003	2.4559624E-001	-5.3391734E-005
3	0	1.483521172346809E+003	2.4548151E-001	-1.5220648E-005
3	0	1.484021172334178E+003	2.4536325E-001	-1.6790499E-004
3	0	1.484521172321547E+003	2.4523890E-001	-1.2973390E-004
3	0	1.485021172308916E+003	2.4511473E-001	3.8648941E-006
3	0	1.485521172296285E+003	2.4497834E-001	6.1121522E-005
3	0	1.486021172283654E+003	2.4481866E-001	-1.1064836E-004
3	0	1.486521172271023E+003	2.4465783E-001	3.8648941E-006
3	0	1.487021172258392E+003	2.4454865E-001	-3.4306191E-005
3	0	1.487521172245761E+003	2.4444596E-001	-1.5220648E-005
3	0	1.488021172233130E+003	2.4434008E-001	-7.2477276E-005
3	0	1.488521172220499E+003	2.4422611E-001	2.2950437E-005
3	0	1.489021172207867E+003	2.4410963E-001	-1.1064836E-004
3	0	1.489521172195236E+003	2.4397355E-001	2.2950437E-005
3	0	1.490021172182605E+003	2.4382713E-001	-2.0607607E-004
3	0	1.490521172169974E+003	2.4367796E-001	-7.2477276E-005
3	0	1.491021172157343E+003	2.4357431E-001	-7.2477276E-005
3	0	1.491521172144712E+003	2.4347584E-001	2.2950437E-005
3	0	1.492021172132081E+003	2.4337052E-001	4.2035979E-005
3	0	1.492521172119450E+003	2.4326327E-001	-1.5220648E-005
3	0	1.493021172106819E+003	2.4315551E-001	2.2950437E-005
3	0	1.493521172094188E+003	2.4303187E-001	3.8648941E-006
3	0	1.494021172081557E+003	2.4288739E-001	-7.2477276E-005
3	0	1.494521172068926E+003	2.4273768E-001	2.2950437E-005
3	0	1.495021172056295E+003	2.4262929E-001	-5.3391734E-005
3	0	1.495521172043664E+003	2.4253002E-001	-1.1064836E-004
3	0	1.496021172031033E+003	2.4242941E-001	-1.1064836E-004
3	0	1.496521172018402E+003	2.4232909E-001	-1.6790499E-004
3	0	1.497021172005771E+003	2.4222745E-001	2.2950437E-005
3	0	1.497521171993139E+003	2.4211448E-001	8.0207064E-005
3	0	1.498021171980508E+003	2.4197523E-001	-9.1562819E-005
3	0	1.498521171967877E+003	2.4183924E-001	-1.5220648E-005
3	0	1.499021171955246E+003	2.4175118E-001	4.2035979E-005
3	0	1.499521171942615E+003	2.4166380E-001	-9.1562819E-005
3	0	1.500021171929984E+003	2.4157384E-001	-7.2477276E-005
3	0	1.500521171917353E+003	2.4148171E-001	-9.1562819E-005
3	0	1.501021171904722E+003	2.4138990E-001	2.2950437E-005
3	0	1.501521171892091E+003	2.4128389E-001	-5.3391734E-005
3	0	1.502021171879460E+003	2.4114586E-001	-1.5220648E-005
3	0	1.502521171866829E+003	2.4101210E-001	-3.4306191E-005
3	0	1.503021171854198E+003	2.4092697E-001	-1.4881945E-004
3	0	1.503521171841567E+003	2.4085583E-001	-1.5220648E-005
3	0	1.504021171828936E+003	2.4077392E-001	-7.2477276E-005
3	0	1.504521171816305E+003	2.4069089E-001	3.8648941E-006
3	0	1.505021171803674E+003	2.4060148E-001	-7.2477276E-005
3	0	1.505521171791042E+003	2.4049976E-001	8.0207064E-005
3	0	1.506021171778411E+003	2.4036686E-001	-7.2477276E-005
3	0	1.506521171765780E+003	2.4024332E-001	4.2035979E-005
3	0	1.507021171753149E+003	2.4016185E-001	-3.4306191E-005
3	0	1.507521171740518E+003	2.4008492E-001	-1.6790499E-004
3	0	1.508021171727887E+003	2.4000254E-001	-7.2477276E-005
3	0	1.508521171715256E+003	2.3992160E-001	-1.2973390E-004
3	0	1.509021171702625E+003	2.3983613E-001	-7.2477276E-005
3	0	1.509521171689994E+003	2.3974091E-001	-1.5220648E-005
3	0	1.510021171677363E+003	2.3961517E-001	-9.1562819E-005
3	0	1.510521171664732E+003	2.3949513E-001	3.8648941E-006
3	0	1.511021171652101E+003	2.3941664E-001	3.8648941E-006
3	0	1.511521171639470E+003	2.3934904E-001	-1.4881945E-004
3	0	1.512021171626839E+003	2.3926809E-001	-7.2477276E-005
3	0	1.512521171614208E+003	2.3918295E-001	-3.4306191E-005
3	0	1.513021171601577E+003	2.3910269E-001	3.8648941E-006
3	0	1.513521171588945E+003	2.3900738E-001	1.3746369E-004
3	0	1.514021171576314E+003	2.3889506E-001	-3.4306191E-005
3	0	1.514521171563683E+003	2.3877162E-001	3.8648941E-006
3	0	1.515021171551052E+003	2.3869893E-001	-3.4306191E-005
3	0	1.515521171538421E+003	2.3863392E-001	-1.1064836E-004
3	0	1.516021171525790E+003	2.3856468E-001	-1.1064836E-004
3	0	1.516521171513159E+003	2.3849225E-001	-5.3391734E-005
3	0	1.517021171500528E+003	2.3842074E-001	-9.1562819E-005
3	0	1.517521171487897E+003	2.3832732E-001	4.2035979E-005
3	0	1.518021171475266E+003	2.3820861E-001	4.2035979E-005
3	0	1.518521171462635E+003	2.3809205E-001	-3.4306191E-005
3	0	1.519021171450004E+003	2.3802640E-001	4.2035979E-005
3	0	1.519521171437373E+003	2.3796429E-001	4.2035979E-005
3	0	1.520021171424742E+003	2.3789425E-001	-7.2477276E-005
3	0	1.520521171412111E+003	2.3782450E-001	-9.1562819E-005
3	0	1.521021171399480E+003	2.3775499E-001	2.2950437E-005
3	0	1.521521171386848E+003	2.3767328E-001	-3.4306191E-005
3	0	1.522021171374217E+003	2.3755352E-001	4.2035979E-005
3	0	1.522521171361586E+003	2.3743699E-001	3.8648941E-006
3	0	1.523021171348955E+003	2.3736933E-001	-1.2973390E-004
3	0	1.523521171336324E+003	2.3730651E-001	8.0207064E-005
3	0	1.524021171323693E+003	2.3724294E-001	-3.4306191E-005
3	0	1.524521171311062E+003	2.3717029E-001	-1.2973390E-004
3	0	1.525021171298431E+003	2.3709589E-001	-7.2477276E-005
3	0	1.525521171285800E+003	2.3700939E-001	-1.5220648E-005
3	0	1.526021171273169E+003	2.3689938E-001	2.2950437E-005
3	0	1.526521171260538E+003	2.3678835E-001	-1.4881945E-004
3	0	1.527021171247907E+003	2.3672926E-001	3.8648941E-006
3	0	1.527521171235276E+003	2.3667011E-001	-5.3391734E-005
3	0	1.528021171222645E+003	2.3661198E-001	-1.5220648E-005
3	0	1.528521171210014E+003	2.3654704E-001	-7.2477276E-005
3	0	1.529021171197383E+003	2.3647653E-001	-1.4881945E-004
3	0	1.529521171184751E+003	2.3638150E-001	-2.0607607E-004
3	0	1.530021171172120E+003	2.3626466E-001	-3.4306191E-005
3	0	1.530521171159489E+003	2.3615704E-001	9.9292607E-005
3	0	1.531021171146858E+003	2.3608939E-001	2.2950437E-005
3	0	1.531521171134227E+003	2.3602851E-001	-1.5220648E-005
3	0	1.532021171121596E+003	2.3595613E-001	-1.2973390E-004
3	0	1.532521171108965E+003	2.3588334E-001	-1.4881945E-004
3	0	1.533021171096334E+003	2.3581344E-001	9.9292607E-005
3	0	1.533521171083703E+003	2.3573436E-001	-1.5220648E-005
3	0	1.534021171071072E+003	2.3562300E-001	2.2950437E-005
3	0	1.534521171058441E+003	2.3551147E-001	-7.2477276E-005
3	0	1.535021171045810E+003	2.3544490E-001	-5.3391734E-005
3	0	1.535521171033179E+003	2.3538812E-001	4.2035979E-005
3	0	1.536021171020548E+003	2.3531903E-001	-1.5220648E-005
3	0	1.536521171007917E+003	2.3525390E-001	6.1121522E-005
3	0	1.537021170995286E+003	2.3518522E-001	6.1121522E-005
3	0	1.537521170982654E+003	2.3509644E-001	-7.2477276E-005
3	0	1.538021170970023E+003	2.3499222E-001	-5.3391734E-005
3	0	1.538521170957392E+003	2.3488545E-001	-1.5220648E-005
3	0	1.539021170944761E+003	2.3483461E-001	-5.3391734E-005
3	0	1.539521170932130E+003	2.3478112E-001	-1.1064836E-004
3	0	1.540021170919499E+003	2.3472422E-001	1.1837815E-004
3	0	1.540521170906868E+003	2.3467270E-001	-1.5220648E-005
3	0	1.541021170894237E+003	2.3461331E-001	9.9292607E-005
3	0	1.541521170881606E+003	2.3453586E-001	-3.4306191E-005
3	0	1.542021170868975E+003	2.3443927E-001	-1.1064836E-004
3	0	1.542521170856344E+003	2.3433769E-001	3.8648941E-006
3	0	1.543021170843713E+003	2.3427895E-001	-9.1562819E-005
3	0	1.543521170831082E+003	2.3423141E-001	-3.4306191E-005
3	0	1.544021170818451E+003	2.3418091E-001	2.2950437E-005
3	0	1.544521170805820E+003	2.3412657E-001	2.2950437E-005
3	0	1.545021170793189E+003	2.3407072E-001	2.2950437E-005
3	0	1.545521170780557E+003	2.3399383E-001	-1.2973390E-004
3	0	1.546021170767926E+003	2.3389627E-001	-5.3391734E-005
3	0	1.546521170755295E+003	2.3379637E-001	-1.5220648E-005
3	0	1.547021170742664E+003	2.3374188E-001	-7.2477276E-005
3	0	1.547521170730033E+003	2.3369716E-001	-9.1562819E-005
3	0	1.548021170717402E+003	2.3364803E-001	-1.5220648E-005
3	0	1.548521170704771E+003	2.3359008E-001	4.2035979E-005
3	0	1.549021170692140E+003	2.3353888E-001	-7.2477276E-005
3	0	1.549521170679509E+003	2.3346679E-001	-1.2973390E-004
3	0	1.550021170666878E+003	2.3337376E-001	-9.1562819E-005
3	0	1.550521170654247E+003	2.3328641E-001	-1.2973390E-004
3	0	1.551021170641616E+003	2.3323810E-001	-7.2477276E-005
3	0	1.551521170628985E+003	2.3319452E-001	2.2950437E-005
3	0	1.552021170616354E+003	2.3314644E-001	-7.2477276E-005
3	0	1.552521170603723E+003	2.3309086E-001	-1.5220648E-005
3	0	1.553021170591092E+003	2.3303741E-001	-5.3391734E-005
3	0	1.553521170578460E+003	2.3296136E-001	-1.6790499E-004
3	0	1.554021170565829E+003	2.3286058E-001	-3.4306191E-005
3	0	1.554521170553198E+003	2.3276387E-001	-5.3391734E-005
3	0	1.555021170540567E+003	2.3270734E-001	-1.5220648E-005
3	0	1.555521170527936E+003	2.3266581E-001	4.2035979E-005
3	0	1.556021170515305E+003	2.3261364E-001	-1.5220648E-005
3	0	1.556521170502674E+003	2.3255685E-001	-2.0607607E-004
3	0	1.557021170490043E+003	2.3249850E-001	-5.3391734E-005
3	0	1.557521170477412E+003	2.3243058E-001	3.8648941E-006
3	0	1.558021170464781E+003	2.3233555E-001	-5.3391734E-005
3	0	1.558521170452150E+003	2.3224083E-001	4.2035979E-005
3	0	1.559021170439519E+003	2.3219748E-001	3.8648941E-006
3	0	1.559521170426888E+003	2.3215595E-001	-5.3391734E-005
3	0	1.560021170414257E+003	2.3210873E-001	-3.4306191E-005
3	0	1.560521170401626E+003	2.3205738E-001	-5.3391734E-005
3	0	1.561021170388995E+003	2.3200467E-001	-5.3391734E-005
3	0	1.561521170376363E+003	2.3194310E-001	-5.3391734E-005
3	0	1.562021170363732E+003	2.3185720E-001	3.8648941E-006
3	0	1.562521170351101E+003	2.3177081E-001	-1.5220648E-005
3	0	1.563021170338470E+003	2.3172694E-001	-5.3391734E-005
3	0	1.563521170325839E+003	2.3168805E-001	-3.4306191E-005
3	0	1.564021170313208E+003	2.3165321E-001	2.2950437E-005
3	0	1.564521170300577E+003	2.3160863E-001	-3.4306191E-005
3	0	1.565021170287946E+003	2.3156114E-001	-5.3391734E-005
3	0	1.565521170275315E+003	2.3149692E-001	-1.4881945E-004
3	0	1.566021170262684E+003	2.3140843E-001	-1.1064836E-004
3	0	1.566521170250053E+003	2.3132117E-001	-9.1562819E-005
3	0	1.567021170237422E+003	2.3128012E-001	6.1121522E-005
3	0	1.567521170224791E+003	2.3124543E-001	-1.6790499E-004
3	0	1.568021170212160E+003	2.3120566E-001	-1.1064836E-004
3	0	1.568521170199529E+003	2.3116142E-001	-3.4306191E-005
3	0	1.569021170186898E+003	2.3111247E-001	3.8648941E-006
3	0	1.569521170174266E+003	2.3105893E-001	-1.5220648E-005
3	0	1.570021170161635E+003	2.3097457E-001	-1.5220648E-005
3	0	1.570521170149004E+003	2.3088729E-001	3.8648941E-006
3	0	1.571021170136373E+003	2.3084596E-001	-1.2973390E-004
3	0	1.571521170123742E+003	2.3081115E-001	-1.5220648E-005
3	0	1.572021170111111E+003	2.3076653E-001	-3.4306191E-005
3	0	1.572521170098480E+003	2.3072284E-001	-7.2477276E-005
3	0	1.573021170085849E+003	2.3067601E-001	-7.2477276E-005
3	0	1.573521170073218E+003	2.3061225E-001	-1.2973390E-004
3	0	1.574021170060587E+003	2.3052870E-001	9.9292607E-005
3	0	1.574521170047956E+003	2.3043761E-001	4.2035979E-005
3	0	1.575021170035325E+003	2.3039201E-001	-1.1064836E-004
3	0	1.575021570035315E+003	2.3042634E-001	-1.5220648E-005