EC-Lab ASCII FILE
Nb header lines : 48                          

Open Circuit Voltage

Run on channel : 1 (SN 81504)
User : 
CE vs. WE compliance from -10 V to 10 V
Electrode connection : standard
Potential control : Ewe
Ewe ctrl range : min = -2.50 V, max = 2.50 V
Safety Limits :
	Do not start on E overload
Acquisition started on : 05/07/2026 23:27:51.851
Loaded Setting File :  C:\PEM-WE_measurements\2026\372_IV_IV IrOx, 5 min Pt, 30 min C, etched cathode\new station\Loopeis new\1,46 V different time gaps open cell\Loopeis 1,46V_180s_2_PEIS from 65kHz to 10kHz.mps
Saved on :
	File : L_27_Loopeis 1,46V_180s_2_PEIS from 65kHz to 10kHz_02_OCV_C01.mpr
	Directory : C:\PEM-WE_measurements\2026\372_IV_IV IrOx, 5 min Pt, 30 min C, etched cathode\new station\Loopeis new\1,46 V different time gaps open cell\
	Host : 192.168.0.2
Device : SP-150e (SN .005491)
Address : 192.168.0.91
EC-LAB for windows v11.71 (software)
Internet server v28.00 (firmware)
Command interpretor v14.01 (firmware)
Electrode material : 
Initial state : 
Electrolyte : 
Comments : 
Current amplifier : SP-150eB-20A
Electrode surface area : 0.001 cm²
Characteristic mass : 0.001 g
Equivalent Weight : 0.000 g/eq.
Density : 0.000 g/cm3
Volume (V) : 0.001 cm³
Record Analogic IN 1
Text export
   Mode : Standard
   Time format : Elapsed
Cycle Definition : Charge/Discharge alternance
tR (h:m:s)          0:03:0.0000         
dER/dt (mV/h)       1.0                 
record              <Ewe>               
dER (mV)            10.00               
dtR (s)             0.5000              
E range min (V)     -2.500              
E range max (V)     2.500               

mode	error	time/s	<Ewe/V>	Analog IN 1/V	
3	0	4.549979885057837E+001	1.2191794E+000	2.2950437E-005
3	0	4.599979883794731E+001	1.1669501E+000	-7.2477276E-005
3	0	4.649979882531625E+001	7.8742790E-001	-1.6790499E-004
3	0	4.699979881268519E+001	4.1522992E-001	-1.6790499E-004
3	0	4.749979880005412E+001	3.4440112E-001	-1.5220648E-005
3	0	4.799979878742306E+001	3.3287370E-001	-1.1064836E-004
3	0	4.849979877479200E+001	3.2524401E-001	-1.6790499E-004
3	0	4.899979876216094E+001	3.1926072E-001	-1.6790499E-004
3	0	4.949979874952987E+001	3.1471094E-001	-3.4306191E-005
3	0	4.999979873689881E+001	3.1120402E-001	-3.4306191E-005
3	0	5.049979872426775E+001	3.0842054E-001	-9.1562819E-005
3	0	5.099979871163669E+001	3.0614889E-001	-7.2477276E-005
3	0	5.149979869900562E+001	3.0426365E-001	-3.4306191E-005
3	0	5.199979868637456E+001	3.0267632E-001	3.8648941E-006
3	0	5.249979867374350E+001	3.0129215E-001	-7.2477276E-005
3	0	5.299979866111244E+001	3.0007225E-001	2.2950437E-005
3	0	5.349979864848137E+001	2.9897231E-001	-1.1064836E-004
3	0	5.399979863585031E+001	2.9794842E-001	6.1121522E-005
3	0	5.449979862321925E+001	2.9701343E-001	3.8648941E-006
3	0	5.499979861058819E+001	2.9613125E-001	8.0207064E-005
3	0	5.549979859795712E+001	2.9532430E-001	-1.5220648E-005
3	0	5.599979858532606E+001	2.9457560E-001	-2.0607607E-004
3	0	5.649979857269500E+001	2.9385227E-001	3.8648941E-006
3	0	5.699979856006394E+001	2.9315963E-001	-3.4306191E-005
3	0	5.749979854743287E+001	2.9248279E-001	1.5654923E-004
3	0	5.799979853480181E+001	2.9182196E-001	3.8648941E-006
3	0	5.849979852217075E+001	2.9116058E-001	4.2035979E-005
3	0	5.899979850953969E+001	2.9050276E-001	-1.8699054E-004
3	0	5.949979849690862E+001	2.8988397E-001	-3.4306191E-005
3	0	5.999979848427756E+001	2.8929406E-001	-7.2477276E-005
3	0	6.049979847164650E+001	2.8871429E-001	-7.2477276E-005
3	0	6.099979845901544E+001	2.8814855E-001	-3.4306191E-005
3	0	6.149979844638438E+001	2.8758299E-001	-1.1064836E-004
3	0	6.199979843375331E+001	2.8702781E-001	6.1121522E-005
3	0	6.249979842112225E+001	2.8645360E-001	-3.4306191E-005
3	0	6.299979840849119E+001	2.8588077E-001	-2.2516162E-004
3	0	6.349979839586013E+001	2.8533015E-001	-1.5220648E-005
3	0	6.399979838322906E+001	2.8480825E-001	8.0207064E-005
3	0	6.449979837059800E+001	2.8428686E-001	-9.1562819E-005
3	0	6.499979835796694E+001	2.8377101E-001	-7.2477276E-005
3	0	6.549979834533588E+001	2.8325897E-001	-1.5220648E-005
3	0	6.599979833270481E+001	2.8274095E-001	3.8648941E-006
3	0	6.649979832007375E+001	2.8222224E-001	3.8648941E-006
3	0	6.699979830744269E+001	2.8169283E-001	-1.4881945E-004
3	0	6.749979829481163E+001	2.8118908E-001	-1.5220648E-005
3	0	6.799979828218056E+001	2.8072062E-001	-1.6790499E-004
3	0	6.849979826954950E+001	2.8024250E-001	-1.2973390E-004
3	0	6.899979825691844E+001	2.7977407E-001	-7.2477276E-005
3	0	6.949979824428738E+001	2.7931613E-001	-1.5220648E-005
3	0	6.999979823165631E+001	2.7886090E-001	4.2035979E-005
3	0	7.049979821902525E+001	2.7838412E-001	2.2950437E-005
3	0	7.099979820639419E+001	2.7790061E-001	-1.2973390E-004
3	0	7.149979819376313E+001	2.7744219E-001	4.2035979E-005
3	0	7.199979818113206E+001	2.7700666E-001	3.8648941E-006
3	0	7.249979816850100E+001	2.7656710E-001	-7.2477276E-005
3	0	7.299979815586994E+001	2.7613407E-001	-9.1562819E-005
3	0	7.349979814323888E+001	2.7571070E-001	3.8648941E-006
3	0	7.399979813060781E+001	2.7528378E-001	8.0207064E-005
3	0	7.449979811797675E+001	2.7484059E-001	-7.2477276E-005
3	0	7.499979810534569E+001	2.7439588E-001	6.1121522E-005
3	0	7.549979809271463E+001	2.7397466E-001	4.2035979E-005
3	0	7.599979808008356E+001	2.7358791E-001	6.1121522E-005
3	0	7.649979806745250E+001	2.7318642E-001	-5.3391734E-005
3	0	7.699979805482144E+001	2.7278757E-001	-7.2477276E-005
3	0	7.749979804219038E+001	2.7239877E-001	-1.1064836E-004
3	0	7.799979802955932E+001	2.7201408E-001	-7.2477276E-005
3	0	7.849979801692825E+001	2.7160358E-001	-1.6790499E-004
3	0	7.899979800429719E+001	2.7117729E-001	-1.8699054E-004
3	0	7.949979799166613E+001	2.7079785E-001	4.2035979E-005
3	0	7.999979797903507E+001	2.7043226E-001	-1.5220648E-005
3	0	8.049979796640400E+001	2.7005783E-001	-1.1064836E-004
3	0	8.099979795377294E+001	2.6970106E-001	2.2950437E-005
3	0	8.149979794114188E+001	2.6934820E-001	-1.5220648E-005
3	0	8.199979792851082E+001	2.6898891E-001	-3.4306191E-005
3	0	8.249979791587975E+001	2.6861626E-001	-3.4306191E-005
3	0	8.299979790324869E+001	2.6823217E-001	8.0207064E-005
3	0	8.349979789061763E+001	2.6787502E-001	-2.4424717E-004
3	0	8.399979787798657E+001	2.6753595E-001	-9.1562819E-005
3	0	8.449979786535550E+001	2.6719588E-001	-3.4306191E-005
3	0	8.499979785272444E+001	2.6686323E-001	3.8648941E-006
3	0	8.549979784009338E+001	2.6652506E-001	8.0207064E-005
3	0	8.599979782746232E+001	2.6619223E-001	9.9292607E-005
3	0	8.649979781483125E+001	2.6584256E-001	-7.2477276E-005
3	0	8.699979780220019E+001	2.6548380E-001	-5.3391734E-005
3	0	8.749979778956913E+001	2.6515692E-001	-1.6790499E-004
3	0	8.799979777693807E+001	2.6484823E-001	3.8648941E-006
3	0	8.849979776430700E+001	2.6454788E-001	-3.4306191E-005
3	0	8.899979775167594E+001	2.6424408E-001	-3.4306191E-005
3	0	8.949979773904488E+001	2.6394647E-001	3.8648941E-006
3	0	8.999979772641382E+001	2.6364177E-001	8.0207064E-005
3	0	9.049979771378275E+001	2.6332402E-001	-3.4306191E-005
3	0	9.099979770115169E+001	2.6299405E-001	-1.5220648E-005
3	0	9.149979768852063E+001	2.6269767E-001	-1.5220648E-005
3	0	9.199979767588957E+001	2.6241454E-001	4.2035979E-005
3	0	9.249979766325851E+001	2.6213261E-001	-1.1064836E-004
3	0	9.299979765062744E+001	2.6185900E-001	-5.3391734E-005
3	0	9.349979763799638E+001	2.6157969E-001	-5.3391734E-005
3	0	9.399979762536532E+001	2.6130593E-001	-7.2477276E-005
3	0	9.449979761273426E+001	2.6101154E-001	-7.2477276E-005
3	0	9.499979760010319E+001	2.6070783E-001	-7.2477276E-005
3	0	9.549979758747213E+001	2.6043451E-001	-1.1064836E-004
3	0	9.599979757484107E+001	2.6018298E-001	-1.1064836E-004
3	0	9.649979756221001E+001	2.5992140E-001	-7.2477276E-005
3	0	9.699979754957894E+001	2.5967476E-001	-5.3391734E-005
3	0	9.749979753694788E+001	2.5942177E-001	-1.5220648E-005
3	0	9.799979752431682E+001	2.5916865E-001	3.8648941E-006
3	0	9.849979751168576E+001	2.5889567E-001	9.9292607E-005
3	0	9.899979749905469E+001	2.5861269E-001	-7.2477276E-005
3	0	9.949979748642363E+001	2.5835830E-001	2.2950437E-005
3	0	9.999979747379257E+001	2.5813317E-001	-5.3391734E-005
3	0	1.004997974611615E+002	2.5789863E-001	8.0207064E-005
3	0	1.009997974485304E+002	2.5767142E-001	-1.1064836E-004
3	0	1.014997974358994E+002	2.5743988E-001	3.8648941E-006
3	0	1.019997974232683E+002	2.5720406E-001	-1.6790499E-004
3	0	1.024997974106373E+002	2.5694987E-001	3.8648941E-006
3	0	1.029997973980062E+002	2.5669152E-001	-3.4306191E-005
3	0	1.034997973853751E+002	2.5645694E-001	-1.2973390E-004
3	0	1.039997973727441E+002	2.5624511E-001	8.0207064E-005
3	0	1.044997973601130E+002	2.5602552E-001	-1.5220648E-005
3	0	1.049997973474819E+002	2.5581166E-001	-9.1562819E-005
3	0	1.054997973348509E+002	2.5560451E-001	-1.5220648E-005
3	0	1.059997973222198E+002	2.5538549E-001	-1.5220648E-005
3	0	1.064997973095888E+002	2.5515401E-001	-1.4881945E-004
3	0	1.069997972969577E+002	2.5490782E-001	-5.3391734E-005
3	0	1.074997972843266E+002	2.5469455E-001	4.2035979E-005
3	0	1.079997972716956E+002	2.5450164E-001	-1.1064836E-004
3	0	1.084997972590645E+002	2.5430885E-001	-3.4306191E-005
3	0	1.089997972464334E+002	2.5411910E-001	3.8648941E-006
3	0	1.094997972338024E+002	2.5392044E-001	-1.2973390E-004
3	0	1.099997972211713E+002	2.5372732E-001	6.1121522E-005
3	0	1.104997972085403E+002	2.5351191E-001	-9.1562819E-005
3	0	1.109997971959092E+002	2.5328267E-001	-1.5220648E-005
3	0	1.114997971832781E+002	2.5309026E-001	-1.4881945E-004
3	0	1.119997971706471E+002	2.5291994E-001	-5.3391734E-005
3	0	1.124997971580160E+002	2.5274006E-001	-3.4306191E-005
3	0	1.129997971453849E+002	2.5256488E-001	-1.1064836E-004
3	0	1.134997971327539E+002	2.5238883E-001	4.2035979E-005
3	0	1.139997971201228E+002	2.5220284E-001	-3.4306191E-005
3	0	1.144997971074918E+002	2.5200248E-001	2.2950437E-005
3	0	1.149997970948607E+002	2.5178605E-001	2.2950437E-005
3	0	1.154997970822296E+002	2.5160757E-001	2.2950437E-005
3	0	1.159997970695986E+002	2.5144663E-001	-7.2477276E-005
3	0	1.164997970569675E+002	2.5127697E-001	-9.1562819E-005
3	0	1.169997970443364E+002	2.5111425E-001	-1.1064836E-004
3	0	1.174997970317054E+002	2.5095093E-001	-7.2477276E-005
3	0	1.179997970190743E+002	2.5078127E-001	-7.2477276E-005
3	0	1.184997970064433E+002	2.5059450E-001	-3.4306191E-005
3	0	1.189997969938122E+002	2.5039482E-001	9.9292607E-005
3	0	1.194997969811811E+002	2.5022313E-001	2.2950437E-005
3	0	1.199997969685501E+002	2.5007263E-001	-2.2516162E-004
3	0	1.204997969559190E+002	2.4991563E-001	2.2950437E-005
3	0	1.209997969432879E+002	2.4977183E-001	-7.2477276E-005
3	0	1.214997969306569E+002	2.4961370E-001	-3.4306191E-005
3	0	1.219997969180258E+002	2.4945766E-001	-1.5220648E-005
3	0	1.224997969053948E+002	2.4928840E-001	2.2950437E-005
3	0	1.229997968927637E+002	2.4909677E-001	2.2950437E-005
3	0	1.234997968801326E+002	2.4893409E-001	-9.1562819E-005
3	0	1.239997968675016E+002	2.4879660E-001	-5.3391734E-005
3	0	1.244997968548705E+002	2.4865286E-001	-3.4306191E-005
3	0	1.249997968422394E+002	2.4850194E-001	-1.1064836E-004
3	0	1.254997968296084E+002	2.4835552E-001	-1.5220648E-005
3	0	1.259997968169773E+002	2.4820670E-001	-1.1064836E-004
3	0	1.264997968043463E+002	2.4803901E-001	-3.4306191E-005
3	0	1.269997967917152E+002	2.4786229E-001	3.8648941E-006
3	0	1.274997967790841E+002	2.4771181E-001	3.8648941E-006
3	0	1.279997967664531E+002	2.4758779E-001	-9.1562819E-005
3	0	1.284997967538220E+002	2.4745223E-001	-7.2477276E-005
3	0	1.289997967411909E+002	2.4732096E-001	-3.4306191E-005
3	0	1.294997967285599E+002	2.4718302E-001	-3.4306191E-005
3	0	1.299997967159288E+002	2.4705003E-001	-9.1562819E-005
3	0	1.304997967032978E+002	2.4689338E-001	-7.2477276E-005
3	0	1.309997966906667E+002	2.4672557E-001	-1.2973390E-004
3	0	1.314997966780356E+002	2.4659093E-001	-1.5220648E-005
3	0	1.319997966654046E+002	2.4647340E-001	-3.4306191E-005
3	0	1.324997966527735E+002	2.4635237E-001	-3.4306191E-005
3	0	1.329997966401424E+002	2.4623191E-001	-3.4306191E-005
3	0	1.334997966275114E+002	2.4610761E-001	2.2950437E-005
3	0	1.339997966148803E+002	2.4598061E-001	-5.3391734E-005
3	0	1.344997966022493E+002	2.4583998E-001	-7.2477276E-005
3	0	1.349997965896182E+002	2.4567834E-001	-1.5220648E-005
3	0	1.354997965769871E+002	2.4554884E-001	9.9292607E-005
3	0	1.359997965643561E+002	2.4543650E-001	-3.4306191E-005
3	0	1.364997965517250E+002	2.4532452E-001	2.2950437E-005
3	0	1.369997965390940E+002	2.4521300E-001	-3.4306191E-005
3	0	1.374997965264629E+002	2.4510007E-001	4.2035979E-005
3	0	1.379997965138318E+002	2.4498224E-001	-1.8699054E-004
3	0	1.384997965012008E+002	2.4484049E-001	6.1121522E-005
3	0	1.389997964885697E+002	2.4468361E-001	-7.2477276E-005
3	0	1.394997964759386E+002	2.4456216E-001	-1.1064836E-004
3	0	1.399997964633076E+002	2.4446480E-001	-3.4306191E-005
3	0	1.404997964506765E+002	2.4436204E-001	-5.3391734E-005
3	0	1.409997964380455E+002	2.4425401E-001	4.2035979E-005
3	0	1.414997964254144E+002	2.4414818E-001	-1.1064836E-004
3	0	1.419997964127833E+002	2.4403697E-001	-7.2477276E-005
3	0	1.424997964001523E+002	2.4391207E-001	2.2950437E-005
3	0	1.429997963875212E+002	2.4376397E-001	4.2035979E-005
3	0	1.434997963748901E+002	2.4364528E-001	-1.1064836E-004
3	0	1.439997963622591E+002	2.4354503E-001	-1.1064836E-004
3	0	1.444997963496280E+002	2.4344403E-001	-9.1562819E-005
3	0	1.449997963369970E+002	2.4334206E-001	-3.4306191E-005
3	0	1.454997963243659E+002	2.4324484E-001	-7.2477276E-005
3	0	1.459997963117348E+002	2.4313609E-001	6.1121522E-005
3	0	1.464997962991038E+002	2.4301104E-001	9.9292607E-005
3	0	1.469997962864727E+002	2.4286208E-001	-9.1562819E-005
3	0	1.474997962738416E+002	2.4274811E-001	4.2035979E-005
3	0	1.479997962612106E+002	2.4266009E-001	2.2950437E-005
3	0	1.484997962485795E+002	2.4255836E-001	-2.2516162E-004
3	0	1.489997962359485E+002	2.4246451E-001	-1.2973390E-004
3	0	1.494997962233174E+002	2.4237105E-001	-7.2477276E-005
3	0	1.499997962106863E+002	2.4227415E-001	6.1121522E-005
3	0	1.504997961980553E+002	2.4214999E-001	-9.1562819E-005
3	0	1.509997961854242E+002	2.4201405E-001	-1.2973390E-004
3	0	1.514997961727931E+002	2.4190836E-001	-1.5220648E-005
3	0	1.519997961601621E+002	2.4182872E-001	-1.2973390E-004
3	0	1.524997961475310E+002	2.4173729E-001	-1.4881945E-004
3	0	1.529997961349000E+002	2.4165048E-001	-3.4306191E-005
3	0	1.534997961222689E+002	2.4156441E-001	2.2950437E-005
3	0	1.539997961096378E+002	2.4146952E-001	-5.3391734E-005
3	0	1.544997960970068E+002	2.4136136E-001	-5.3391734E-005
3	0	1.549997960843757E+002	2.4123257E-001	-5.3391734E-005
3	0	1.554997960717446E+002	2.4113627E-001	3.8648941E-006
3	0	1.559997960591136E+002	2.4105860E-001	-1.1064836E-004
3	0	1.564997960464825E+002	2.4097320E-001	-1.5220648E-005
3	0	1.569997960338515E+002	2.4089369E-001	-1.5220648E-005
3	0	1.574997960212204E+002	2.4081022E-001	-1.5220648E-005
3	0	1.579997960085893E+002	2.4072646E-001	-2.0607607E-004
3	0	1.584997959959583E+002	2.4061923E-001	-3.4306191E-005
3	0	1.589997959833272E+002	2.4049664E-001	-3.4306191E-005
3	0	1.594997959706961E+002	2.4040186E-001	4.2035979E-005
3	0	1.599997959580651E+002	2.4033456E-001	-3.4306191E-005
3	0	1.604997959454340E+002	2.4025309E-001	2.2950437E-005
3	0	1.609997959328030E+002	2.4017848E-001	-3.4306191E-005
3	0	1.614997959201719E+002	2.4009547E-001	4.2035979E-005
3	0	1.619997959075408E+002	2.3997977E-001	-1.5220648E-005
3	0	1.624997958949098E+002	2.3988605E-001	-1.5220648E-005
3	0	1.629997958822787E+002	2.3979022E-001	2.2950437E-005
3	0	1.634997958696476E+002	2.3971094E-001	-9.1562819E-005
3	0	1.639997958570166E+002	2.3965311E-001	2.2950437E-005
3	0	1.644997958443855E+002	2.3957865E-001	-7.2477276E-005
3	0	1.649997958317545E+002	2.3950587E-001	-3.4306191E-005
3	0	1.654997958191234E+002	2.3942462E-001	1.1837815E-004
3	0	1.659997958064923E+002	2.3934081E-001	-1.4881945E-004
3	0	1.664997957938613E+002	2.3923090E-001	-7.2477276E-005
3	0	1.669997957812302E+002	2.3910789E-001	6.1121522E-005
3	0	1.674997957685991E+002	2.3901331E-001	6.1121522E-005
3	0	1.679997957559681E+002	2.3894952E-001	3.8648941E-006
3	0	1.684997957433370E+002	2.3888130E-001	6.1121522E-005
3	0	1.689997957307060E+002	2.3880494E-001	3.8648941E-006
3	0	1.694997957180749E+002	2.3872811E-001	-1.5220648E-005
3	0	1.699997957054438E+002	2.3864454E-001	-3.4306191E-005
3	0	1.704997956928128E+002	2.3854212E-001	-1.1064836E-004
3	0	1.709997956801817E+002	2.3842230E-001	-1.8699054E-004
3	0	1.714997956675506E+002	2.3833531E-001	-1.2973390E-004
3	0	1.719997956549196E+002	2.3827755E-001	-3.4306191E-005
3	0	1.724997956422885E+002	2.3821747E-001	-3.4306191E-005
3	0	1.729997956296575E+002	2.3814991E-001	-1.6790499E-004
3	0	1.734997956170264E+002	2.3807751E-001	-3.4306191E-005
3	0	1.739997956043953E+002	2.3800412E-001	-1.1064836E-004
3	0	1.744997955917643E+002	2.3790662E-001	-7.2477276E-005
3	0	1.749997955791332E+002	2.3778766E-001	-7.2477276E-005
3	0	1.754997955665021E+002	2.3770159E-001	-1.1064836E-004
3	0	1.759997955538711E+002	2.3764662E-001	1.1837815E-004
3	0	1.764997955412400E+002	2.3758101E-001	-9.1562819E-005
3	0	1.769997955286090E+002	2.3751719E-001	4.2035979E-005
3	0	1.774997955159779E+002	2.3744541E-001	-1.1064836E-004
3	0	1.779997955033468E+002	2.3738040E-001	-5.3391734E-005
3	0	1.784997954907158E+002	2.3728608E-001	-3.4306191E-005
3	0	1.789997954780847E+002	2.3717335E-001	-5.3391734E-005
3	0	1.794997954654536E+002	2.3709308E-001	-3.4306191E-005
3	0	1.799997954528226E+002	2.3704289E-001	3.8648941E-006
3	0	1.804997954401915E+002	2.3697975E-001	-5.3391734E-005
3	0	1.809997954275605E+002	2.3692182E-001	-1.1064836E-004
3	0	1.814997954149294E+002	2.3685858E-001	-1.1064836E-004
3	0	1.819997954022983E+002	2.3678328E-001	-3.4306191E-005
3	0	1.824997953896673E+002	2.3668694E-001	3.8648941E-006
3	0	1.829997953770362E+002	2.3657580E-001	4.2035979E-005
3	0	1.834997953644051E+002	2.3649056E-001	-5.3391734E-005
3	0	1.839997953517741E+002	2.3643598E-001	3.8648941E-006
3	0	1.844997953391430E+002	2.3637040E-001	3.8648941E-006
3	0	1.849997953265120E+002	2.3630567E-001	-7.2477276E-005
3	0	1.854997953138809E+002	2.3623620E-001	-7.2477276E-005
3	0	1.859997953012498E+002	2.3615977E-001	-1.1064836E-004
3	0	1.864997952886188E+002	2.3606034E-001	-9.1562819E-005
3	0	1.869997952759877E+002	2.3594891E-001	-9.1562819E-005
3	0	1.874997952633566E+002	2.3587066E-001	-2.2516162E-004
3	0	1.879997952507256E+002	2.3581959E-001	-1.1064836E-004
3	0	1.884997952380945E+002	2.3576032E-001	-5.3391734E-005
3	0	1.889997952254635E+002	2.3570348E-001	2.2950437E-005
3	0	1.894997952128324E+002	2.3564564E-001	-1.5220648E-005
3	0	1.899997952002013E+002	2.3557906E-001	-9.1562819E-005
3	0	1.904997951875703E+002	2.3548804E-001	-9.1562819E-005
3	0	1.909997951749392E+002	2.3538609E-001	-7.2477276E-005
3	0	1.914997951623081E+002	2.3531054E-001	-5.3391734E-005
3	0	1.919997951496771E+002	2.3526570E-001	4.2035979E-005
3	0	1.924997951370460E+002	2.3521356E-001	-3.4306191E-005
3	0	1.929997951244150E+002	2.3515221E-001	-1.1064836E-004
3	0	1.934997951117839E+002	2.3509750E-001	2.2950437E-005
3	0	1.939997950991528E+002	2.3502874E-001	-1.2973390E-004
3	0	1.944997950865218E+002	2.3494296E-001	6.1121522E-005
3	0	1.949997950738907E+002	2.3483668E-001	-3.4306191E-005
3	0	1.954997950612596E+002	2.3476662E-001	3.8648941E-006
3	0	1.959997950486286E+002	2.3472042E-001	4.2035979E-005
3	0	1.964997950359975E+002	2.3467614E-001	-5.3391734E-005
3	0	1.969997950233665E+002	2.3461632E-001	-1.2973390E-004
3	0	1.974997950107354E+002	2.3456734E-001	3.8648941E-006
3	0	1.979997949981043E+002	2.3450352E-001	-3.4306191E-005
3	0	1.984997949854733E+002	2.3441781E-001	-9.1562819E-005
3	0	1.989997949728422E+002	2.3431730E-001	3.8648941E-006
3	0	1.994997949602111E+002	2.3425128E-001	-3.4306191E-005
3	0	1.999997949475801E+002	2.3420633E-001	-1.5220648E-005
3	0	2.004997949349490E+002	2.3415780E-001	3.8648941E-006
3	0	2.009997949223180E+002	2.3410739E-001	-1.5220648E-005
3	0	2.014997949096869E+002	2.3405953E-001	8.0207064E-005
3	0	2.019997948970558E+002	2.3400086E-001	-5.3391734E-005
3	0	2.024997948844248E+002	2.3392108E-001	-9.1562819E-005
3	0	2.029997948717937E+002	2.3381068E-001	-9.1562819E-005
3	0	2.034997948591626E+002	2.3374268E-001	6.1121522E-005
3	0	2.039997948465316E+002	2.3370324E-001	-2.0607607E-004
3	0	2.044997948339005E+002	2.3365360E-001	-5.3391734E-005
3	0	2.049997948212695E+002	2.3360030E-001	-1.2973390E-004
3	0	2.054997948086384E+002	2.3354146E-001	-1.4881945E-004
3	0	2.059997947960073E+002	2.3348163E-001	4.2035979E-005
3	0	2.064997947833763E+002	2.3339254E-001	-3.4306191E-005
3	0	2.069997947707452E+002	2.3329443E-001	-3.4306191E-005
3	0	2.074997947581141E+002	2.3321898E-001	-1.1064836E-004
3	0	2.079997947454831E+002	2.3317553E-001	6.1121522E-005
3	0	2.084997947328520E+002	2.3313348E-001	6.1121522E-005
3	0	2.089997947202210E+002	2.3308358E-001	-1.1064836E-004
3	0	2.094997947075899E+002	2.3303002E-001	3.8648941E-006
3	0	2.099997946949588E+002	2.3297656E-001	2.2950437E-005
3	0	2.104997946823278E+002	2.3289149E-001	-1.5220648E-005
3	0	2.109997946696967E+002	2.3279075E-001	-7.2477276E-005
3	0	2.114997946570657E+002	2.3272249E-001	-1.5220648E-005
3	0	2.119997946444346E+002	2.3268488E-001	-7.2477276E-005
3	0	2.124997946318035E+002	2.3264086E-001	-1.5220648E-005
3	0	2.129997946191725E+002	2.3259036E-001	-1.1064836E-004
3	0	2.134997946065414E+002	2.3254593E-001	-1.2973390E-004
3	0	2.139997945939103E+002	2.3249097E-001	-1.5220648E-005
3	0	2.144997945812793E+002	2.3241138E-001	-1.5220648E-005
3	0	2.149997945686482E+002	2.3231536E-001	-9.1562819E-005
3	0	2.154997945560172E+002	2.3225048E-001	2.2950437E-005
3	0	2.159997945433861E+002	2.3221266E-001	-9.1562819E-005
3	0	2.164997945307550E+002	2.3217726E-001	-7.2477276E-005
3	0	2.169997945181240E+002	2.3212960E-001	-5.3391734E-005
3	0	2.174997945054929E+002	2.3208448E-001	-1.5220648E-005
3	0	2.179997944928618E+002	2.3202865E-001	3.8648941E-006
3	0	2.184997944802308E+002	2.3195682E-001	6.1121522E-005
3	0	2.189997944675997E+002	2.3186192E-001	-9.1562819E-005
3	0	2.194997944549687E+002	2.3179184E-001	3.8648941E-006
3	0	2.199997944423376E+002	2.3176138E-001	-2.6333271E-004
3	0	2.204997944297065E+002	2.3173085E-001	-7.2477276E-005
3	0	2.209997944170755E+002	2.3168671E-001	-1.4881945E-004
3	0	2.214997944044444E+002	2.3164476E-001	-3.4306191E-005
3	0	2.219997943918133E+002	2.3159552E-001	-2.2516162E-004
3	0	2.224997943791823E+002	2.3151650E-001	-1.5220648E-005
3	0	2.229997943665512E+002	2.3142163E-001	-1.8699054E-004
3	0	2.234997943539202E+002	2.3136143E-001	-1.5220648E-005
3	0	2.239997943412891E+002	2.3132782E-001	-1.5220648E-005
3	0	2.244997943286580E+002	2.3128776E-001	4.2035979E-005
3	0	2.249997943160270E+002	2.3124491E-001	6.1121522E-005
3	0	2.250001943160169E+002	2.3117061E-001	-3.4306191E-005