EC-Lab ASCII FILE
Nb header lines : 48                          

Open Circuit Voltage

Run on channel : 1 (SN 81504)
User : 
CE vs. WE compliance from -10 V to 10 V
Electrode connection : standard
Potential control : Ewe
Ewe ctrl range : min = -2.50 V, max = 2.50 V
Safety Limits :
	Do not start on E overload
Acquisition started on : 05/07/2026 23:27:51.851
Loaded Setting File :  C:\PEM-WE_measurements\2026\372_IV_IV IrOx, 5 min Pt, 30 min C, etched cathode\new station\Loopeis new\1,46 V different time gaps open cell\Loopeis 1,46V_180s_2_PEIS from 65kHz to 10kHz.mps
Saved on :
	File : L_27_Loopeis 1,46V_180s_2_PEIS from 65kHz to 10kHz_16_OCV_C01.mpr
	Directory : C:\PEM-WE_measurements\2026\372_IV_IV IrOx, 5 min Pt, 30 min C, etched cathode\new station\Loopeis new\1,46 V different time gaps open cell\
	Host : 192.168.0.2
Device : SP-150e (SN .005491)
Address : 192.168.0.91
EC-LAB for windows v11.71 (software)
Internet server v28.00 (firmware)
Command interpretor v14.01 (firmware)
Electrode material : 
Initial state : 
Electrolyte : 
Comments : 
Current amplifier : SP-150eB-20A
Electrode surface area : 0.001 cm²
Characteristic mass : 0.001 g
Equivalent Weight : 0.000 g/eq.
Density : 0.000 g/cm3
Volume (V) : 0.001 cm³
Record Analogic IN 1
Text export
   Mode : Standard
   Time format : Elapsed
Cycle Definition : Charge/Discharge alternance
tR (h:m:s)          0:03:0.0000         
dER/dt (mV/h)       1.0                 
record              <Ewe>               
dER (mV)            10.00               
dtR (s)             0.5000              
E range min (V)     -2.500              
E range max (V)     2.500               

mode	error	time/s	<Ewe/V>	Analog IN 1/V	
3	0	1.622397372251580E+003	9.3377715E-001	-1.1064836E-004
3	0	1.622897372238949E+003	1.1302531E+000	-1.1064836E-004
3	0	1.623397372226318E+003	7.5293273E-001	3.8648941E-006
3	0	1.623897372213687E+003	3.9018786E-001	-9.1562819E-005
3	0	1.624397372201056E+003	3.2249439E-001	-5.3391734E-005
3	0	1.624897372188425E+003	3.1291938E-001	-1.6790499E-004
3	0	1.625397372175794E+003	3.0633441E-001	-3.4306191E-005
3	0	1.625897372163163E+003	3.0087528E-001	-1.5220648E-005
3	0	1.626397372150532E+003	2.9659855E-001	6.1121522E-005
3	0	1.626897372137901E+003	2.9327193E-001	-1.4881945E-004
3	0	1.627397372125270E+003	2.9063141E-001	3.8648941E-006
3	0	1.627897372112639E+003	2.8848228E-001	-1.2973390E-004
3	0	1.628397372100007E+003	2.8669378E-001	-5.3391734E-005
3	0	1.628897372087376E+003	2.8516269E-001	-3.4306191E-005
3	0	1.629397372074745E+003	2.8383163E-001	-2.0607607E-004
3	0	1.629897372062114E+003	2.8263095E-001	1.3746369E-004
3	0	1.630397372049483E+003	2.8155988E-001	-1.2973390E-004
3	0	1.630897372036852E+003	2.8061631E-001	-1.5220648E-005
3	0	1.631397372024221E+003	2.7975702E-001	-3.4306191E-005
3	0	1.631897372011590E+003	2.7896032E-001	-1.8699054E-004
3	0	1.632397371998959E+003	2.7820924E-001	2.2950437E-005
3	0	1.632897371986328E+003	2.7748427E-001	2.2950437E-005
3	0	1.633397371973697E+003	2.7678725E-001	-1.2973390E-004
3	0	1.633897371961066E+003	2.7608585E-001	-3.4306191E-005
3	0	1.634397371948435E+003	2.7542409E-001	2.2950437E-005
3	0	1.634897371935804E+003	2.7481633E-001	-1.1064836E-004
3	0	1.635397371923173E+003	2.7423435E-001	3.8648941E-006
3	0	1.635897371910542E+003	2.7365810E-001	6.1121522E-005
3	0	1.636397371897910E+003	2.7309304E-001	6.1121522E-005
3	0	1.636897371885279E+003	2.7253300E-001	-1.6790499E-004
3	0	1.637397371872648E+003	2.7198052E-001	3.8648941E-006
3	0	1.637897371860017E+003	2.7140513E-001	-1.4881945E-004
3	0	1.638397371847386E+003	2.7085128E-001	-3.4306191E-005
3	0	1.638897371834755E+003	2.7033123E-001	2.2950437E-005
3	0	1.639397371822124E+003	2.6982570E-001	-2.0607607E-004
3	0	1.639897371809493E+003	2.6932812E-001	-5.3391734E-005
3	0	1.640397371796862E+003	2.6883546E-001	-1.4881945E-004
3	0	1.640897371784231E+003	2.6834202E-001	1.7563478E-004
3	0	1.641397371771600E+003	2.6784137E-001	-1.1064836E-004
3	0	1.641897371758969E+003	2.6732227E-001	-7.2477276E-005
3	0	1.642397371746338E+003	2.6681852E-001	-3.4306191E-005
3	0	1.642897371733707E+003	2.6634797E-001	3.8648941E-006
3	0	1.643397371721076E+003	2.6589271E-001	-1.1064836E-004
3	0	1.643897371708445E+003	2.6543346E-001	-7.2477276E-005
3	0	1.644397371695813E+003	2.6497418E-001	-1.6790499E-004
3	0	1.644897371683182E+003	2.6452717E-001	-5.3391734E-005
3	0	1.645397371670551E+003	2.6405796E-001	8.0207064E-005
3	0	1.645897371657920E+003	2.6358041E-001	4.2035979E-005
3	0	1.646397371645289E+003	2.6311651E-001	-7.2477276E-005
3	0	1.646897371632658E+003	2.6268730E-001	-3.4306191E-005
3	0	1.647397371620027E+003	2.6226234E-001	-1.1064836E-004
3	0	1.647897371607396E+003	2.6183361E-001	-5.3391734E-005
3	0	1.648397371594765E+003	2.6141834E-001	-1.5220648E-005
3	0	1.648897371582134E+003	2.6099610E-001	-1.5220648E-005
3	0	1.649397371569503E+003	2.6056626E-001	6.1121522E-005
3	0	1.649897371556872E+003	2.6011688E-001	-3.4306191E-005
3	0	1.650397371544241E+003	2.5968769E-001	-1.2973390E-004
3	0	1.650897371531610E+003	2.5928804E-001	-1.1064836E-004
3	0	1.651397371518979E+003	2.5889653E-001	-7.2477276E-005
3	0	1.651897371506348E+003	2.5850368E-001	3.8648941E-006
3	0	1.652397371493716E+003	2.5811559E-001	-1.5220648E-005
3	0	1.652897371481085E+003	2.5772998E-001	-5.3391734E-005
3	0	1.653397371468454E+003	2.5733146E-001	-3.4306191E-005
3	0	1.653897371455823E+003	2.5691029E-001	-7.2477276E-005
3	0	1.654397371443192E+003	2.5650764E-001	-2.0607607E-004
3	0	1.654897371430561E+003	2.5614575E-001	-1.1064836E-004
3	0	1.655397371417930E+003	2.5578243E-001	-2.0607607E-004
3	0	1.655897371405299E+003	2.5542179E-001	3.8648941E-006
3	0	1.656397371392668E+003	2.5505981E-001	-3.4306191E-005
3	0	1.656897371380037E+003	2.5469980E-001	6.1121522E-005
3	0	1.657397371367406E+003	2.5433552E-001	3.8648941E-006
3	0	1.657897371354775E+003	2.5394785E-001	-1.2973390E-004
3	0	1.658397371342144E+003	2.5357610E-001	-3.4306191E-005
3	0	1.658897371329513E+003	2.5324753E-001	-1.5220648E-005
3	0	1.659397371316882E+003	2.5292033E-001	6.1121522E-005
3	0	1.659897371304251E+003	2.5258160E-001	4.2035979E-005
3	0	1.660397371291619E+003	2.5225145E-001	-9.1562819E-005
3	0	1.660897371278988E+003	2.5192374E-001	-1.2973390E-004
3	0	1.661397371266357E+003	2.5158185E-001	6.1121522E-005
3	0	1.661897371253726E+003	2.5122198E-001	-1.8699054E-004
3	0	1.662397371241095E+003	2.5088105E-001	-9.1562819E-005
3	0	1.662897371228464E+003	2.5058037E-001	-1.5220648E-005
3	0	1.663397371215833E+003	2.5027433E-001	-3.4306191E-005
3	0	1.663897371203202E+003	2.4996755E-001	1.3746369E-004
3	0	1.664397371190571E+003	2.4967049E-001	-3.4306191E-005
3	0	1.664897371177940E+003	2.4937125E-001	-1.1064836E-004
3	0	1.665397371165309E+003	2.4905872E-001	-7.2477276E-005
3	0	1.665897371152678E+003	2.4871825E-001	2.2950437E-005
3	0	1.666397371140047E+003	2.4840541E-001	-3.4306191E-005
3	0	1.666897371127416E+003	2.4812701E-001	-1.2973390E-004
3	0	1.667397371114785E+003	2.4785477E-001	-1.2973390E-004
3	0	1.667897371102154E+003	2.4757457E-001	-1.2973390E-004
3	0	1.668397371089522E+003	2.4728905E-001	-5.3391734E-005
3	0	1.668897371076891E+003	2.4701495E-001	-5.3391734E-005
3	0	1.669397371064260E+003	2.4671605E-001	-2.2516162E-004
3	0	1.669897371051629E+003	2.4641111E-001	2.2950437E-005
3	0	1.670397371038998E+003	2.4611336E-001	-3.4306191E-005
3	0	1.670897371026367E+003	2.4586110E-001	-5.3391734E-005
3	0	1.671397371013736E+003	2.4560924E-001	-1.1064836E-004
3	0	1.671897371001105E+003	2.4535608E-001	-1.4881945E-004
3	0	1.672397370988474E+003	2.4510238E-001	-7.2477276E-005
3	0	1.672897370975843E+003	2.4484296E-001	-1.1064836E-004
3	0	1.673397370963212E+003	2.4456510E-001	3.8648941E-006
3	0	1.673897370950581E+003	2.4427575E-001	-7.2477276E-005
3	0	1.674397370937950E+003	2.4400182E-001	3.8648941E-006
3	0	1.674897370925319E+003	2.4376346E-001	-1.1064836E-004
3	0	1.675397370912688E+003	2.4352969E-001	-5.3391734E-005
3	0	1.675897370900057E+003	2.4329217E-001	-3.4306191E-005
3	0	1.676397370887426E+003	2.4306059E-001	-5.3391734E-005
3	0	1.676897370874794E+003	2.4283175E-001	-1.1064836E-004
3	0	1.677397370862163E+003	2.4258253E-001	6.1121522E-005
3	0	1.677897370849532E+003	2.4231379E-001	4.2035979E-005
3	0	1.678397370836901E+003	2.4206178E-001	-1.1064836E-004
3	0	1.678897370824270E+003	2.4185602E-001	4.2035979E-005
3	0	1.679397370811639E+003	2.4164070E-001	-1.5220648E-005
3	0	1.679897370799008E+003	2.4142966E-001	-1.5220648E-005
3	0	1.680397370786377E+003	2.4121249E-001	-1.5220648E-005
3	0	1.680897370773746E+003	2.4099608E-001	-2.0607607E-004
3	0	1.681397370761115E+003	2.4077144E-001	-7.2477276E-005
3	0	1.681897370748484E+003	2.4052894E-001	1.1837815E-004
3	0	1.682397370735853E+003	2.4029630E-001	-3.4306191E-005
3	0	1.682897370723222E+003	2.4011065E-001	-5.3391734E-005
3	0	1.683397370710591E+003	2.3992050E-001	-5.3391734E-005
3	0	1.683897370697960E+003	2.3972742E-001	-9.1562819E-005
3	0	1.684397370685329E+003	2.3954275E-001	6.1121522E-005
3	0	1.684897370672697E+003	2.3934601E-001	-9.1562819E-005
3	0	1.685397370660066E+003	2.3913407E-001	8.0207064E-005
3	0	1.685897370647435E+003	2.3890455E-001	-1.5220648E-005
3	0	1.686397370634804E+003	2.3868886E-001	-9.1562819E-005
3	0	1.686897370622173E+003	2.3850408E-001	-3.4306191E-005
3	0	1.687397370609542E+003	2.3833144E-001	-1.8699054E-004
3	0	1.687897370596911E+003	2.3815516E-001	4.2035979E-005
3	0	1.688397370584280E+003	2.3797671E-001	4.2035979E-005
3	0	1.688897370571649E+003	2.3780407E-001	3.8648941E-006
3	0	1.689397370559018E+003	2.3761137E-001	-9.1562819E-005
3	0	1.689897370546387E+003	2.3738310E-001	-1.2973390E-004
3	0	1.690397370533756E+003	2.3718156E-001	-5.3391734E-005
3	0	1.690897370521125E+003	2.3701850E-001	-3.4306191E-005
3	0	1.691397370508494E+003	2.3685494E-001	-1.5220648E-005
3	0	1.691897370495863E+003	2.3668775E-001	2.2950437E-005
3	0	1.692397370483232E+003	2.3652436E-001	3.8648941E-006
3	0	1.692897370470600E+003	2.3635155E-001	-3.4306191E-005
3	0	1.693397370457969E+003	2.3615025E-001	-1.4881945E-004
3	0	1.693897370445338E+003	2.3593873E-001	-3.4306191E-005
3	0	1.694397370432707E+003	2.3574877E-001	-7.2477276E-005
3	0	1.694897370420076E+003	2.3559400E-001	-7.2477276E-005
3	0	1.695397370407445E+003	2.3543800E-001	-5.3391734E-005
3	0	1.695897370394814E+003	2.3528244E-001	2.2950437E-005
3	0	1.696397370382183E+003	2.3512615E-001	9.9292607E-005
3	0	1.696897370369552E+003	2.3495997E-001	3.8648941E-006
3	0	1.697397370356921E+003	2.3477389E-001	3.8648941E-006
3	0	1.697897370344290E+003	2.3458143E-001	-1.1064836E-004
3	0	1.698397370331659E+003	2.3440401E-001	-1.1064836E-004
3	0	1.698897370319028E+003	2.3426558E-001	-1.4881945E-004
3	0	1.699397370306397E+003	2.3412284E-001	-9.1562819E-005
3	0	1.699897370293766E+003	2.3398060E-001	-7.2477276E-005
3	0	1.700397370281135E+003	2.3383453E-001	-9.1562819E-005
3	0	1.700897370268503E+003	2.3368385E-001	3.8648941E-006
3	0	1.701397370255872E+003	2.3352030E-001	-7.2477276E-005
3	0	1.701897370243241E+003	2.3334256E-001	-9.1562819E-005
3	0	1.702397370230610E+003	2.3318346E-001	3.8648941E-006
3	0	1.702897370217979E+003	2.3305722E-001	6.1121522E-005
3	0	1.703397370205348E+003	2.3293266E-001	-1.1064836E-004
3	0	1.703897370192717E+003	2.3280157E-001	-1.5220648E-005
3	0	1.704397370180086E+003	2.3266914E-001	-3.4306191E-005
3	0	1.704897370167455E+003	2.3253709E-001	-7.2477276E-005
3	0	1.705397370154824E+003	2.3238109E-001	-1.1064836E-004
3	0	1.705897370142193E+003	2.3221305E-001	2.2950437E-005
3	0	1.706397370129562E+003	2.3205824E-001	-1.1064836E-004
3	0	1.706897370116931E+003	2.3194544E-001	-1.4881945E-004
3	0	1.707397370104300E+003	2.3183128E-001	-9.1562819E-005
3	0	1.707897370091669E+003	2.3171176E-001	8.0207064E-005
3	0	1.708397370079038E+003	2.3158588E-001	-1.6790499E-004
3	0	1.708897370066406E+003	2.3145878E-001	9.9292607E-005
3	0	1.709397370053775E+003	2.3131427E-001	3.8648941E-006
3	0	1.709897370041144E+003	2.3115048E-001	-9.1562819E-005
3	0	1.710397370028513E+003	2.3101085E-001	-1.5220648E-005
3	0	1.710897370015882E+003	2.3090164E-001	-9.1562819E-005
3	0	1.711397370003251E+003	2.3079586E-001	2.2950437E-005
3	0	1.711897369990620E+003	2.3068443E-001	-5.3391734E-005
3	0	1.712397369977989E+003	2.3057348E-001	9.9292607E-005
3	0	1.712897369965358E+003	2.3046285E-001	-1.4881945E-004
3	0	1.713397369952727E+003	2.3032801E-001	-9.1562819E-005
3	0	1.713897369940096E+003	2.3017514E-001	-3.4306191E-005
3	0	1.714397369927465E+003	2.3003265E-001	-3.4306191E-005
3	0	1.714897369914834E+003	2.2992745E-001	-7.2477276E-005
3	0	1.715397369902203E+003	2.2982101E-001	-1.5220648E-005
3	0	1.715897369889572E+003	2.2971654E-001	-1.1064836E-004
3	0	1.716397369876941E+003	2.2960660E-001	-5.3391734E-005
3	0	1.716897369864309E+003	2.2949190E-001	3.8648941E-006
3	0	1.717397369851678E+003	2.2936055E-001	-3.4306191E-005
3	0	1.717897369839047E+003	2.2921285E-001	3.8648941E-006
3	0	1.718397369826416E+003	2.2907972E-001	6.1121522E-005
3	0	1.718897369813785E+003	2.2898707E-001	3.8648941E-006
3	0	1.719397369801154E+003	2.2890197E-001	-9.1562819E-005
3	0	1.719897369788523E+003	2.2880770E-001	-1.4881945E-004
3	0	1.720397369775892E+003	2.2871099E-001	1.1837815E-004
3	0	1.720897369763261E+003	2.2860995E-001	-3.4306191E-005
3	0	1.721397369750630E+003	2.2848509E-001	9.9292607E-005
3	0	1.721897369737999E+003	2.2834378E-001	-1.6790499E-004
3	0	1.722397369725368E+003	2.2821730E-001	-1.5220648E-005
3	0	1.722897369712737E+003	2.2813548E-001	-7.2477276E-005
3	0	1.723397369700106E+003	2.2804803E-001	-3.4306191E-005
3	0	1.723897369687475E+003	2.2795688E-001	3.8648941E-006
3	0	1.724397369674844E+003	2.2786388E-001	-1.1064836E-004
3	0	1.724897369662212E+003	2.2777148E-001	-9.1562819E-005
3	0	1.725397369649581E+003	2.2765782E-001	-1.5220648E-005
3	0	1.725897369636950E+003	2.2752267E-001	4.2035979E-005
3	0	1.726397369624319E+003	2.2740482E-001	8.0207064E-005
3	0	1.726897369611688E+003	2.2731866E-001	2.2950437E-005
3	0	1.727397369599057E+003	2.2723757E-001	-9.1562819E-005
3	0	1.727897369586426E+003	2.2715424E-001	3.8648941E-006
3	0	1.728397369573795E+003	2.2706553E-001	-1.4881945E-004
3	0	1.728897369561164E+003	2.2697511E-001	-1.1064836E-004
3	0	1.729397369548533E+003	2.2686644E-001	-5.3391734E-005
3	0	1.729897369535902E+003	2.2673915E-001	-1.5220648E-005
3	0	1.730397369523271E+003	2.2662565E-001	-3.4306191E-005
3	0	1.730897369510640E+003	2.2655128E-001	-7.2477276E-005
3	0	1.731397369498009E+003	2.2647950E-001	-9.1562819E-005
3	0	1.731897369485378E+003	2.2639655E-001	6.1121522E-005
3	0	1.732397369472747E+003	2.2631685E-001	-7.2477276E-005
3	0	1.732897369460115E+003	2.2622667E-001	-1.5220648E-005
3	0	1.733397369447484E+003	2.2611995E-001	4.2035979E-005
3	0	1.733897369434853E+003	2.2598924E-001	8.0207064E-005
3	0	1.734397369422222E+003	2.2587392E-001	-3.4306191E-005
3	0	1.734897369409591E+003	2.2579506E-001	-9.1562819E-005
3	0	1.735397369396960E+003	2.2571808E-001	-3.4306191E-005
3	0	1.735897369384329E+003	2.2564091E-001	-1.1064836E-004
3	0	1.736397369371698E+003	2.2556178E-001	-7.2477276E-005
3	0	1.736897369359067E+003	2.2547956E-001	-3.4306191E-005
3	0	1.737397369346436E+003	2.2538193E-001	-9.1562819E-005
3	0	1.737897369333805E+003	2.2525585E-001	-7.2477276E-005
3	0	1.738397369321174E+003	2.2514544E-001	-1.5220648E-005
3	0	1.738897369308543E+003	2.2507669E-001	-3.4306191E-005
3	0	1.739397369295912E+003	2.2500540E-001	-1.4881945E-004
3	0	1.739897369283281E+003	2.2493573E-001	-3.4306191E-005
3	0	1.740397369270650E+003	2.2486083E-001	-5.3391734E-005
3	0	1.740897369258018E+003	2.2479185E-001	-1.2973390E-004
3	0	1.741397369245387E+003	2.2469166E-001	3.8648941E-006
3	0	1.741897369232756E+003	2.2457592E-001	-3.4306191E-005
3	0	1.742397369220125E+003	2.2446962E-001	-5.3391734E-005
3	0	1.742897369207494E+003	2.2440404E-001	-3.4306191E-005
3	0	1.743397369194863E+003	2.2434208E-001	-1.8699054E-004
3	0	1.743897369182232E+003	2.2427757E-001	2.2950437E-005
3	0	1.744397369169601E+003	2.2420406E-001	-9.1562819E-005
3	0	1.744897369156970E+003	2.2412880E-001	9.9292607E-005
3	0	1.745397369144339E+003	2.2403483E-001	-1.5220648E-005
3	0	1.745897369131708E+003	2.2391261E-001	-1.5220648E-005
3	0	1.746397369119077E+003	2.2381949E-001	3.8648941E-006
3	0	1.746897369106446E+003	2.2375633E-001	4.2035979E-005
3	0	1.747397369093815E+003	2.2369818E-001	-1.5220648E-005
3	0	1.747897369081184E+003	2.2363392E-001	-7.2477276E-005
3	0	1.748397369068553E+003	2.2356969E-001	-5.3391734E-005
3	0	1.748897369055921E+003	2.2350368E-001	3.8648941E-006
3	0	1.749397369043290E+003	2.2341581E-001	-5.3391734E-005
3	0	1.749897369030659E+003	2.2330269E-001	-5.3391734E-005
3	0	1.750397369018028E+003	2.2321071E-001	-1.1064836E-004
3	0	1.750897369005397E+003	2.2315079E-001	-1.2973390E-004
3	0	1.751397368992766E+003	2.2309510E-001	3.8648941E-006
3	0	1.751897368980135E+003	2.2303796E-001	-1.5220648E-005
3	0	1.752397368967504E+003	2.2297227E-001	-1.1064836E-004
3	0	1.752897368954873E+003	2.2290055E-001	-1.5220648E-005
3	0	1.753397368942242E+003	2.2281598E-001	2.2950437E-005
3	0	1.753897368929611E+003	2.2270492E-001	-1.1064836E-004
3	0	1.754397368916980E+003	2.2260725E-001	3.8648941E-006
3	0	1.754897368904349E+003	2.2254820E-001	-2.0607607E-004
3	0	1.755397368891718E+003	2.2249056E-001	-1.4881945E-004
3	0	1.755897368879087E+003	2.2242647E-001	4.2035979E-005
3	0	1.756397368866456E+003	2.2236697E-001	3.8648941E-006
3	0	1.756897368853824E+003	2.2229446E-001	-1.5220648E-005
3	0	1.757397368841193E+003	2.2220938E-001	-1.1064836E-004
3	0	1.757897368828562E+003	2.2209762E-001	-3.4306191E-005
3	0	1.758397368815931E+003	2.2200771E-001	-1.2973390E-004
3	0	1.758897368803300E+003	2.2195096E-001	-3.4306191E-005
3	0	1.759397368790669E+003	2.2189739E-001	-9.1562819E-005
3	0	1.759897368778038E+003	2.2184499E-001	3.8648941E-006
3	0	1.760397368765407E+003	2.2178468E-001	-7.2477276E-005
3	0	1.760897368752776E+003	2.2172242E-001	-9.1562819E-005
3	0	1.761397368740145E+003	2.2163898E-001	2.2950437E-005
3	0	1.761897368727514E+003	2.2153187E-001	-1.4881945E-004
3	0	1.762397368714883E+003	2.2144739E-001	-7.2477276E-005
3	0	1.762897368702252E+003	2.2138907E-001	-1.5220648E-005
3	0	1.763397368689621E+003	2.2133762E-001	3.8648941E-006
3	0	1.763897368676990E+003	2.2128089E-001	-2.8241824E-004
3	0	1.764397368664359E+003	2.2122675E-001	-3.4306191E-005
3	0	1.764897368651727E+003	2.2116664E-001	-9.1562819E-005
3	0	1.765397368639096E+003	2.2108683E-001	-3.4306191E-005
3	0	1.765897368626465E+003	2.2098954E-001	4.2035979E-005
3	0	1.766397368613834E+003	2.2090308E-001	3.8648941E-006
3	0	1.766897368601203E+003	2.2085539E-001	-1.6790499E-004
3	0	1.767397368588572E+003	2.2079745E-001	3.8648941E-006
3	0	1.767897368575941E+003	2.2074422E-001	-9.1562819E-005
3	0	1.768397368563310E+003	2.2068234E-001	2.2950437E-005
3	0	1.768897368550679E+003	2.2062540E-001	2.2950437E-005
3	0	1.769397368538048E+003	2.2054948E-001	-2.0607607E-004
3	0	1.769897368525417E+003	2.2045751E-001	3.8648941E-006
3	0	1.770397368512786E+003	2.2038233E-001	-1.5220648E-005
3	0	1.770897368500155E+003	2.2033747E-001	4.2035979E-005
3	0	1.771397368487524E+003	2.2029203E-001	-1.6790499E-004
3	0	1.771897368474893E+003	2.2024442E-001	-1.2973390E-004
3	0	1.772397368462262E+003	2.2019766E-001	-1.6790499E-004
3	0	1.772897368449630E+003	2.2014198E-001	3.8648941E-006
3	0	1.773397368436999E+003	2.2005704E-001	-7.2477276E-005
3	0	1.773897368424368E+003	2.1996598E-001	-1.5220648E-005
3	0	1.774397368411737E+003	2.1988812E-001	-1.2973390E-004
3	0	1.774897368399106E+003	2.1984193E-001	-9.1562819E-005
3	0	1.775397368386475E+003	2.1979010E-001	2.2950437E-005
3	0	1.775897368373844E+003	2.1974145E-001	-1.5220648E-005
3	0	1.776397368361213E+003	2.1968631E-001	8.0207064E-005
3	0	1.776897368348582E+003	2.1963024E-001	-1.6790499E-004
3	0	1.777397368335951E+003	2.1956031E-001	-1.5220648E-005
3	0	1.777897368323320E+003	2.1946527E-001	-3.4306191E-005
3	0	1.778397368310689E+003	2.1938710E-001	3.8648941E-006
3	0	1.778897368298058E+003	2.1934603E-001	-3.4306191E-005
3	0	1.779397368285427E+003	2.1929799E-001	3.8648941E-006
3	0	1.779897368272796E+003	2.1924947E-001	-1.2973390E-004
3	0	1.780397368260165E+003	2.1920475E-001	1.3746369E-004
3	0	1.780897368247533E+003	2.1915700E-001	-5.3391734E-005
3	0	1.781397368234902E+003	2.1908343E-001	-3.4306191E-005
3	0	1.781897368222271E+003	2.1899377E-001	-7.2477276E-005
3	0	1.782397368209640E+003	2.1891990E-001	2.2950437E-005
3	0	1.782897368197009E+003	2.1888177E-001	3.8648941E-006
3	0	1.783397368184378E+003	2.1883312E-001	3.8648941E-006
3	0	1.783897368171747E+003	2.1878858E-001	-1.2973390E-004
3	0	1.784397368159116E+003	2.1874347E-001	-2.0607607E-004
3	0	1.784897368146485E+003	2.1869606E-001	-1.5220648E-005
3	0	1.785397368133854E+003	2.1863207E-001	-3.4306191E-005
3	0	1.785897368121223E+003	2.1854649E-001	4.2035979E-005
3	0	1.786397368108592E+003	2.1847372E-001	-9.1562819E-005
3	0	1.786897368095961E+003	2.1844313E-001	2.2950437E-005
3	0	1.787397368083330E+003	2.1839745E-001	-3.4306191E-005
3	0	1.787897368070699E+003	2.1835953E-001	-3.4306191E-005
3	0	1.788397368058068E+003	2.1831340E-001	3.8648941E-006
3	0	1.788897368045436E+003	2.1826525E-001	-5.3391734E-005
3	0	1.789397368032805E+003	2.1819630E-001	-5.3391734E-005
3	0	1.789897368020174E+003	2.1810272E-001	-3.4306191E-005
3	0	1.790397368007543E+003	2.1802761E-001	-9.1562819E-005
3	0	1.790897367994912E+003	2.1798483E-001	-1.4881945E-004
3	0	1.791397367982281E+003	2.1794437E-001	8.0207064E-005
3	0	1.791897367969650E+003	2.1790035E-001	-5.3391734E-005
3	0	1.792397367957019E+003	2.1784306E-001	-9.1562819E-005
3	0	1.792897367944388E+003	2.1778309E-001	2.2950437E-005
3	0	1.793397367931757E+003	2.1773741E-001	-1.5220648E-005
3	0	1.793897367919126E+003	2.1766815E-001	-1.5220648E-005
3	0	1.794397367906495E+003	2.1761583E-001	-9.1562819E-005
3	0	1.794897367893864E+003	2.1758668E-001	-7.2477276E-005
3	0	1.795397367881233E+003	2.1754837E-001	6.1121522E-005
3	0	1.795897367868602E+003	2.1750259E-001	1.3746369E-004
3	0	1.796397367855971E+003	2.1746275E-001	3.8648941E-006
3	0	1.796897367843339E+003	2.1741244E-001	-1.6790499E-004
3	0	1.797397367830708E+003	2.1734920E-001	4.2035979E-005
3	0	1.797897367818077E+003	2.1725729E-001	-1.4881945E-004
3	0	1.798397367805446E+003	2.1718344E-001	9.9292607E-005
3	0	1.798897367792815E+003	2.1714811E-001	-1.5220648E-005
3	0	1.799397367780184E+003	2.1711382E-001	3.8648941E-006
3	0	1.799897367767553E+003	2.1707086E-001	-1.1064836E-004
3	0	1.800397367754922E+003	2.1702971E-001	-9.1562819E-005
3	0	1.800897367742291E+003	2.1698163E-001	9.9292607E-005
3	0	1.801397367729660E+003	2.1691202E-001	-2.0607607E-004
3	0	1.801897367717029E+003	2.1682450E-001	-1.6790499E-004
3	0	1.801931367716170E+003	2.1677667E-001	-1.8699054E-004