EC-Lab ASCII FILE
Nb header lines : 55                          

Open Circuit Voltage

Run on channel : 1 (SN 81504)
User : 
CE vs. WE compliance from -10 V to 10 V
Electrode connection : standard
Potential control : Ewe
Ewe ctrl range : min = -2.50 V, max = 2.50 V
Safety Limits :
	Do not start on E overload
Acquisition started on : 05/08/2026 00:05:30.308
Loaded Setting File :  C:\PEM-WE_measurements\2026\372_IV_IV IrOx, 5 min Pt, 30 min C, etched cathode\new station\Loopeis new\1,46 V different time gaps open cell\Loopeis 1,46V_180s_3_PEIS from 6500Hz to 1000Hz.mps
Saved on :
	File : L_28_Loopeis 1,46V_180s_3_PEIS from 6500Hz to 1000Hz_18_OCV_C01.mpr
	Directory : C:\PEM-WE_measurements\2026\372_IV_IV IrOx, 5 min Pt, 30 min C, etched cathode\new station\Loopeis new\1,46 V different time gaps open cell\
	Host : 192.168.0.2
Device : SP-150e (SN .005491)
Address : 192.168.0.91
EC-LAB for windows v11.71 (software)
Internet server v28.00 (firmware)
Command interpretor v14.01 (firmware)
Electrode material : 
Initial state : 
Electrolyte : 
Comments : 
Current amplifier : SP-150eB-20A
Electrode surface area : 0.001 cm²
Characteristic mass : 0.001 g
Equivalent Weight : 0.000 g/eq.
Density : 0.000 g/cm3
Volume (V) : 0.001 cm³
Record Analogic IN 1
Text export
   Mode : Standard
   Time format : Elapsed
Cycle Definition : Charge/Discharge alternance
External device configuration :
   device type : Temperature Probe
   device name : Other
   Analog IN 1 : 
      unit : T/Â°C
      max : 100.000 at 2.000 V
      min : 0.000 at 1.460 V
tR (h:m:s)          0:03:0.0000         
dER/dt (mV/h)       1.0                 
record              <Ewe>               
dER (mV)            10.00               
dtR (s)             0.5000              
E range min (V)     -2.500              
E range max (V)     2.500               

mode	error	time/s	<Ewe/V>	Analog IN 1/V	
3	0	1.849863966682242E+003	1.2155569E+000	-2.7038385E+002
3	0	1.850363966669611E+003	1.1622473E+000	-2.7039447E+002
3	0	1.850863966656980E+003	7.6851898E-001	-2.7037677E+002
3	0	1.851363966644349E+003	4.1129631E-001	-2.7036972E+002
3	0	1.851863966631718E+003	3.4516472E-001	-2.7037677E+002
3	0	1.852363966619087E+003	3.3396918E-001	-2.7040506E+002
3	0	1.852863966606456E+003	3.2636139E-001	-2.7039093E+002
3	0	1.853363966593824E+003	3.2035005E-001	-2.7038385E+002
3	0	1.853863966581193E+003	3.1574795E-001	-2.7039447E+002
3	0	1.854363966568562E+003	3.1218451E-001	-2.7036972E+002
3	0	1.854863966555931E+003	3.0935082E-001	-2.7038385E+002
3	0	1.855363966543300E+003	3.0702049E-001	-2.7038742E+002
3	0	1.855863966530669E+003	3.0507696E-001	-2.7037326E+002
3	0	1.856363966518038E+003	3.0345115E-001	-2.7036972E+002
3	0	1.856863966505407E+003	3.0204737E-001	-2.7038031E+002
3	0	1.857363966492776E+003	3.0079564E-001	-2.7038031E+002
3	0	1.857863966480145E+003	2.9967120E-001	-2.7036618E+002
3	0	1.858363966467514E+003	2.9863980E-001	-2.7037677E+002
3	0	1.858863966454883E+003	2.9768297E-001	-2.7036267E+002
3	0	1.859363966442252E+003	2.9676795E-001	-2.7038031E+002
3	0	1.859863966429621E+003	2.9591131E-001	-2.7039801E+002
3	0	1.860363966416990E+003	2.9513681E-001	-2.7039093E+002
3	0	1.860863966404359E+003	2.9440609E-001	-2.7038742E+002
3	0	1.861363966391727E+003	2.9370478E-001	-2.7038031E+002
3	0	1.861863966379096E+003	2.9302806E-001	-2.7036972E+002
3	0	1.862363966366465E+003	2.9235768E-001	-2.7038385E+002
3	0	1.862863966353834E+003	2.9169667E-001	-2.7036267E+002
3	0	1.863363966341203E+003	2.9102764E-001	-2.7037326E+002
3	0	1.863863966328572E+003	2.9038629E-001	-2.7038385E+002
3	0	1.864363966315941E+003	2.8979915E-001	-2.7039093E+002
3	0	1.864863966303310E+003	2.8922561E-001	-2.7038385E+002
3	0	1.865363966290679E+003	2.8866407E-001	-2.7039093E+002
3	0	1.865863966278048E+003	2.8810519E-001	-2.7035913E+002
3	0	1.866363966265417E+003	2.8754684E-001	-2.7037677E+002
3	0	1.866863966252786E+003	2.8698784E-001	-2.7037677E+002
3	0	1.867363966240155E+003	2.8641123E-001	-2.7038031E+002
3	0	1.867863966227524E+003	2.8585204E-001	-2.7036972E+002
3	0	1.868363966214893E+003	2.8533745E-001	-2.7040506E+002
3	0	1.868863966202262E+003	2.8483292E-001	-2.7037326E+002
3	0	1.869363966189630E+003	2.8432453E-001	-2.7038031E+002
3	0	1.869863966176999E+003	2.8381875E-001	-2.7039801E+002
3	0	1.870363966164368E+003	2.8331462E-001	-2.7038385E+002
3	0	1.870863966151737E+003	2.8280324E-001	-2.7035913E+002
3	0	1.871363966139106E+003	2.8228039E-001	-2.7038742E+002
3	0	1.871863966126475E+003	2.8176841E-001	-2.7036618E+002
3	0	1.872363966113844E+003	2.8129897E-001	-2.7038031E+002
3	0	1.872863966101213E+003	2.8083581E-001	-2.7039447E+002
3	0	1.873363966088582E+003	2.8037348E-001	-2.7036618E+002
3	0	1.873863966075951E+003	2.7991366E-001	-2.7036618E+002
3	0	1.874363966063320E+003	2.7945620E-001	-2.7038385E+002
3	0	1.874863966050689E+003	2.7899137E-001	-2.7038385E+002
3	0	1.875363966038058E+003	2.7850756E-001	-2.7038742E+002
3	0	1.875863966025427E+003	2.7804402E-001	-2.7039801E+002
3	0	1.876363966012796E+003	2.7761456E-001	-2.7035559E+002
3	0	1.876863966000165E+003	2.7719530E-001	-2.7038742E+002
3	0	1.877363965987533E+003	2.7677530E-001	-2.7036267E+002
3	0	1.877863965974902E+003	2.7634850E-001	-2.7036618E+002
3	0	1.878363965962271E+003	2.7593011E-001	-2.7038031E+002
3	0	1.878863965949640E+003	2.7549413E-001	-2.7037326E+002
3	0	1.879363965937009E+003	2.7504122E-001	-2.7036267E+002
3	0	1.879863965924378E+003	2.7461711E-001	-2.7035205E+002
3	0	1.880363965911747E+003	2.7422005E-001	-2.7038385E+002
3	0	1.880863965899116E+003	2.7382967E-001	-2.7038031E+002
3	0	1.881363965886485E+003	2.7343616E-001	-2.7037326E+002
3	0	1.881863965873854E+003	2.7304423E-001	-2.7038031E+002
3	0	1.882363965861223E+003	2.7264670E-001	-2.7038742E+002
3	0	1.882863965848592E+003	2.7224779E-001	-2.7036618E+002
3	0	1.883363965835961E+003	2.7182829E-001	-2.7038742E+002
3	0	1.883863965823330E+003	2.7142283E-001	-2.7037326E+002
3	0	1.884363965810699E+003	2.7106342E-001	-2.7036618E+002
3	0	1.884863965798068E+003	2.7071044E-001	-2.7035559E+002
3	0	1.885363965785436E+003	2.7035159E-001	-2.7035913E+002
3	0	1.885863965772805E+003	2.6998767E-001	-2.7038385E+002
3	0	1.886363965760174E+003	2.6963511E-001	-2.7039801E+002
3	0	1.886863965747543E+003	2.6926425E-001	-2.7038385E+002
3	0	1.887363965734912E+003	2.6887932E-001	-2.7037326E+002
3	0	1.887863965722281E+003	2.6851079E-001	-2.7040506E+002
3	0	1.888363965709650E+003	2.6818132E-001	-2.7037326E+002
3	0	1.888863965697019E+003	2.6785067E-001	-2.7036972E+002
3	0	1.889363965684388E+003	2.6751745E-001	-2.7040506E+002
3	0	1.889863965671757E+003	2.6718688E-001	-2.7037326E+002
3	0	1.890363965659126E+003	2.6685226E-001	-2.7039093E+002
3	0	1.890863965646495E+003	2.6650918E-001	-2.7039093E+002
3	0	1.891363965633864E+003	2.6615056E-001	-2.7035559E+002
3	0	1.891863965621233E+003	2.6581085E-001	-2.7037677E+002
3	0	1.892363965608602E+003	2.6550379E-001	-2.7041568E+002
3	0	1.892863965595971E+003	2.6520261E-001	-2.7039093E+002
3	0	1.893363965583339E+003	2.6489592E-001	-2.7038031E+002
3	0	1.893863965570708E+003	2.6460037E-001	-2.7036972E+002
3	0	1.894363965558077E+003	2.6429319E-001	-2.7037677E+002
3	0	1.894863965545446E+003	2.6398060E-001	-2.7036972E+002
3	0	1.895363965532815E+003	2.6365077E-001	-2.7039801E+002
3	0	1.895863965520184E+003	2.6333874E-001	-2.7037677E+002
3	0	1.896363965507553E+003	2.6306456E-001	-2.7041568E+002
3	0	1.896863965494922E+003	2.6279134E-001	-2.7038031E+002
3	0	1.897363965482291E+003	2.6251897E-001	-2.7038742E+002
3	0	1.897863965469660E+003	2.6224104E-001	-2.7039093E+002
3	0	1.898363965457029E+003	2.6196525E-001	-2.7039093E+002
3	0	1.898863965444398E+003	2.6166517E-001	-2.7036972E+002
3	0	1.899363965431767E+003	2.6136658E-001	-2.7037677E+002
3	0	1.899863965419136E+003	2.6107758E-001	-2.7036618E+002
3	0	1.900363965406505E+003	2.6082358E-001	-2.7040155E+002
3	0	1.900863965393874E+003	2.6057380E-001	-2.7038031E+002
3	0	1.901363965381242E+003	2.6031935E-001	-2.7038742E+002
3	0	1.901863965368611E+003	2.6006833E-001	-2.7036267E+002
3	0	1.902363965355980E+003	2.5981212E-001	-2.7037326E+002
3	0	1.902863965343349E+003	2.5955695E-001	-2.7038031E+002
3	0	1.903363965330718E+003	2.5927606E-001	-2.7038385E+002
3	0	1.903863965318087E+003	2.5901291E-001	-2.7038385E+002
3	0	1.904363965305456E+003	2.5877860E-001	-2.7037677E+002
3	0	1.904863965292825E+003	2.5854582E-001	-2.7038742E+002
3	0	1.905363965280194E+003	2.5830626E-001	-2.7037326E+002
3	0	1.905863965267563E+003	2.5806502E-001	-2.7036267E+002
3	0	1.906363965254932E+003	2.5782964E-001	-2.7039093E+002
3	0	1.906863965242301E+003	2.5757644E-001	-2.7039093E+002
3	0	1.907363965229670E+003	2.5730768E-001	-2.7041568E+002
3	0	1.907863965217039E+003	2.5706527E-001	-2.7039447E+002
3	0	1.908363965204408E+003	2.5686058E-001	-2.7036972E+002
3	0	1.908863965191777E+003	2.5665554E-001	-2.7038742E+002
3	0	1.909363965179145E+003	2.5644428E-001	-2.7039093E+002
3	0	1.909863965166514E+003	2.5623176E-001	-2.7037326E+002
3	0	1.910363965153883E+003	2.5601459E-001	-2.7038031E+002
3	0	1.910863965141252E+003	2.5578487E-001	-2.7036267E+002
3	0	1.911363965128621E+003	2.5553346E-001	-2.7037677E+002
3	0	1.911863965115990E+003	2.5530168E-001	-2.7037326E+002
3	0	1.912363965103359E+003	2.5510520E-001	-2.7038031E+002
3	0	1.912863965090728E+003	2.5491670E-001	-2.7037677E+002
3	0	1.913363965078097E+003	2.5472274E-001	-2.7038031E+002
3	0	1.913863965065466E+003	2.5452685E-001	-2.7038385E+002
3	0	1.914363965052835E+003	2.5432986E-001	-2.7038385E+002
3	0	1.914863965040204E+003	2.5412339E-001	-2.7038742E+002
3	0	1.915363965027573E+003	2.5388873E-001	-2.7036618E+002
3	0	1.915863965014942E+003	2.5368077E-001	-2.7036618E+002
3	0	1.916363965002311E+003	2.5350544E-001	-2.7037677E+002
3	0	1.916863964989680E+003	2.5332680E-001	-2.7037677E+002
3	0	1.917363964977048E+003	2.5314969E-001	-2.7038031E+002
3	0	1.917863964964417E+003	2.5297144E-001	-2.7037677E+002
3	0	1.918363964951786E+003	2.5278556E-001	-2.7034851E+002
3	0	1.918863964939155E+003	2.5258598E-001	-2.7036618E+002
3	0	1.919363964926524E+003	2.5237465E-001	-2.7038031E+002
3	0	1.919863964913893E+003	2.5217274E-001	-2.7038385E+002
3	0	1.920363964901262E+003	2.5200957E-001	-2.7036267E+002
3	0	1.920863964888631E+003	2.5185639E-001	-2.7039093E+002
3	0	1.921363964876000E+003	2.5169259E-001	-2.7040155E+002
3	0	1.921863964863369E+003	2.5152022E-001	-2.7038385E+002
3	0	1.922363964850738E+003	2.5135744E-001	-2.7037326E+002
3	0	1.922863964838107E+003	2.5117794E-001	-2.7036267E+002
3	0	1.923363964825476E+003	2.5097725E-001	-2.7038031E+002
3	0	1.923863964812845E+003	2.5078845E-001	-2.7036618E+002
3	0	1.924363964800214E+003	2.5064173E-001	-2.7034851E+002
3	0	1.924863964787583E+003	2.5049317E-001	-2.7038385E+002
3	0	1.925363964774951E+003	2.5034031E-001	-2.7036618E+002
3	0	1.925863964762320E+003	2.5018772E-001	-2.7037677E+002
3	0	1.926363964749689E+003	2.5003770E-001	-2.7038742E+002
3	0	1.926863964737058E+003	2.4987294E-001	-2.7035913E+002
3	0	1.927363964724427E+003	2.4968241E-001	-2.7039447E+002
3	0	1.927863964711796E+003	2.4950917E-001	-2.7037677E+002
3	0	1.928363964699165E+003	2.4937360E-001	-2.7039801E+002
3	0	1.928863964686534E+003	2.4924336E-001	-2.7036972E+002
3	0	1.929363964673903E+003	2.4910079E-001	-2.7038385E+002
3	0	1.929863964661272E+003	2.4895689E-001	-2.7038385E+002
3	0	1.930363964648641E+003	2.4881193E-001	-2.7038385E+002
3	0	1.930863964636010E+003	2.4864838E-001	-2.7036618E+002
3	0	1.931363964623379E+003	2.4846837E-001	-2.7039801E+002
3	0	1.931863964610748E+003	2.4829708E-001	-2.7039801E+002
3	0	1.932363964598117E+003	2.4816690E-001	-2.7038742E+002
3	0	1.932863964585486E+003	2.4804097E-001	-2.7036618E+002
3	0	1.933363964572854E+003	2.4790777E-001	-2.7036267E+002
3	0	1.933863964560223E+003	2.4777611E-001	-2.7038031E+002
3	0	1.934363964547592E+003	2.4763536E-001	-2.7037677E+002
3	0	1.934863964534961E+003	2.4748331E-001	-2.7039801E+002
3	0	1.935363964522330E+003	2.4730583E-001	-2.7037677E+002
3	0	1.935863964509699E+003	2.4714994E-001	-2.7039093E+002
3	0	1.936363964497068E+003	2.4702674E-001	-2.7038742E+002
3	0	1.936863964484437E+003	2.4690768E-001	-2.7036972E+002
3	0	1.937363964471806E+003	2.4678758E-001	-2.7038742E+002
3	0	1.937863964459175E+003	2.4666466E-001	-2.7035913E+002
3	0	1.938363964446544E+003	2.4654129E-001	-2.7036618E+002
3	0	1.938863964433913E+003	2.4640536E-001	-2.7039801E+002
3	0	1.939363964421282E+003	2.4624319E-001	-2.7039093E+002
3	0	1.939863964408651E+003	2.4609730E-001	-2.7038385E+002
3	0	1.940363964396020E+003	2.4599257E-001	-2.7037677E+002
3	0	1.940863964383389E+003	2.4588156E-001	-2.7036267E+002
3	0	1.941363964370757E+003	2.4577345E-001	-2.7037677E+002
3	0	1.941863964358126E+003	2.4566124E-001	-2.7037677E+002
3	0	1.942363964345495E+003	2.4554205E-001	-2.7038385E+002
3	0	1.942863964332864E+003	2.4541122E-001	-2.7038385E+002
3	0	1.943363964320233E+003	2.4525787E-001	-2.7038031E+002
3	0	1.943863964307602E+003	2.4512728E-001	-2.7038385E+002
3	0	1.944363964294971E+003	2.4502295E-001	-2.7036618E+002
3	0	1.944863964282340E+003	2.4492098E-001	-2.7041568E+002
3	0	1.945363964269709E+003	2.4481635E-001	-2.7036972E+002
3	0	1.945863964257078E+003	2.4471292E-001	-2.7036267E+002
3	0	1.946363964244447E+003	2.4459903E-001	-2.7036618E+002
3	0	1.946863964231816E+003	2.4447489E-001	-2.7038385E+002
3	0	1.947363964219185E+003	2.4432401E-001	-2.7039801E+002
3	0	1.947863964206554E+003	2.4419037E-001	-2.7037326E+002
3	0	1.948363964193923E+003	2.4409337E-001	-2.7037326E+002
3	0	1.948863964181292E+003	2.4399976E-001	-2.7034497E+002
3	0	1.949363964168660E+003	2.4389596E-001	-2.7038385E+002
3	0	1.949863964156029E+003	2.4379608E-001	-2.7039801E+002
3	0	1.950363964143398E+003	2.4368870E-001	-2.7039801E+002
3	0	1.950863964130767E+003	2.4356635E-001	-2.7038385E+002
3	0	1.951363964118136E+003	2.4342249E-001	-2.7037326E+002
3	0	1.951863964105505E+003	2.4329270E-001	-2.7038742E+002
3	0	1.952363964092874E+003	2.4320325E-001	-2.7035913E+002
3	0	1.952863964080243E+003	2.4311073E-001	-2.7035913E+002
3	0	1.953363964067612E+003	2.4301359E-001	-2.7035559E+002
3	0	1.953863964054981E+003	2.4291119E-001	-2.7039093E+002
3	0	1.954363964042350E+003	2.4281041E-001	-2.7038031E+002
3	0	1.954863964029719E+003	2.4269728E-001	-2.7040155E+002
3	0	1.955363964017088E+003	2.4255687E-001	-2.7036267E+002
3	0	1.955863964004457E+003	2.4242581E-001	-2.7039447E+002
3	0	1.956363963991826E+003	2.4233931E-001	-2.7037326E+002
3	0	1.956863963979195E+003	2.4224932E-001	-2.7037326E+002
3	0	1.957363963966563E+003	2.4215417E-001	-2.7036267E+002
3	0	1.957863963953932E+003	2.4206810E-001	-2.7037677E+002
3	0	1.958363963941301E+003	2.4197742E-001	-2.7038385E+002
3	0	1.958863963928670E+003	2.4186908E-001	-2.7036972E+002
3	0	1.959363963916039E+003	2.4173595E-001	-2.7037326E+002
3	0	1.959863963903408E+003	2.4162769E-001	-2.7039447E+002
3	0	1.960363963890777E+003	2.4155013E-001	-2.7038385E+002
3	0	1.960863963878146E+003	2.4146388E-001	-2.7038742E+002
3	0	1.961363963865515E+003	2.4137694E-001	-2.7039093E+002
3	0	1.961863963852884E+003	2.4129008E-001	-2.7038385E+002
3	0	1.962363963840253E+003	2.4120086E-001	-2.7037677E+002
3	0	1.962863963827622E+003	2.4109674E-001	-2.7036618E+002
3	0	1.963363963814991E+003	2.4097638E-001	-2.7035913E+002
3	0	1.963863963802360E+003	2.4086927E-001	-2.7036618E+002
3	0	1.964363963789729E+003	2.4079546E-001	-2.7037677E+002
3	0	1.964863963777098E+003	2.4070796E-001	-2.7036618E+002
3	0	1.965363963764466E+003	2.4061884E-001	-2.7036972E+002
3	0	1.965863963751835E+003	2.4053612E-001	-2.7036267E+002
3	0	1.966363963739204E+003	2.4044675E-001	-2.7036267E+002
3	0	1.966863963726573E+003	2.4034625E-001	-2.7038385E+002
3	0	1.967363963713942E+003	2.4022664E-001	-2.7039447E+002
3	0	1.967863963701311E+003	2.4012934E-001	-2.7038031E+002
3	0	1.968363963688680E+003	2.4005958E-001	-2.7036267E+002
3	0	1.968863963676049E+003	2.3998135E-001	-2.7038742E+002
3	0	1.969363963663418E+003	2.3990031E-001	-2.7039801E+002
3	0	1.969863963650787E+003	2.3982026E-001	-2.7038385E+002
3	0	1.970363963638156E+003	2.3973922E-001	-2.7039447E+002
3	0	1.970863963625525E+003	2.3963843E-001	-2.7038742E+002
3	0	1.971363963612894E+003	2.3951720E-001	-2.7039093E+002
3	0	1.971863963600263E+003	2.3941608E-001	-2.7038742E+002
3	0	1.972363963587632E+003	2.3934625E-001	-2.7037677E+002
3	0	1.972863963575001E+003	2.3926081E-001	-2.7036267E+002
3	0	1.973363963562369E+003	2.3918243E-001	-2.7037326E+002
3	0	1.973863963549738E+003	2.3910150E-001	-2.7037677E+002
3	0	1.974363963537107E+003	2.3902594E-001	-2.7037677E+002
3	0	1.974863963524476E+003	2.3893140E-001	-2.7038031E+002
3	0	1.975363963511845E+003	2.3881139E-001	-2.7038742E+002
3	0	1.975863963499214E+003	2.3871200E-001	-2.7039447E+002
3	0	1.976363963486583E+003	2.3864518E-001	-2.7039093E+002
3	0	1.976863963473952E+003	2.3856905E-001	-2.7038742E+002
3	0	1.977363963461321E+003	2.3849712E-001	-2.7037677E+002
3	0	1.977863963448690E+003	2.3842475E-001	-2.7037677E+002
3	0	1.978363963436059E+003	2.3835470E-001	-2.7038742E+002
3	0	1.978863963423428E+003	2.3826273E-001	-2.7038031E+002
3	0	1.979363963410797E+003	2.3815671E-001	-2.7038742E+002
3	0	1.979863963398166E+003	2.3806356E-001	-2.7037677E+002
3	0	1.980363963385535E+003	2.3800689E-001	-2.7038031E+002
3	0	1.980863963372904E+003	2.3794140E-001	-2.7036267E+002
3	0	1.981363963360272E+003	2.3787422E-001	-2.7037326E+002
3	0	1.981863963347641E+003	2.3780285E-001	-2.7039093E+002
3	0	1.982363963335010E+003	2.3774144E-001	-2.7037326E+002
3	0	1.982863963322379E+003	2.3765314E-001	-2.7038742E+002
3	0	1.983363963309748E+003	2.3754109E-001	-2.7036618E+002
3	0	1.983863963297117E+003	2.3745164E-001	-2.7038031E+002
3	0	1.984363963284486E+003	2.3739943E-001	-2.7037326E+002
3	0	1.984863963271855E+003	2.3732942E-001	-2.7038031E+002
3	0	1.985363963259224E+003	2.3726207E-001	-2.7038385E+002
3	0	1.985863963246593E+003	2.3719503E-001	-2.7038385E+002
3	0	1.986363963233962E+003	2.3712999E-001	-2.7036618E+002
3	0	1.986863963221331E+003	2.3705065E-001	-2.7040155E+002
3	0	1.987363963208700E+003	2.3694067E-001	-2.7038742E+002
3	0	1.987863963196069E+003	2.3685601E-001	-2.7037326E+002
3	0	1.988363963183438E+003	2.3680240E-001	-2.7036267E+002
3	0	1.988863963170807E+003	2.3673607E-001	-2.7038031E+002
3	0	1.989363963158175E+003	2.3667324E-001	-2.7039447E+002
3	0	1.989863963145544E+003	2.3661226E-001	-2.7036267E+002
3	0	1.990363963132913E+003	2.3654772E-001	-2.7039447E+002
3	0	1.990863963120282E+003	2.3646398E-001	-2.7037677E+002
3	0	1.991363963107651E+003	2.3635370E-001	-2.7036972E+002
3	0	1.991863963095020E+003	2.3625942E-001	-2.7037326E+002
3	0	1.992363963082389E+003	2.3620257E-001	-2.7037677E+002
3	0	1.992863963069758E+003	2.3614503E-001	-2.7036267E+002
3	0	1.993363963057127E+003	2.3608319E-001	-2.7037677E+002
3	0	1.993863963044496E+003	2.3601352E-001	-2.7039447E+002
3	0	1.994363963031865E+003	2.3594740E-001	-2.7038385E+002
3	0	1.994863963019234E+003	2.3586370E-001	-2.7035205E+002
3	0	1.995363963006603E+003	2.3576304E-001	-2.7038031E+002
3	0	1.995863962993972E+003	2.3568028E-001	-2.7036267E+002
3	0	1.996363962981341E+003	2.3563710E-001	-2.7037677E+002
3	0	1.996863962968710E+003	2.3557772E-001	-2.7038385E+002
3	0	1.997363962956078E+003	2.3552011E-001	-2.7039093E+002
3	0	1.997863962943447E+003	2.3546363E-001	-2.7036618E+002
3	0	1.998363962930816E+003	2.3540513E-001	-2.7039093E+002
3	0	1.998863962918185E+003	2.3532967E-001	-2.7038742E+002
3	0	1.999363962905554E+003	2.3523058E-001	-2.7036972E+002
3	0	1.999863962892923E+003	2.3514725E-001	-2.7036618E+002
3	0	2.000363962880292E+003	2.3510365E-001	-2.7038385E+002
3	0	2.000863962867661E+003	2.3504598E-001	-2.7038031E+002
3	0	2.001363962855030E+003	2.3499112E-001	-2.7035913E+002
3	0	2.001863962842399E+003	2.3493165E-001	-2.7036267E+002
3	0	2.002363962829768E+003	2.3487692E-001	-2.7039801E+002
3	0	2.002863962817137E+003	2.3480216E-001	-2.7037326E+002
3	0	2.003363962804506E+003	2.3470303E-001	-2.7040860E+002
3	0	2.003863962791875E+003	2.3462398E-001	-2.7038385E+002
3	0	2.004363962779244E+003	2.3458084E-001	-2.7036267E+002
3	0	2.004863962766613E+003	2.3453300E-001	-2.7039447E+002
3	0	2.005363962753981E+003	2.3448470E-001	-2.7036267E+002
3	0	2.005863962741350E+003	2.3442611E-001	-2.7040155E+002
3	0	2.006363962728719E+003	2.3437671E-001	-2.7037677E+002
3	0	2.006863962716088E+003	2.3430389E-001	-2.7037326E+002
3	0	2.007363962703457E+003	2.3420753E-001	-2.7038742E+002
3	0	2.007863962690826E+003	2.3413253E-001	-2.7038031E+002
3	0	2.008363962678195E+003	2.3409237E-001	-2.7037677E+002
3	0	2.008863962665564E+003	2.3404098E-001	-2.7039801E+002
3	0	2.009363962652933E+003	2.3399359E-001	-2.7037326E+002
3	0	2.009863962640302E+003	2.3393878E-001	-2.7038385E+002
3	0	2.010363962627671E+003	2.3388888E-001	-2.7038742E+002
3	0	2.010863962615040E+003	2.3381473E-001	-2.7039093E+002
3	0	2.011363962602409E+003	2.3371598E-001	-2.7036618E+002
3	0	2.011863962589778E+003	2.3363565E-001	-2.7039093E+002
3	0	2.012363962577147E+003	2.3359193E-001	-2.7038385E+002
3	0	2.012863962564516E+003	2.3353483E-001	-2.7036972E+002
3	0	2.013363962551884E+003	2.3348367E-001	-2.7038031E+002
3	0	2.013863962539253E+003	2.3342966E-001	-2.7037677E+002
3	0	2.014363962526622E+003	2.3337154E-001	-2.7038742E+002
3	0	2.014863962513991E+003	2.3330025E-001	-2.7039093E+002
3	0	2.015363962501360E+003	2.3321015E-001	-2.7037326E+002
3	0	2.015863962488729E+003	2.3313715E-001	-2.7039093E+002
3	0	2.016363962476098E+003	2.3309381E-001	-2.7035913E+002
3	0	2.016863962463467E+003	2.3304276E-001	-2.7038742E+002
3	0	2.017363962450836E+003	2.3299560E-001	-2.7036972E+002
3	0	2.017863962438205E+003	2.3295327E-001	-2.7038031E+002
3	0	2.018363962425574E+003	2.3289940E-001	-2.7038385E+002
3	0	2.018863962412943E+003	2.3283626E-001	-2.7035913E+002
3	0	2.019363962400312E+003	2.3274247E-001	-2.7039447E+002
3	0	2.019863962387681E+003	2.3267005E-001	-2.7040155E+002
3	0	2.020363962375050E+003	2.3263262E-001	-2.7037326E+002
3	0	2.020863962362419E+003	2.3258568E-001	-2.7038742E+002
3	0	2.021363962349787E+003	2.3253763E-001	-2.7039093E+002
3	0	2.021863962337156E+003	2.3249562E-001	-2.7038031E+002
3	0	2.022363962324525E+003	2.3244485E-001	-2.7038385E+002
3	0	2.022863962311894E+003	2.3238438E-001	-2.7036618E+002
3	0	2.023363962299263E+003	2.3229654E-001	-2.7037326E+002
3	0	2.023863962286632E+003	2.3222667E-001	-2.7037326E+002
3	0	2.024363962274001E+003	2.3219140E-001	-2.7038385E+002
3	0	2.024863962261370E+003	2.3214813E-001	-2.7039093E+002
3	0	2.025363962248739E+003	2.3210138E-001	-2.7038031E+002
3	0	2.025863962236108E+003	2.3205297E-001	-2.7039093E+002
3	0	2.026363962223477E+003	2.3200655E-001	-2.7038031E+002
3	0	2.026863962210846E+003	2.3194510E-001	-2.7038385E+002
3	0	2.027363962198215E+003	2.3186272E-001	-2.7039093E+002
3	0	2.027863962185584E+003	2.3179479E-001	-2.7038385E+002
3	0	2.028363962172953E+003	2.3176098E-001	-2.7035559E+002
3	0	2.028863962160322E+003	2.3171575E-001	-2.7038742E+002
3	0	2.029363962147690E+003	2.3167907E-001	-2.7037326E+002
3	0	2.029364362147680E+003	2.3161907E-001	-2.7039447E+002