EC-Lab ASCII FILE
Nb header lines : 55                          

Open Circuit Voltage

Run on channel : 1 (SN 81504)
User : 
CE vs. WE compliance from -10 V to 10 V
Electrode connection : standard
Potential control : Ewe
Ewe ctrl range : min = -2.50 V, max = 2.50 V
Safety Limits :
	Do not start on E overload
Acquisition started on : 05/08/2026 00:05:30.308
Loaded Setting File :  C:\PEM-WE_measurements\2026\372_IV_IV IrOx, 5 min Pt, 30 min C, etched cathode\new station\Loopeis new\1,46 V different time gaps open cell\Loopeis 1,46V_180s_3_PEIS from 6500Hz to 1000Hz.mps
Saved on :
	File : L_28_Loopeis 1,46V_180s_3_PEIS from 6500Hz to 1000Hz_06_OCV_C01.mpr
	Directory : C:\PEM-WE_measurements\2026\372_IV_IV IrOx, 5 min Pt, 30 min C, etched cathode\new station\Loopeis new\1,46 V different time gaps open cell\
	Host : 192.168.0.2
Device : SP-150e (SN .005491)
Address : 192.168.0.91
EC-LAB for windows v11.71 (software)
Internet server v28.00 (firmware)
Command interpretor v14.01 (firmware)
Electrode material : 
Initial state : 
Electrolyte : 
Comments : 
Current amplifier : SP-150eB-20A
Electrode surface area : 0.001 cm²
Characteristic mass : 0.001 g
Equivalent Weight : 0.000 g/eq.
Density : 0.000 g/cm3
Volume (V) : 0.001 cm³
Record Analogic IN 1
Text export
   Mode : Standard
   Time format : Elapsed
Cycle Definition : Charge/Discharge alternance
External device configuration :
   device type : Temperature Probe
   device name : Other
   Analog IN 1 : 
      unit : T/Â°C
      max : 100.000 at 2.000 V
      min : 0.000 at 1.460 V
tR (h:m:s)          0:03:0.0000         
dER/dt (mV/h)       1.0                 
record              <Ewe>               
dER (mV)            10.00               
dtR (s)             0.5000              
E range min (V)     -2.500              
E range max (V)     2.500               

mode	error	time/s	<Ewe/V>	Analog IN 1/V	
3	0	4.954725907553802E+002	1.2162671E+000	-2.7035913E+002
3	0	4.959725907427492E+002	1.1645950E+000	-2.7038031E+002
3	0	4.964725907301181E+002	7.7733254E-001	-2.7036618E+002
3	0	4.969725907174870E+002	4.1270763E-001	-2.7036972E+002
3	0	4.974725907048560E+002	3.4544528E-001	-2.7037326E+002
3	0	4.979725906922249E+002	3.3406633E-001	-2.7038031E+002
3	0	4.984725906795939E+002	3.2640308E-001	-2.7036618E+002
3	0	4.989725906669628E+002	3.2039922E-001	-2.7037326E+002
3	0	4.994725906543317E+002	3.1580481E-001	-2.7038385E+002
3	0	4.999725906417007E+002	3.1224883E-001	-2.7037677E+002
3	0	5.004725906290696E+002	3.0943319E-001	-2.7039447E+002
3	0	5.009725906164385E+002	3.0715951E-001	-2.7038031E+002
3	0	5.014725906038075E+002	3.0525801E-001	-2.7038385E+002
3	0	5.019725905911764E+002	3.0363604E-001	-2.7036267E+002
3	0	5.024725905785454E+002	3.0222157E-001	-2.7038742E+002
3	0	5.029725905659143E+002	3.0096096E-001	-2.7036618E+002
3	0	5.034725905532832E+002	2.9981476E-001	-2.7037326E+002
3	0	5.039725905406522E+002	2.9875803E-001	-2.7039093E+002
3	0	5.044725905280211E+002	2.9779693E-001	-2.7037326E+002
3	0	5.049725905153900E+002	2.9692274E-001	-2.7038742E+002
3	0	5.054725905027590E+002	2.9609966E-001	-2.7039447E+002
3	0	5.059725904901279E+002	2.9531556E-001	-2.7039801E+002
3	0	5.064725904774969E+002	2.9456750E-001	-2.7037677E+002
3	0	5.069725904648658E+002	2.9385355E-001	-2.7038031E+002
3	0	5.074725904522347E+002	2.9315493E-001	-2.7039801E+002
3	0	5.079725904396037E+002	2.9245299E-001	-2.7036618E+002
3	0	5.084725904269726E+002	2.9179075E-001	-2.7040506E+002
3	0	5.089725904143415E+002	2.9117611E-001	-2.7036618E+002
3	0	5.094725904017105E+002	2.9057539E-001	-2.7037677E+002
3	0	5.099725903890794E+002	2.8998235E-001	-2.7037677E+002
3	0	5.104725903764484E+002	2.8940651E-001	-2.7036972E+002
3	0	5.109725903638173E+002	2.8883415E-001	-2.7035559E+002
3	0	5.114725903511862E+002	2.8825480E-001	-2.7036972E+002
3	0	5.119725903385552E+002	2.8765985E-001	-2.7038385E+002
3	0	5.124725903259241E+002	2.8709319E-001	-2.7039447E+002
3	0	5.129725903132930E+002	2.8656414E-001	-2.7036972E+002
3	0	5.134725903006620E+002	2.8603584E-001	-2.7039093E+002
3	0	5.139725902880309E+002	2.8551361E-001	-2.7039801E+002
3	0	5.144725902753999E+002	2.8499854E-001	-2.7036972E+002
3	0	5.149725902627688E+002	2.8448296E-001	-2.7039801E+002
3	0	5.154725902501377E+002	2.8396007E-001	-2.7036267E+002
3	0	5.159725902375067E+002	2.8342235E-001	-2.7039447E+002
3	0	5.164725902248756E+002	2.8290030E-001	-2.7037326E+002
3	0	5.169725902122445E+002	2.8242448E-001	-2.7039447E+002
3	0	5.174725901996135E+002	2.8194886E-001	-2.7036267E+002
3	0	5.179725901869824E+002	2.8147161E-001	-2.7038742E+002
3	0	5.184725901743514E+002	2.8099975E-001	-2.7035559E+002
3	0	5.189725901617203E+002	2.8053406E-001	-2.7036972E+002
3	0	5.194725901490892E+002	2.8004530E-001	-2.7038385E+002
3	0	5.199725901364582E+002	2.7954295E-001	-2.7038742E+002
3	0	5.204725901238271E+002	2.7906963E-001	-2.7037677E+002
3	0	5.209725901111960E+002	2.7863175E-001	-2.7037677E+002
3	0	5.214725900985650E+002	2.7819106E-001	-2.7037326E+002
3	0	5.219725900859339E+002	2.7774730E-001	-2.7037677E+002
3	0	5.224725900733029E+002	2.7731001E-001	-2.7039093E+002
3	0	5.229725900606718E+002	2.7687737E-001	-2.7036972E+002
3	0	5.234725900480407E+002	2.7642515E-001	-2.7040860E+002
3	0	5.239725900354097E+002	2.7596521E-001	-2.7040155E+002
3	0	5.244725900227786E+002	2.7553007E-001	-2.7040155E+002
3	0	5.249725900101475E+002	2.7511874E-001	-2.7036618E+002
3	0	5.254725899975165E+002	2.7471694E-001	-2.7039447E+002
3	0	5.259725899848854E+002	2.7431747E-001	-2.7038385E+002
3	0	5.264725899722544E+002	2.7391249E-001	-2.7037326E+002
3	0	5.269725899596233E+002	2.7351558E-001	-2.7038385E+002
3	0	5.274725899469922E+002	2.7309999E-001	-2.7038385E+002
3	0	5.279725899343612E+002	2.7267006E-001	-2.7038031E+002
3	0	5.284725899217301E+002	2.7227548E-001	-2.7038385E+002
3	0	5.289725899090990E+002	2.7191100E-001	-2.7038385E+002
3	0	5.294725898964680E+002	2.7153635E-001	-2.7040860E+002
3	0	5.299725898838369E+002	2.7116606E-001	-2.7039093E+002
3	0	5.304725898712059E+002	2.7080348E-001	-2.7036267E+002
3	0	5.309725898585748E+002	2.7043566E-001	-2.7036618E+002
3	0	5.314725898459437E+002	2.7004984E-001	-2.7038385E+002
3	0	5.319725898333127E+002	2.6965770E-001	-2.7037677E+002
3	0	5.324725898206816E+002	2.6929271E-001	-2.7040860E+002
3	0	5.329725898080505E+002	2.6895678E-001	-2.7038742E+002
3	0	5.334725897954195E+002	2.6861757E-001	-2.7038742E+002
3	0	5.339725897827884E+002	2.6828822E-001	-2.7040155E+002
3	0	5.344725897701574E+002	2.6795259E-001	-2.7038031E+002
3	0	5.349725897575263E+002	2.6761746E-001	-2.7037677E+002
3	0	5.354725897448952E+002	2.6726061E-001	-2.7039093E+002
3	0	5.359725897322642E+002	2.6689264E-001	-2.7039801E+002
3	0	5.364725897196331E+002	2.6654667E-001	-2.7039093E+002
3	0	5.369725897070020E+002	2.6623315E-001	-2.7039447E+002
3	0	5.374725896943710E+002	2.6592374E-001	-2.7038742E+002
3	0	5.379725896817399E+002	2.6561278E-001	-2.7040506E+002
3	0	5.384725896691089E+002	2.6530358E-001	-2.7038385E+002
3	0	5.389725896564778E+002	2.6499191E-001	-2.7037326E+002
3	0	5.394725896438467E+002	2.6467702E-001	-2.7039093E+002
3	0	5.399725896312157E+002	2.6433676E-001	-2.7037326E+002
3	0	5.404725896185846E+002	2.6402211E-001	-2.7036618E+002
3	0	5.409725896059535E+002	2.6373994E-001	-2.7036618E+002
3	0	5.414725895933225E+002	2.6346001E-001	-2.7039093E+002
3	0	5.419725895806914E+002	2.6317552E-001	-2.7036972E+002
3	0	5.424725895680604E+002	2.6289093E-001	-2.7037326E+002
3	0	5.429725895554293E+002	2.6260483E-001	-2.7037326E+002
3	0	5.434725895427982E+002	2.6230338E-001	-2.7039447E+002
3	0	5.439725895301672E+002	2.6198614E-001	-2.7038742E+002
3	0	5.444725895175361E+002	2.6169533E-001	-2.7034851E+002
3	0	5.449725895049050E+002	2.6143414E-001	-2.7039801E+002
3	0	5.454725894922740E+002	2.6117483E-001	-2.7036618E+002
3	0	5.459725894796429E+002	2.6091269E-001	-2.7039093E+002
3	0	5.464725894670119E+002	2.6065546E-001	-2.7037677E+002
3	0	5.469725894543808E+002	2.6039317E-001	-2.7038742E+002
3	0	5.474725894417497E+002	2.6011613E-001	-2.7038031E+002
3	0	5.479725894291187E+002	2.5982890E-001	-2.7038385E+002
3	0	5.484725894164876E+002	2.5956759E-001	-2.7037677E+002
3	0	5.489725894038565E+002	2.5933146E-001	-2.7038742E+002
3	0	5.494725893912255E+002	2.5910074E-001	-2.7035913E+002
3	0	5.499725893785944E+002	2.5886294E-001	-2.7039801E+002
3	0	5.504725893659634E+002	2.5863373E-001	-2.7036618E+002
3	0	5.509725893533323E+002	2.5839385E-001	-2.7039093E+002
3	0	5.514725893407012E+002	2.5814450E-001	-2.7040155E+002
3	0	5.519725893280702E+002	2.5787428E-001	-2.7037326E+002
3	0	5.524725893154391E+002	2.5762495E-001	-2.7038385E+002
3	0	5.529725893028080E+002	2.5740844E-001	-2.7038031E+002
3	0	5.534725892901770E+002	2.5719249E-001	-2.7038385E+002
3	0	5.539725892775459E+002	2.5697079E-001	-2.7036972E+002
3	0	5.544725892649149E+002	2.5675434E-001	-2.7039093E+002
3	0	5.549725892522838E+002	2.5653768E-001	-2.7038031E+002
3	0	5.554725892396527E+002	2.5630641E-001	-2.7038031E+002
3	0	5.559725892270217E+002	2.5606054E-001	-2.7035913E+002
3	0	5.564725892143906E+002	2.5583020E-001	-2.7038385E+002
3	0	5.569725892017595E+002	2.5564215E-001	-2.7036972E+002
3	0	5.574725891891285E+002	2.5543845E-001	-2.7036972E+002
3	0	5.579725891764974E+002	2.5523239E-001	-2.7036972E+002
3	0	5.584725891638664E+002	2.5503972E-001	-2.7037326E+002
3	0	5.589725891512353E+002	2.5484803E-001	-2.7038385E+002
3	0	5.594725891386042E+002	2.5463244E-001	-2.7036972E+002
3	0	5.599725891259732E+002	2.5439665E-001	-2.7037326E+002
3	0	5.604725891133421E+002	2.5419313E-001	-2.7038742E+002
3	0	5.609725891007110E+002	2.5401118E-001	-2.7036618E+002
3	0	5.614725890880800E+002	2.5382200E-001	-2.7035913E+002
3	0	5.619725890754489E+002	2.5363708E-001	-2.7040860E+002
3	0	5.624725890628179E+002	2.5344694E-001	-2.7039447E+002
3	0	5.629725890501868E+002	2.5325313E-001	-2.7036972E+002
3	0	5.634725890375557E+002	2.5305045E-001	-2.7037326E+002
3	0	5.639725890249247E+002	2.5282830E-001	-2.7037326E+002
3	0	5.644725890122936E+002	2.5262386E-001	-2.7035913E+002
3	0	5.649725889996625E+002	2.5246474E-001	-2.7037326E+002
3	0	5.654725889870315E+002	2.5229368E-001	-2.7038031E+002
3	0	5.659725889744004E+002	2.5211689E-001	-2.7038385E+002
3	0	5.664725889617694E+002	2.5194320E-001	-2.7038031E+002
3	0	5.669725889491383E+002	2.5177318E-001	-2.7038385E+002
3	0	5.674725889365072E+002	2.5158304E-001	-2.7040506E+002
3	0	5.679725889238762E+002	2.5137156E-001	-2.7038742E+002
3	0	5.684725889112451E+002	2.5119007E-001	-2.7036618E+002
3	0	5.689725888986140E+002	2.5104249E-001	-2.7036618E+002
3	0	5.694725888859830E+002	2.5087574E-001	-2.7036972E+002
3	0	5.699725888733519E+002	2.5071329E-001	-2.7038385E+002
3	0	5.704725888607209E+002	2.5055930E-001	-2.7037677E+002
3	0	5.709725888480898E+002	2.5040114E-001	-2.7036618E+002
3	0	5.714725888354587E+002	2.5022581E-001	-2.7039447E+002
3	0	5.719725888228277E+002	2.5003180E-001	-2.7036267E+002
3	0	5.724725888101966E+002	2.4987006E-001	-2.7040506E+002
3	0	5.729725887975656E+002	2.4973179E-001	-2.7038385E+002
3	0	5.734725887849345E+002	2.4958631E-001	-2.7038031E+002
3	0	5.739725887723034E+002	2.4943946E-001	-2.7037677E+002
3	0	5.744725887596724E+002	2.4929884E-001	-2.7036267E+002
3	0	5.749725887470413E+002	2.4915256E-001	-2.7038742E+002
3	0	5.754725887344102E+002	2.4898276E-001	-2.7037326E+002
3	0	5.759725887217792E+002	2.4880572E-001	-2.7039093E+002
3	0	5.764725887091481E+002	2.4864776E-001	-2.7038031E+002
3	0	5.769725886965171E+002	2.4852161E-001	-2.7038742E+002
3	0	5.774725886838860E+002	2.4837968E-001	-2.7036972E+002
3	0	5.779725886712549E+002	2.4824303E-001	-2.7038385E+002
3	0	5.784725886586239E+002	2.4811253E-001	-2.7039093E+002
3	0	5.789725886459928E+002	2.4798375E-001	-2.7039801E+002
3	0	5.794725886333617E+002	2.4782597E-001	-2.7038031E+002
3	0	5.799725886207307E+002	2.4764696E-001	-2.7038385E+002
3	0	5.804725886080996E+002	2.4749422E-001	-2.7038385E+002
3	0	5.809725885954686E+002	2.4737747E-001	-2.7037326E+002
3	0	5.814725885828375E+002	2.4724139E-001	-2.7038385E+002
3	0	5.819725885702064E+002	2.4711604E-001	-2.7038031E+002
3	0	5.824725885575754E+002	2.4698736E-001	-2.7038742E+002
3	0	5.829725885449443E+002	2.4685694E-001	-2.7036267E+002
3	0	5.834725885323132E+002	2.4671219E-001	-2.7038385E+002
3	0	5.839725885196822E+002	2.4654435E-001	-2.7037326E+002
3	0	5.844725885070511E+002	2.4640030E-001	-2.7036267E+002
3	0	5.849725884944201E+002	2.4628609E-001	-2.7039447E+002
3	0	5.854725884817890E+002	2.4616188E-001	-2.7039801E+002
3	0	5.859725884691579E+002	2.4603927E-001	-2.7037326E+002
3	0	5.864725884565269E+002	2.4592465E-001	-2.7039093E+002
3	0	5.869725884438958E+002	2.4579784E-001	-2.7035205E+002
3	0	5.874725884312647E+002	2.4566397E-001	-2.7040155E+002
3	0	5.879725884186337E+002	2.4550760E-001	-2.7039093E+002
3	0	5.884725884060026E+002	2.4537574E-001	-2.7036972E+002
3	0	5.889725883933716E+002	2.4527343E-001	-2.7039447E+002
3	0	5.894725883807405E+002	2.4516279E-001	-2.7037677E+002
3	0	5.899725883681094E+002	2.4505606E-001	-2.7039801E+002
3	0	5.904725883554784E+002	2.4494474E-001	-2.7040155E+002
3	0	5.909725883428473E+002	2.4483705E-001	-2.7038742E+002
3	0	5.914725883302162E+002	2.4470477E-001	-2.7038031E+002
3	0	5.919725883175852E+002	2.4455723E-001	-2.7037677E+002
3	0	5.924725883049541E+002	2.4443129E-001	-2.7037677E+002
3	0	5.929725882923231E+002	2.4433534E-001	-2.7038742E+002
3	0	5.934725882796920E+002	2.4423282E-001	-2.7036972E+002
3	0	5.939725882670609E+002	2.4412599E-001	-2.7038031E+002
3	0	5.944725882544299E+002	2.4402660E-001	-2.7039093E+002
3	0	5.949725882417988E+002	2.4392293E-001	-2.7036267E+002
3	0	5.954725882291677E+002	2.4380116E-001	-2.7037326E+002
3	0	5.959725882165367E+002	2.4365433E-001	-2.7038385E+002
3	0	5.964725882039056E+002	2.4353863E-001	-2.7038742E+002
3	0	5.969725881912746E+002	2.4344957E-001	-2.7038031E+002
3	0	5.974725881786435E+002	2.4335143E-001	-2.7038385E+002
3	0	5.979725881660124E+002	2.4325465E-001	-2.7036972E+002
3	0	5.984725881533814E+002	2.4316019E-001	-2.7039093E+002
3	0	5.989725881407503E+002	2.4306209E-001	-2.7035913E+002
3	0	5.994725881281192E+002	2.4294144E-001	-2.7038742E+002
3	0	5.999725881154882E+002	2.4280456E-001	-2.7037677E+002
3	0	6.004725881028571E+002	2.4269100E-001	-2.7037326E+002
3	0	6.009725880902261E+002	2.4260846E-001	-2.7038385E+002
3	0	6.014725880775950E+002	2.4251625E-001	-2.7036972E+002
3	0	6.019725880649639E+002	2.4242516E-001	-2.7038742E+002
3	0	6.024725880523329E+002	2.4233453E-001	-2.7039447E+002
3	0	6.029725880397018E+002	2.4223690E-001	-2.7038385E+002
3	0	6.034725880270707E+002	2.4212067E-001	-2.7036618E+002
3	0	6.039725880144397E+002	2.4198316E-001	-2.7038385E+002
3	0	6.044725880018086E+002	2.4186932E-001	-2.7035913E+002
3	0	6.049725879891776E+002	2.4178250E-001	-2.7040155E+002
3	0	6.054725879765465E+002	2.4169061E-001	-2.7039093E+002
3	0	6.059725879639154E+002	2.4160206E-001	-2.7036972E+002
3	0	6.064725879512844E+002	2.4151850E-001	-2.7036972E+002
3	0	6.069725879386533E+002	2.4141996E-001	-2.7037677E+002
3	0	6.074725879260222E+002	2.4130441E-001	-2.7039801E+002
3	0	6.079725879133912E+002	2.4116962E-001	-2.7040506E+002
3	0	6.084725879007601E+002	2.4106200E-001	-2.7038742E+002
3	0	6.089725878881291E+002	2.4098507E-001	-2.7038031E+002
3	0	6.094725878754980E+002	2.4089649E-001	-2.7035205E+002
3	0	6.099725878628669E+002	2.4081282E-001	-2.7041214E+002
3	0	6.104725878502359E+002	2.4072647E-001	-2.7038031E+002
3	0	6.109725878376048E+002	2.4063656E-001	-2.7036972E+002
3	0	6.114725878249737E+002	2.4052833E-001	-2.7036618E+002
3	0	6.119725878123427E+002	2.4040094E-001	-2.7038385E+002
3	0	6.124725877997116E+002	2.4029762E-001	-2.7040860E+002
3	0	6.129725877870806E+002	2.4022694E-001	-2.7041568E+002
3	0	6.134725877744495E+002	2.4014813E-001	-2.7038031E+002
3	0	6.139725877618184E+002	2.4007243E-001	-2.7038385E+002
3	0	6.144725877491874E+002	2.3999910E-001	-2.7039447E+002
3	0	6.149725877365563E+002	2.3990980E-001	-2.7037326E+002
3	0	6.154725877239252E+002	2.3980428E-001	-2.7036972E+002
3	0	6.159725877112942E+002	2.3968245E-001	-2.7037677E+002
3	0	6.164725876986631E+002	2.3959137E-001	-2.7037677E+002
3	0	6.169725876860321E+002	2.3952106E-001	-2.7037326E+002
3	0	6.174725876734010E+002	2.3944837E-001	-2.7038385E+002
3	0	6.179725876607699E+002	2.3937118E-001	-2.7039447E+002
3	0	6.184725876481389E+002	2.3929302E-001	-2.7040506E+002
3	0	6.189725876355078E+002	2.3921646E-001	-2.7039093E+002
3	0	6.194725876228767E+002	2.3912287E-001	-2.7037326E+002
3	0	6.199725876102457E+002	2.3900586E-001	-2.7035913E+002
3	0	6.204725875976146E+002	2.3891269E-001	-2.7039447E+002
3	0	6.209725875849836E+002	2.3884369E-001	-2.7039801E+002
3	0	6.214725875723525E+002	2.3876916E-001	-2.7037326E+002
3	0	6.219725875597214E+002	2.3870048E-001	-2.7038031E+002
3	0	6.224725875470904E+002	2.3862813E-001	-2.7039093E+002
3	0	6.229725875344593E+002	2.3855118E-001	-2.7038031E+002
3	0	6.234725875218282E+002	2.3845252E-001	-2.7039093E+002
3	0	6.239725875091972E+002	2.3833644E-001	-2.7038385E+002
3	0	6.244725874965661E+002	2.3823854E-001	-2.7036267E+002
3	0	6.249725874839351E+002	2.3817311E-001	-2.7039801E+002
3	0	6.254725874713040E+002	2.3810035E-001	-2.7038742E+002
3	0	6.259725874586729E+002	2.3802768E-001	-2.7038742E+002
3	0	6.264725874460419E+002	2.3795353E-001	-2.7036972E+002
3	0	6.269725874334108E+002	2.3787916E-001	-2.7037677E+002
3	0	6.274725874207797E+002	2.3778348E-001	-2.7037326E+002
3	0	6.279725874081487E+002	2.3766901E-001	-2.7037326E+002
3	0	6.284725873955176E+002	2.3757775E-001	-2.7038742E+002
3	0	6.289725873828866E+002	2.3751810E-001	-2.7036972E+002
3	0	6.294725873702555E+002	2.3745045E-001	-2.7036972E+002
3	0	6.299725873576244E+002	2.3738475E-001	-2.7040506E+002
3	0	6.304725873449934E+002	2.3732330E-001	-2.7038031E+002
3	0	6.309725873323623E+002	2.3725657E-001	-2.7038031E+002
3	0	6.314725873197312E+002	2.3716959E-001	-2.7035913E+002
3	0	6.319725873071002E+002	2.3706144E-001	-2.7038742E+002
3	0	6.324725872944691E+002	2.3697801E-001	-2.7036267E+002
3	0	6.329725872818381E+002	2.3692223E-001	-2.7039447E+002
3	0	6.334725872692070E+002	2.3685865E-001	-2.7036972E+002
3	0	6.339725872565759E+002	2.3680110E-001	-2.7037326E+002
3	0	6.344725872439449E+002	2.3673971E-001	-2.7039447E+002
3	0	6.349725872313138E+002	2.3666993E-001	-2.7035913E+002
3	0	6.354725872186827E+002	2.3658878E-001	-2.7038742E+002
3	0	6.359725872060517E+002	2.3648334E-001	-2.7037326E+002
3	0	6.364725871934206E+002	2.3639530E-001	-2.7036618E+002
3	0	6.369725871807896E+002	2.3634531E-001	-2.7036267E+002
3	0	6.374725871681585E+002	2.3628409E-001	-2.7039447E+002
3	0	6.379725871555274E+002	2.3623532E-001	-2.7036972E+002
3	0	6.384725871428964E+002	2.3617315E-001	-2.7037677E+002
3	0	6.389725871302653E+002	2.3611249E-001	-2.7037677E+002
3	0	6.394725871176342E+002	2.3602328E-001	-2.7038031E+002
3	0	6.399725871050032E+002	2.3592274E-001	-2.7039801E+002
3	0	6.404725870923721E+002	2.3584938E-001	-2.7037326E+002
3	0	6.409725870797411E+002	2.3579948E-001	-2.7034143E+002
3	0	6.414725870671100E+002	2.3574089E-001	-2.7037326E+002
3	0	6.419725870544789E+002	2.3569545E-001	-2.7037326E+002
3	0	6.424725870418479E+002	2.3563588E-001	-2.7036618E+002
3	0	6.429725870292168E+002	2.3557948E-001	-2.7038031E+002
3	0	6.434725870165857E+002	2.3549630E-001	-2.7038385E+002
3	0	6.439725870039547E+002	2.3539093E-001	-2.7038385E+002
3	0	6.444725869913236E+002	2.3531212E-001	-2.7037326E+002
3	0	6.449725869786926E+002	2.3525448E-001	-2.7036972E+002
3	0	6.454725869660615E+002	2.3518826E-001	-2.7038742E+002
3	0	6.459725869534304E+002	2.3513536E-001	-2.7036618E+002
3	0	6.464725869407994E+002	2.3507115E-001	-2.7040155E+002
3	0	6.469725869281683E+002	2.3500963E-001	-2.7038385E+002
3	0	6.474725869155372E+002	2.3492469E-001	-2.7036972E+002
3	0	6.479725869029062E+002	2.3482682E-001	-2.7038031E+002
3	0	6.484725868902751E+002	2.3475128E-001	-2.7037326E+002
3	0	6.489725868776441E+002	2.3471080E-001	-2.7035205E+002
3	0	6.494725868650130E+002	2.3465191E-001	-2.7039801E+002
3	0	6.499725868523819E+002	2.3460050E-001	-2.7037326E+002
3	0	6.504725868397509E+002	2.3455024E-001	-2.7036972E+002
3	0	6.509725868271198E+002	2.3449273E-001	-2.7037326E+002
3	0	6.514725868144888E+002	2.3441651E-001	-2.7037326E+002
3	0	6.519725868018577E+002	2.3431621E-001	-2.7038031E+002
3	0	6.524725867892266E+002	2.3424378E-001	-2.7039447E+002
3	0	6.529725867765956E+002	2.3419754E-001	-2.7036618E+002
3	0	6.534725867639645E+002	2.3414081E-001	-2.7038031E+002
3	0	6.539725867513334E+002	2.3408991E-001	-2.7037677E+002
3	0	6.544725867387024E+002	2.3404349E-001	-2.7039447E+002
3	0	6.549725867260713E+002	2.3398924E-001	-2.7036972E+002
3	0	6.554725867134403E+002	2.3390827E-001	-2.7040155E+002
3	0	6.559725867008092E+002	2.3381416E-001	-2.7035205E+002
3	0	6.564725866881781E+002	2.3373920E-001	-2.7036267E+002
3	0	6.569725866755471E+002	2.3368900E-001	-2.7035559E+002
3	0	6.574725866629160E+002	2.3363744E-001	-2.7039801E+002
3	0	6.579725866502849E+002	2.3358776E-001	-2.7036972E+002
3	0	6.584725866376539E+002	2.3353627E-001	-2.7039447E+002
3	0	6.589725866250228E+002	2.3347719E-001	-2.7037677E+002
3	0	6.594725866123918E+002	2.3339847E-001	-2.7036618E+002
3	0	6.599725865997607E+002	2.3330995E-001	-2.7036972E+002
3	0	6.604725865871296E+002	2.3324005E-001	-2.7035559E+002
3	0	6.609725865744986E+002	2.3319852E-001	-2.7038385E+002
3	0	6.614725865618675E+002	2.3315081E-001	-2.7034851E+002
3	0	6.619725865492364E+002	2.3310629E-001	-2.7038385E+002
3	0	6.624725865366054E+002	2.3304728E-001	-2.7039447E+002
3	0	6.629725865239743E+002	2.3297256E-001	-2.7036972E+002
3	0	6.634725865113433E+002	2.3291309E-001	-2.7040155E+002
3	0	6.639725864987122E+002	2.3283055E-001	-2.7036618E+002
3	0	6.644725864860811E+002	2.3277166E-001	-2.7037326E+002
3	0	6.649725864734501E+002	2.3272975E-001	-2.7039447E+002
3	0	6.654725864608190E+002	2.3267855E-001	-2.7038385E+002
3	0	6.659725864481879E+002	2.3262677E-001	-2.7038385E+002
3	0	6.664725864355569E+002	2.3257895E-001	-2.7037326E+002
3	0	6.669725864229258E+002	2.3252694E-001	-2.7038031E+002
3	0	6.674725864102948E+002	2.3245634E-001	-2.7039801E+002
3	0	6.679725863976637E+002	2.3236471E-001	-2.7037677E+002
3	0	6.684725863850326E+002	2.3229726E-001	-2.7038742E+002
3	0	6.689725863724016E+002	2.3225795E-001	-2.7038742E+002
3	0	6.694725863597705E+002	2.3220903E-001	-2.7037677E+002
3	0	6.699725863471394E+002	2.3216264E-001	-2.7038385E+002
3	0	6.704725863345084E+002	2.3211588E-001	-2.7039093E+002
3	0	6.709725863218773E+002	2.3206510E-001	-2.7038031E+002
3	0	6.714725863092463E+002	2.3198792E-001	-2.7036618E+002
3	0	6.719725862966152E+002	2.3190337E-001	-2.7037326E+002
3	0	6.724725862839841E+002	2.3183934E-001	-2.7038742E+002
3	0	6.729725862713531E+002	2.3180622E-001	-2.7036972E+002
3	0	6.734725862587220E+002	2.3176455E-001	-2.7037677E+002
3	0	6.739725862460909E+002	2.3172075E-001	-2.7036618E+002
3	0	6.744725862334599E+002	2.3167811E-001	-2.7038385E+002
3	0	6.749725862208288E+002	2.3163214E-001	-2.7038031E+002
3	0	6.749729862208187E+002	2.3162863E-001	-2.7038031E+002