EC-Lab ASCII FILE
Nb header lines : 55                          

Open Circuit Voltage

Run on channel : 1 (SN 81504)
User : 
CE vs. WE compliance from -10 V to 10 V
Electrode connection : standard
Potential control : Ewe
Ewe ctrl range : min = -2.50 V, max = 2.50 V
Safety Limits :
	Do not start on E overload
Acquisition started on : 05/08/2026 00:05:30.308
Loaded Setting File :  C:\PEM-WE_measurements\2026\372_IV_IV IrOx, 5 min Pt, 30 min C, etched cathode\new station\Loopeis new\1,46 V different time gaps open cell\Loopeis 1,46V_180s_3_PEIS from 6500Hz to 1000Hz.mps
Saved on :
	File : L_28_Loopeis 1,46V_180s_3_PEIS from 6500Hz to 1000Hz_14_OCV_C01.mpr
	Directory : C:\PEM-WE_measurements\2026\372_IV_IV IrOx, 5 min Pt, 30 min C, etched cathode\new station\Loopeis new\1,46 V different time gaps open cell\
	Host : 192.168.0.2
Device : SP-150e (SN .005491)
Address : 192.168.0.91
EC-LAB for windows v11.71 (software)
Internet server v28.00 (firmware)
Command interpretor v14.01 (firmware)
Electrode material : 
Initial state : 
Electrolyte : 
Comments : 
Current amplifier : SP-150eB-20A
Electrode surface area : 0.001 cm²
Characteristic mass : 0.001 g
Equivalent Weight : 0.000 g/eq.
Density : 0.000 g/cm3
Volume (V) : 0.001 cm³
Record Analogic IN 1
Text export
   Mode : Standard
   Time format : Elapsed
Cycle Definition : Charge/Discharge alternance
External device configuration :
   device type : Temperature Probe
   device name : Other
   Analog IN 1 : 
      unit : T/Â°C
      max : 100.000 at 2.000 V
      min : 0.000 at 1.460 V
tR (h:m:s)          0:03:0.0000         
dER/dt (mV/h)       1.0                 
record              <Ewe>               
dER (mV)            10.00               
dtR (s)             0.5000              
E range min (V)     -2.500              
E range max (V)     2.500               

mode	error	time/s	<Ewe/V>	Analog IN 1/V	
3	0	1.397658174671378E+003	1.2196836E+000	-2.7037326E+002
3	0	1.398158174658747E+003	1.1680242E+000	-2.7036618E+002
3	0	1.398658174646116E+003	7.9384381E-001	-2.7040155E+002
3	0	1.399158174633485E+003	4.1673961E-001	-2.7040860E+002
3	0	1.399658174620854E+003	3.4374273E-001	-2.7035913E+002
3	0	1.400158174608223E+003	3.3221483E-001	-2.7036972E+002
3	0	1.400658174595592E+003	3.2466775E-001	-2.7035913E+002
3	0	1.401158174582961E+003	3.1868842E-001	-2.7039093E+002
3	0	1.401658174570330E+003	3.1410319E-001	-2.7037677E+002
3	0	1.402158174557699E+003	3.1055689E-001	-2.7038742E+002
3	0	1.402658174545068E+003	3.0774277E-001	-2.7037677E+002
3	0	1.403158174532437E+003	3.0544022E-001	-2.7038742E+002
3	0	1.403658174519805E+003	3.0350441E-001	-2.7037677E+002
3	0	1.404158174507174E+003	3.0188173E-001	-2.7036618E+002
3	0	1.404658174494543E+003	3.0048725E-001	-2.7038031E+002
3	0	1.405158174481912E+003	2.9923972E-001	-2.7040506E+002
3	0	1.405658174469281E+003	2.9813099E-001	-2.7038031E+002
3	0	1.406158174456650E+003	2.9711759E-001	-2.7038385E+002
3	0	1.406658174444019E+003	2.9617637E-001	-2.7039801E+002
3	0	1.407158174431388E+003	2.9528081E-001	-2.7038031E+002
3	0	1.407658174418757E+003	2.9442653E-001	-2.7039093E+002
3	0	1.408158174406126E+003	2.9364786E-001	-2.7037677E+002
3	0	1.408658174393495E+003	2.9292393E-001	-2.7038031E+002
3	0	1.409158174380864E+003	2.9221573E-001	-2.7037677E+002
3	0	1.409658174368233E+003	2.9152909E-001	-2.7037326E+002
3	0	1.410158174355602E+003	2.9086861E-001	-2.7035559E+002
3	0	1.410658174342971E+003	2.9022446E-001	-2.7035205E+002
3	0	1.411158174330340E+003	2.8957859E-001	-2.7035913E+002
3	0	1.411658174317708E+003	2.8893173E-001	-2.7037677E+002
3	0	1.412158174305077E+003	2.8833741E-001	-2.7041214E+002
3	0	1.412658174292446E+003	2.8776067E-001	-2.7035205E+002
3	0	1.413158174279815E+003	2.8718811E-001	-2.7041214E+002
3	0	1.413658174267184E+003	2.8662726E-001	-2.7039093E+002
3	0	1.414158174254553E+003	2.8607422E-001	-2.7037326E+002
3	0	1.414658174241922E+003	2.8552350E-001	-2.7038742E+002
3	0	1.415158174229291E+003	2.8496310E-001	-2.7038031E+002
3	0	1.415658174216660E+003	2.8440118E-001	-2.7038742E+002
3	0	1.416158174204029E+003	2.8386754E-001	-2.7036972E+002
3	0	1.416658174191398E+003	2.8335333E-001	-2.7039093E+002
3	0	1.417158174178767E+003	2.8284004E-001	-2.7037326E+002
3	0	1.417658174166136E+003	2.8234282E-001	-2.7040506E+002
3	0	1.418158174153505E+003	2.8185129E-001	-2.7038031E+002
3	0	1.418658174140874E+003	2.8134739E-001	-2.7036972E+002
3	0	1.419158174128243E+003	2.8083932E-001	-2.7036267E+002
3	0	1.419658174115611E+003	2.8031662E-001	-2.7036267E+002
3	0	1.420158174102980E+003	2.7983737E-001	-2.7038385E+002
3	0	1.420658174090349E+003	2.7937132E-001	-2.7038742E+002
3	0	1.421158174077718E+003	2.7891064E-001	-2.7039093E+002
3	0	1.421658174065087E+003	2.7844647E-001	-2.7039447E+002
3	0	1.422158174052456E+003	2.7799347E-001	-2.7036972E+002
3	0	1.422658174039825E+003	2.7753794E-001	-2.7036618E+002
3	0	1.423158174027194E+003	2.7706817E-001	-2.7037326E+002
3	0	1.423658174014563E+003	2.7658865E-001	-2.7036972E+002
3	0	1.424158174001932E+003	2.7613991E-001	-2.7036972E+002
3	0	1.424658173989301E+003	2.7571523E-001	-2.7036618E+002
3	0	1.425158173976670E+003	2.7528182E-001	-2.7038742E+002
3	0	1.425658173964039E+003	2.7485591E-001	-2.7038031E+002
3	0	1.426158173951408E+003	2.7444169E-001	-2.7038742E+002
3	0	1.426658173938777E+003	2.7401498E-001	-2.7039447E+002
3	0	1.427158173926146E+003	2.7357686E-001	-2.7038742E+002
3	0	1.427658173913514E+003	2.7313024E-001	-2.7035913E+002
3	0	1.428158173900883E+003	2.7271858E-001	-2.7035205E+002
3	0	1.428658173888252E+003	2.7232704E-001	-2.7040155E+002
3	0	1.429158173875621E+003	2.7193332E-001	-2.7037677E+002
3	0	1.429658173862990E+003	2.7153862E-001	-2.7036972E+002
3	0	1.430158173850359E+003	2.7114505E-001	-2.7038742E+002
3	0	1.430658173837728E+003	2.7075601E-001	-2.7036972E+002
3	0	1.431158173825097E+003	2.7034745E-001	-2.7038742E+002
3	0	1.431658173812466E+003	2.6993296E-001	-2.7039093E+002
3	0	1.432158173799835E+003	2.6956168E-001	-2.7037677E+002
3	0	1.432658173787204E+003	2.6920453E-001	-2.7035205E+002
3	0	1.433158173774573E+003	2.6884443E-001	-2.7036972E+002
3	0	1.433658173761942E+003	2.6848495E-001	-2.7037677E+002
3	0	1.434158173749311E+003	2.6813236E-001	-2.7038385E+002
3	0	1.434658173736680E+003	2.6776907E-001	-2.7038031E+002
3	0	1.435158173724049E+003	2.6739699E-001	-2.7036972E+002
3	0	1.435658173711417E+003	2.6702198E-001	-2.7039093E+002
3	0	1.436158173698786E+003	2.6667818E-001	-2.7035913E+002
3	0	1.436658173686155E+003	2.6634595E-001	-2.7037326E+002
3	0	1.437158173673524E+003	2.6601782E-001	-2.7038031E+002
3	0	1.437658173660893E+003	2.6568976E-001	-2.7037677E+002
3	0	1.438158173648262E+003	2.6536313E-001	-2.7035559E+002
3	0	1.438658173635631E+003	2.6503566E-001	-2.7035205E+002
3	0	1.439158173623000E+003	2.6468894E-001	-2.7037326E+002
3	0	1.439658173610369E+003	2.6434022E-001	-2.7039093E+002
3	0	1.440158173597738E+003	2.6402673E-001	-2.7035559E+002
3	0	1.440658173585107E+003	2.6373139E-001	-2.7040506E+002
3	0	1.441158173572476E+003	2.6342469E-001	-2.7036972E+002
3	0	1.441658173559845E+003	2.6312450E-001	-2.7036972E+002
3	0	1.442158173547214E+003	2.6282644E-001	-2.7036618E+002
3	0	1.442658173534583E+003	2.6252711E-001	-2.7039801E+002
3	0	1.443158173521952E+003	2.6220593E-001	-2.7038742E+002
3	0	1.443658173509320E+003	2.6187965E-001	-2.7036972E+002
3	0	1.444158173496689E+003	2.6159176E-001	-2.7038031E+002
3	0	1.444658173484058E+003	2.6131523E-001	-2.7038031E+002
3	0	1.445158173471427E+003	2.6103422E-001	-2.7039447E+002
3	0	1.445658173458796E+003	2.6075915E-001	-2.7036267E+002
3	0	1.446158173446165E+003	2.6048666E-001	-2.7039447E+002
3	0	1.446658173433534E+003	2.6020664E-001	-2.7039093E+002
3	0	1.447158173420903E+003	2.5991318E-001	-2.7037677E+002
3	0	1.447658173408272E+003	2.5961220E-001	-2.7036972E+002
3	0	1.448158173395641E+003	2.5935334E-001	-2.7039447E+002
3	0	1.448658173383010E+003	2.5909817E-001	-2.7036972E+002
3	0	1.449158173370379E+003	2.5883695E-001	-2.7037326E+002
3	0	1.449658173357748E+003	2.5858098E-001	-2.7037677E+002
3	0	1.450158173345117E+003	2.5832760E-001	-2.7035559E+002
3	0	1.450658173332486E+003	2.5806862E-001	-2.7036618E+002
3	0	1.451158173319855E+003	2.5780323E-001	-2.7035559E+002
3	0	1.451658173307223E+003	2.5751311E-001	-2.7038742E+002
3	0	1.452158173294592E+003	2.5726628E-001	-2.7037677E+002
3	0	1.452658173281961E+003	2.5703767E-001	-2.7039093E+002
3	0	1.453158173269330E+003	2.5680658E-001	-2.7035559E+002
3	0	1.453658173256699E+003	2.5657758E-001	-2.7038742E+002
3	0	1.454158173244068E+003	2.5634921E-001	-2.7036618E+002
3	0	1.454658173231437E+003	2.5612170E-001	-2.7036267E+002
3	0	1.455158173218806E+003	2.5587016E-001	-2.7038385E+002
3	0	1.455658173206175E+003	2.5561899E-001	-2.7038031E+002
3	0	1.456158173193544E+003	2.5539967E-001	-2.7038385E+002
3	0	1.456658173180913E+003	2.5518808E-001	-2.7036267E+002
3	0	1.457158173168282E+003	2.5497335E-001	-2.7038742E+002
3	0	1.457658173155651E+003	2.5476292E-001	-2.7035559E+002
3	0	1.458158173143020E+003	2.5455594E-001	-2.7039447E+002
3	0	1.458658173130389E+003	2.5434715E-001	-2.7038031E+002
3	0	1.459158173117758E+003	2.5411966E-001	-2.7039093E+002
3	0	1.459658173105126E+003	2.5387904E-001	-2.7038031E+002
3	0	1.460158173092495E+003	2.5367993E-001	-2.7039447E+002
3	0	1.460658173079864E+003	2.5348660E-001	-2.7036972E+002
3	0	1.461158173067233E+003	2.5328091E-001	-2.7037326E+002
3	0	1.461658173054602E+003	2.5309664E-001	-2.7038385E+002
3	0	1.462158173041971E+003	2.5290138E-001	-2.7037677E+002
3	0	1.462658173029340E+003	2.5269765E-001	-2.7037326E+002
3	0	1.463158173016709E+003	2.5247970E-001	-2.7037326E+002
3	0	1.463658173004078E+003	2.5225529E-001	-2.7038385E+002
3	0	1.464158172991447E+003	2.5206125E-001	-2.7036618E+002
3	0	1.464658172978816E+003	2.5188711E-001	-2.7038385E+002
3	0	1.465158172966185E+003	2.5170514E-001	-2.7039447E+002
3	0	1.465658172953554E+003	2.5152719E-001	-2.7038742E+002
3	0	1.466158172940923E+003	2.5134772E-001	-2.7038742E+002
3	0	1.466658172928292E+003	2.5116608E-001	-2.7036972E+002
3	0	1.467158172915661E+003	2.5095898E-001	-2.7038742E+002
3	0	1.467658172903029E+003	2.5073919E-001	-2.7037677E+002
3	0	1.468158172890398E+003	2.5056359E-001	-2.7037326E+002
3	0	1.468658172877767E+003	2.5038898E-001	-2.7038031E+002
3	0	1.469158172865136E+003	2.5021437E-001	-2.7035205E+002
3	0	1.469658172852505E+003	2.5004148E-001	-2.7038742E+002
3	0	1.470158172839874E+003	2.4987410E-001	-2.7038031E+002
3	0	1.470658172827243E+003	2.4970113E-001	-2.7036972E+002
3	0	1.471158172814612E+003	2.4950406E-001	-2.7039447E+002
3	0	1.471658172801981E+003	2.4930279E-001	-2.7038385E+002
3	0	1.472158172789350E+003	2.4914140E-001	-2.7035559E+002
3	0	1.472658172776719E+003	2.4898744E-001	-2.7038385E+002
3	0	1.473158172764088E+003	2.4882616E-001	-2.7036972E+002
3	0	1.473658172751457E+003	2.4867710E-001	-2.7038031E+002
3	0	1.474158172738826E+003	2.4852110E-001	-2.7037326E+002
3	0	1.474658172726195E+003	2.4836004E-001	-2.7038385E+002
3	0	1.475158172713564E+003	2.4818572E-001	-2.7037326E+002
3	0	1.475658172700932E+003	2.4799791E-001	-2.7037677E+002
3	0	1.476158172688301E+003	2.4784583E-001	-2.7036972E+002
3	0	1.476658172675670E+003	2.4770863E-001	-2.7037677E+002
3	0	1.477158172663039E+003	2.4756591E-001	-2.7038031E+002
3	0	1.477658172650408E+003	2.4742366E-001	-2.7039093E+002
3	0	1.478158172637777E+003	2.4728090E-001	-2.7039801E+002
3	0	1.478658172625146E+003	2.4713102E-001	-2.7038031E+002
3	0	1.479158172612515E+003	2.4696104E-001	-2.7036267E+002
3	0	1.479658172599884E+003	2.4678573E-001	-2.7037677E+002
3	0	1.480158172587253E+003	2.4664654E-001	-2.7038742E+002
3	0	1.480658172574622E+003	2.4651717E-001	-2.7037326E+002
3	0	1.481158172561991E+003	2.4638866E-001	-2.7037677E+002
3	0	1.481658172549360E+003	2.4626403E-001	-2.7036618E+002
3	0	1.482158172536729E+003	2.4613759E-001	-2.7038031E+002
3	0	1.482658172524098E+003	2.4600326E-001	-2.7039447E+002
3	0	1.483158172511467E+003	2.4584626E-001	-2.7038385E+002
3	0	1.483658172498835E+003	2.4567464E-001	-2.7038385E+002
3	0	1.484158172486204E+003	2.4555391E-001	-2.7037677E+002
3	0	1.484658172473573E+003	2.4543539E-001	-2.7039801E+002
3	0	1.485158172460942E+003	2.4531190E-001	-2.7039801E+002
3	0	1.485658172448311E+003	2.4519376E-001	-2.7036972E+002
3	0	1.486158172435680E+003	2.4507472E-001	-2.7038742E+002
3	0	1.486658172423049E+003	2.4494562E-001	-2.7038742E+002
3	0	1.487158172410418E+003	2.4479283E-001	-2.7038031E+002
3	0	1.487658172397787E+003	2.4462745E-001	-2.7036267E+002
3	0	1.488158172385156E+003	2.4450395E-001	-2.7037677E+002
3	0	1.488658172372525E+003	2.4439542E-001	-2.7037677E+002
3	0	1.489158172359894E+003	2.4427755E-001	-2.7039447E+002
3	0	1.489658172347263E+003	2.4416351E-001	-2.7039093E+002
3	0	1.490158172334632E+003	2.4404645E-001	-2.7039093E+002
3	0	1.490658172322001E+003	2.4392182E-001	-2.7037677E+002
3	0	1.491158172309370E+003	2.4377073E-001	-2.7034851E+002
3	0	1.491658172296738E+003	2.4360758E-001	-2.7036267E+002
3	0	1.492158172284107E+003	2.4349564E-001	-2.7036972E+002
3	0	1.492658172271476E+003	2.4339142E-001	-2.7038742E+002
3	0	1.493158172258845E+003	2.4328329E-001	-2.7037677E+002
3	0	1.493658172246214E+003	2.4317491E-001	-2.7037677E+002
3	0	1.494158172233583E+003	2.4306971E-001	-2.7041214E+002
3	0	1.494658172220952E+003	2.4295609E-001	-2.7039447E+002
3	0	1.495158172208321E+003	2.4282230E-001	-2.7038742E+002
3	0	1.495658172195690E+003	2.4266659E-001	-2.7038385E+002
3	0	1.496158172183059E+003	2.4255705E-001	-2.7038031E+002
3	0	1.496658172170428E+003	2.4245724E-001	-2.7038031E+002
3	0	1.497158172157797E+003	2.4235767E-001	-2.7036267E+002
3	0	1.497658172145166E+003	2.4225828E-001	-2.7037677E+002
3	0	1.498158172132535E+003	2.4216208E-001	-2.7036618E+002
3	0	1.498658172119904E+003	2.4205440E-001	-2.7035559E+002
3	0	1.499158172107273E+003	2.4192651E-001	-2.7036972E+002
3	0	1.499658172094641E+003	2.4178346E-001	-2.7036618E+002
3	0	1.500158172082010E+003	2.4168023E-001	-2.7038742E+002
3	0	1.500658172069379E+003	2.4159081E-001	-2.7038742E+002
3	0	1.501158172056748E+003	2.4149674E-001	-2.7039447E+002
3	0	1.501658172044117E+003	2.4140404E-001	-2.7037677E+002
3	0	1.502158172031486E+003	2.4130814E-001	-2.7036618E+002
3	0	1.502658172018855E+003	2.4120167E-001	-2.7035913E+002
3	0	1.503158172006224E+003	2.4107289E-001	-2.7035913E+002
3	0	1.503658171993593E+003	2.4093698E-001	-2.7037677E+002
3	0	1.504158171980962E+003	2.4084659E-001	-2.7036972E+002
3	0	1.504658171968331E+003	2.4075995E-001	-2.7036972E+002
3	0	1.505158171955700E+003	2.4067219E-001	-2.7038385E+002
3	0	1.505658171943069E+003	2.4058783E-001	-2.7038385E+002
3	0	1.506158171930438E+003	2.4049900E-001	-2.7039093E+002
3	0	1.506658171917807E+003	2.4040814E-001	-2.7037677E+002
3	0	1.507158171905176E+003	2.4028820E-001	-2.7039447E+002
3	0	1.507658171892544E+003	2.4015763E-001	-2.7037326E+002
3	0	1.508158171879913E+003	2.4006402E-001	-2.7039447E+002
3	0	1.508658171867282E+003	2.3997660E-001	-2.7036972E+002
3	0	1.509158171854651E+003	2.3988634E-001	-2.7037677E+002
3	0	1.509658171842020E+003	2.3980133E-001	-2.7037326E+002
3	0	1.510158171829389E+003	2.3971081E-001	-2.7036618E+002
3	0	1.510658171816758E+003	2.3961850E-001	-2.7035913E+002
3	0	1.511158171804127E+003	2.3949726E-001	-2.7038385E+002
3	0	1.511658171791496E+003	2.3936908E-001	-2.7039801E+002
3	0	1.512158171778865E+003	2.3927890E-001	-2.7036972E+002
3	0	1.512658171766234E+003	2.3920092E-001	-2.7038385E+002
3	0	1.513158171753603E+003	2.3912705E-001	-2.7038742E+002
3	0	1.513658171740972E+003	2.3905201E-001	-2.7039801E+002
3	0	1.514158171728341E+003	2.3896034E-001	-2.7035205E+002
3	0	1.514658171715710E+003	2.3883805E-001	-2.7039447E+002
3	0	1.515158171703079E+003	2.3873964E-001	-2.7038742E+002
3	0	1.515658171690447E+003	2.3863302E-001	-2.7038031E+002
3	0	1.516158171677816E+003	2.3856029E-001	-2.7037326E+002
3	0	1.516658171665185E+003	2.3850228E-001	-2.7038385E+002
3	0	1.517158171652554E+003	2.3843461E-001	-2.7039801E+002
3	0	1.517658171639923E+003	2.3836178E-001	-2.7037677E+002
3	0	1.518158171627292E+003	2.3828878E-001	-2.7038385E+002
3	0	1.518658171614661E+003	2.3820291E-001	-2.7038031E+002
3	0	1.519158171602030E+003	2.3809183E-001	-2.7038385E+002
3	0	1.519658171589399E+003	2.3796783E-001	-2.7036267E+002
3	0	1.520158171576768E+003	2.3788631E-001	-2.7037326E+002
3	0	1.520658171564137E+003	2.3782362E-001	-2.7038385E+002
3	0	1.521158171551506E+003	2.3775418E-001	-2.7037677E+002
3	0	1.521658171538875E+003	2.3767938E-001	-2.7037326E+002
3	0	1.522158171526244E+003	2.3760767E-001	-2.7039447E+002
3	0	1.522658171513613E+003	2.3752064E-001	-2.7039801E+002
3	0	1.523158171500982E+003	2.3741022E-001	-2.7041214E+002
3	0	1.523658171488350E+003	2.3729496E-001	-2.7040155E+002
3	0	1.524158171475719E+003	2.3721273E-001	-2.7038742E+002
3	0	1.524658171463088E+003	2.3715422E-001	-2.7039093E+002
3	0	1.525158171450457E+003	2.3709264E-001	-2.7035559E+002
3	0	1.525658171437826E+003	2.3702115E-001	-2.7036618E+002
3	0	1.526158171425195E+003	2.3694786E-001	-2.7038031E+002
3	0	1.526658171412564E+003	2.3685963E-001	-2.7035205E+002
3	0	1.527158171399933E+003	2.3675157E-001	-2.7036267E+002
3	0	1.527658171387302E+003	2.3663417E-001	-2.7038031E+002
3	0	1.528158171374671E+003	2.3655446E-001	-2.7038031E+002
3	0	1.528658171362040E+003	2.3649526E-001	-2.7039093E+002
3	0	1.529158171349409E+003	2.3642635E-001	-2.7035913E+002
3	0	1.529658171336778E+003	2.3635690E-001	-2.7038742E+002
3	0	1.530158171324147E+003	2.3628405E-001	-2.7039447E+002
3	0	1.530658171311516E+003	2.3619445E-001	-2.7039093E+002
3	0	1.531158171298885E+003	2.3608556E-001	-2.7039447E+002
3	0	1.531658171286253E+003	2.3596701E-001	-2.7036267E+002
3	0	1.532158171273622E+003	2.3589213E-001	-2.7037677E+002
3	0	1.532658171260991E+003	2.3583880E-001	-2.7038031E+002
3	0	1.533158171248360E+003	2.3577431E-001	-2.7038385E+002
3	0	1.533658171235729E+003	2.3571038E-001	-2.7040155E+002
3	0	1.534158171223098E+003	2.3564751E-001	-2.7035559E+002
3	0	1.534658171210467E+003	2.3557132E-001	-2.7036972E+002
3	0	1.535158171197836E+003	2.3547350E-001	-2.7036972E+002
3	0	1.535658171185205E+003	2.3536642E-001	-2.7036267E+002
3	0	1.536158171172574E+003	2.3529376E-001	-2.7039447E+002
3	0	1.536658171159943E+003	2.3524553E-001	-2.7038031E+002
3	0	1.537158171147312E+003	2.3518617E-001	-2.7038742E+002
3	0	1.537658171134681E+003	2.3512323E-001	-2.7036267E+002
3	0	1.538158171122050E+003	2.3506275E-001	-2.7039447E+002
3	0	1.538658171109419E+003	2.3498859E-001	-2.7037677E+002
3	0	1.539158171096788E+003	2.3488992E-001	-2.7039801E+002
3	0	1.539658171084156E+003	2.3478755E-001	-2.7040155E+002
3	0	1.540158171071525E+003	2.3471573E-001	-2.7035559E+002
3	0	1.540658171058894E+003	2.3466927E-001	-2.7037677E+002
3	0	1.541158171046263E+003	2.3461674E-001	-2.7038385E+002
3	0	1.541658171033632E+003	2.3455687E-001	-2.7040506E+002
3	0	1.542158171021001E+003	2.3449767E-001	-2.7035913E+002
3	0	1.542658171008370E+003	2.3443253E-001	-2.7035913E+002
3	0	1.543158170995739E+003	2.3433697E-001	-2.7038385E+002
3	0	1.543658170983108E+003	2.3423573E-001	-2.7038385E+002
3	0	1.544158170970477E+003	2.3416997E-001	-2.7039801E+002
3	0	1.544658170957846E+003	2.3412393E-001	-2.7036972E+002
3	0	1.545158170945215E+003	2.3407049E-001	-2.7036267E+002
3	0	1.545658170932584E+003	2.3401906E-001	-2.7039801E+002
3	0	1.546158170919953E+003	2.3396234E-001	-2.7039093E+002
3	0	1.546658170907322E+003	2.3389526E-001	-2.7037326E+002
3	0	1.547158170894691E+003	2.3380788E-001	-2.7033789E+002
3	0	1.547658170882059E+003	2.3369923E-001	-2.7037326E+002
3	0	1.548158170869428E+003	2.3362611E-001	-2.7038385E+002
3	0	1.548658170856797E+003	2.3357786E-001	-2.7036972E+002
3	0	1.549158170844166E+003	2.3352823E-001	-2.7039093E+002
3	0	1.549658170831535E+003	2.3346893E-001	-2.7038385E+002
3	0	1.550158170818904E+003	2.3341048E-001	-2.7039801E+002
3	0	1.550658170806273E+003	2.3334114E-001	-2.7038742E+002
3	0	1.551158170793642E+003	2.3324706E-001	-2.7038742E+002
3	0	1.551658170781011E+003	2.3313756E-001	-2.7038742E+002
3	0	1.552158170768380E+003	2.3307054E-001	-2.7038742E+002
3	0	1.552658170755749E+003	2.3302545E-001	-2.7039801E+002
3	0	1.553158170743118E+003	2.3297806E-001	-2.7036972E+002
3	0	1.553658170730487E+003	2.3292682E-001	-2.7037677E+002
3	0	1.554158170717856E+003	2.3287308E-001	-2.7038742E+002
3	0	1.554658170705225E+003	2.3280980E-001	-2.7039447E+002
3	0	1.555158170692594E+003	2.3272909E-001	-2.7037677E+002
3	0	1.555658170679963E+003	2.3262513E-001	-2.7039093E+002
3	0	1.556158170667331E+003	2.3256564E-001	-2.7036972E+002
3	0	1.556658170654700E+003	2.3252736E-001	-2.7038031E+002
3	0	1.557158170642069E+003	2.3248160E-001	-2.7036267E+002
3	0	1.557658170629438E+003	2.3243298E-001	-2.7039093E+002
3	0	1.558158170616807E+003	2.3238240E-001	-2.7038742E+002
3	0	1.558658170604176E+003	2.3232663E-001	-2.7038385E+002
3	0	1.559158170591545E+003	2.3224100E-001	-2.7038031E+002
3	0	1.559658170578914E+003	2.3214474E-001	-2.7040155E+002
3	0	1.560158170566283E+003	2.3208804E-001	-2.7036972E+002
3	0	1.560658170553652E+003	2.3205231E-001	-2.7038742E+002
3	0	1.561158170541021E+003	2.3201171E-001	-2.7038031E+002
3	0	1.561658170528390E+003	2.3196842E-001	-2.7037326E+002
3	0	1.562158170515759E+003	2.3191890E-001	-2.7036267E+002
3	0	1.562658170503128E+003	2.3186161E-001	-2.7037677E+002
3	0	1.563158170490497E+003	2.3178543E-001	-2.7035913E+002
3	0	1.563658170477866E+003	2.3168175E-001	-2.7039801E+002
3	0	1.564158170465234E+003	2.3162405E-001	-2.7038742E+002
3	0	1.564658170452603E+003	2.3159257E-001	-2.7037677E+002
3	0	1.565158170439972E+003	2.3154978E-001	-2.7037326E+002
3	0	1.565658170427341E+003	2.3150389E-001	-2.7037326E+002
3	0	1.566158170414710E+003	2.3146063E-001	-2.7036972E+002
3	0	1.566658170402079E+003	2.3140571E-001	-2.7038031E+002
3	0	1.567158170389448E+003	2.3132503E-001	-2.7036618E+002
3	0	1.567658170376817E+003	2.3122333E-001	-2.7037677E+002
3	0	1.568158170364186E+003	2.3116697E-001	-2.7040155E+002
3	0	1.568658170351555E+003	2.3112601E-001	-2.7038742E+002
3	0	1.569158170338924E+003	2.3108260E-001	-2.7036267E+002
3	0	1.569658170326293E+003	2.3102818E-001	-2.7037326E+002
3	0	1.570158170313662E+003	2.3097919E-001	-2.7039093E+002
3	0	1.570658170301031E+003	2.3090750E-001	-2.7037677E+002
3	0	1.571158170288400E+003	2.3081996E-001	-2.7038742E+002
3	0	1.571658170275769E+003	2.3072338E-001	-2.7038031E+002
3	0	1.572158170263137E+003	2.3065841E-001	-2.7039801E+002
3	0	1.572658170250506E+003	2.3062208E-001	-2.7038742E+002
3	0	1.573158170237875E+003	2.3058209E-001	-2.7039093E+002
3	0	1.573658170225244E+003	2.3053333E-001	-2.7035913E+002
3	0	1.574158170212613E+003	2.3048927E-001	-2.7037326E+002
3	0	1.574658170199982E+003	2.3043466E-001	-2.7039447E+002
3	0	1.575158170187351E+003	2.3035118E-001	-2.7036618E+002
3	0	1.575658170174720E+003	2.3025858E-001	-2.7038031E+002
3	0	1.576158170162089E+003	2.3020586E-001	-2.7038742E+002
3	0	1.576658170149458E+003	2.3017418E-001	-2.7037326E+002
3	0	1.577158170136827E+003	2.3013136E-001	-2.7037326E+002
3	0	1.577158570136817E+003	2.3020688E-001	-2.7039093E+002