EC-Lab ASCII FILE
Nb header lines : 55                          

Open Circuit Voltage

Run on channel : 1 (SN 81504)
User : 
CE vs. WE compliance from -10 V to 10 V
Electrode connection : standard
Potential control : Ewe
Ewe ctrl range : min = -2.50 V, max = 2.50 V
Safety Limits :
	Do not start on E overload
Acquisition started on : 05/08/2026 00:05:30.308
Loaded Setting File :  C:\PEM-WE_measurements\2026\372_IV_IV IrOx, 5 min Pt, 30 min C, etched cathode\new station\Loopeis new\1,46 V different time gaps open cell\Loopeis 1,46V_180s_3_PEIS from 6500Hz to 1000Hz.mps
Saved on :
	File : L_28_Loopeis 1,46V_180s_3_PEIS from 6500Hz to 1000Hz_16_OCV_C01.mpr
	Directory : C:\PEM-WE_measurements\2026\372_IV_IV IrOx, 5 min Pt, 30 min C, etched cathode\new station\Loopeis new\1,46 V different time gaps open cell\
	Host : 192.168.0.2
Device : SP-150e (SN .005491)
Address : 192.168.0.91
EC-LAB for windows v11.71 (software)
Internet server v28.00 (firmware)
Command interpretor v14.01 (firmware)
Electrode material : 
Initial state : 
Electrolyte : 
Comments : 
Current amplifier : SP-150eB-20A
Electrode surface area : 0.001 cm²
Characteristic mass : 0.001 g
Equivalent Weight : 0.000 g/eq.
Density : 0.000 g/cm3
Volume (V) : 0.001 cm³
Record Analogic IN 1
Text export
   Mode : Standard
   Time format : Elapsed
Cycle Definition : Charge/Discharge alternance
External device configuration :
   device type : Temperature Probe
   device name : Other
   Analog IN 1 : 
      unit : T/Â°C
      max : 100.000 at 2.000 V
      min : 0.000 at 1.460 V
tR (h:m:s)          0:03:0.0000         
dER/dt (mV/h)       1.0                 
record              <Ewe>               
dER (mV)            10.00               
dtR (s)             0.5000              
E range min (V)     -2.500              
E range max (V)     2.500               

mode	error	time/s	<Ewe/V>	Analog IN 1/V	
3	0	1.624838772366857E+003	9.4062918E-001	-2.7041214E+002
3	0	1.625338772354226E+003	1.1277883E+000	-2.7038031E+002
3	0	1.625838772341594E+003	7.4743491E-001	-2.7040860E+002
3	0	1.626338772328963E+003	3.8820559E-001	-2.7036267E+002
3	0	1.626838772316332E+003	3.2176653E-001	-2.7036972E+002
3	0	1.627338772303701E+003	3.1241176E-001	-2.7037677E+002
3	0	1.627838772291070E+003	3.0590704E-001	-2.7036618E+002
3	0	1.628338772278439E+003	3.0051059E-001	-2.7037326E+002
3	0	1.628838772265808E+003	2.9627183E-001	-2.7036618E+002
3	0	1.629338772253177E+003	2.9295123E-001	-2.7036972E+002
3	0	1.629838772240546E+003	2.9029787E-001	-2.7038385E+002
3	0	1.630338772227915E+003	2.8814882E-001	-2.7038031E+002
3	0	1.630838772215284E+003	2.8633440E-001	-2.7039447E+002
3	0	1.631338772202653E+003	2.8477392E-001	-2.7036618E+002
3	0	1.631838772190022E+003	2.8342155E-001	-2.7038742E+002
3	0	1.632338772177391E+003	2.8226563E-001	-2.7037677E+002
3	0	1.632838772164760E+003	2.8123096E-001	-2.7039447E+002
3	0	1.633338772152129E+003	2.8029153E-001	-2.7036972E+002
3	0	1.633838772139497E+003	2.7942523E-001	-2.7038031E+002
3	0	1.634338772126866E+003	2.7861801E-001	-2.7039447E+002
3	0	1.634838772114235E+003	2.7784264E-001	-2.7039447E+002
3	0	1.635338772101604E+003	2.7708605E-001	-2.7038742E+002
3	0	1.635838772088973E+003	2.7637109E-001	-2.7035913E+002
3	0	1.636338772076342E+003	2.7571821E-001	-2.7039093E+002
3	0	1.636838772063711E+003	2.7509293E-001	-2.7036267E+002
3	0	1.637338772051080E+003	2.7449411E-001	-2.7035913E+002
3	0	1.637838772038449E+003	2.7390769E-001	-2.7039801E+002
3	0	1.638338772025818E+003	2.7333260E-001	-2.7036618E+002
3	0	1.638838772013187E+003	2.7274823E-001	-2.7038031E+002
3	0	1.639338772000556E+003	2.7216297E-001	-2.7039093E+002
3	0	1.639838771987925E+003	2.7159140E-001	-2.7038742E+002
3	0	1.640338771975294E+003	2.7106631E-001	-2.7034851E+002
3	0	1.640838771962663E+003	2.7054867E-001	-2.7039447E+002
3	0	1.641338771950032E+003	2.7002880E-001	-2.7036618E+002
3	0	1.641838771937400E+003	2.6953265E-001	-2.7036267E+002
3	0	1.642338771924769E+003	2.6902807E-001	-2.7040860E+002
3	0	1.642838771912138E+003	2.6851425E-001	-2.7037677E+002
3	0	1.643338771899507E+003	2.6799142E-001	-2.7037326E+002
3	0	1.643838771886876E+003	2.6747677E-001	-2.7039093E+002
3	0	1.644338771874245E+003	2.6699743E-001	-2.7035205E+002
3	0	1.644838771861614E+003	2.6653466E-001	-2.7037326E+002
3	0	1.645338771848983E+003	2.6607290E-001	-2.7038742E+002
3	0	1.645838771836352E+003	2.6560810E-001	-2.7038031E+002
3	0	1.646338771823721E+003	2.6514125E-001	-2.7036618E+002
3	0	1.646838771811090E+003	2.6467931E-001	-2.7036972E+002
3	0	1.647338771798459E+003	2.6418734E-001	-2.7037677E+002
3	0	1.647838771785828E+003	2.6371497E-001	-2.7036618E+002
3	0	1.648338771773197E+003	2.6327872E-001	-2.7037677E+002
3	0	1.648838771760566E+003	2.6284459E-001	-2.7036972E+002
3	0	1.649338771747935E+003	2.6241210E-001	-2.7037326E+002
3	0	1.649838771735303E+003	2.6198062E-001	-2.7038742E+002
3	0	1.650338771722672E+003	2.6155117E-001	-2.7039447E+002
3	0	1.650838771710041E+003	2.6111341E-001	-2.7040155E+002
3	0	1.651338771697410E+003	2.6065889E-001	-2.7037326E+002
3	0	1.651838771684779E+003	2.6021132E-001	-2.7038031E+002
3	0	1.652338771672148E+003	2.5981089E-001	-2.7037677E+002
3	0	1.652838771659517E+003	2.5941411E-001	-2.7035559E+002
3	0	1.653338771646886E+003	2.5901318E-001	-2.7038031E+002
3	0	1.653838771634255E+003	2.5862104E-001	-2.7037326E+002
3	0	1.654338771621624E+003	2.5821561E-001	-2.7035559E+002
3	0	1.654838771608993E+003	2.5780576E-001	-2.7037326E+002
3	0	1.655338771596362E+003	2.5738868E-001	-2.7035559E+002
3	0	1.655838771583731E+003	2.5696918E-001	-2.7035205E+002
3	0	1.656338771571100E+003	2.5660229E-001	-2.7037326E+002
3	0	1.656838771558469E+003	2.5623938E-001	-2.7039447E+002
3	0	1.657338771545838E+003	2.5587165E-001	-2.7038742E+002
3	0	1.657838771533206E+003	2.5550848E-001	-2.7039093E+002
3	0	1.658338771520575E+003	2.5514406E-001	-2.7039093E+002
3	0	1.658838771507944E+003	2.5477010E-001	-2.7036972E+002
3	0	1.659338771495313E+003	2.5437546E-001	-2.7037326E+002
3	0	1.659838771482682E+003	2.5399840E-001	-2.7040155E+002
3	0	1.660338771470051E+003	2.5365531E-001	-2.7039093E+002
3	0	1.660838771457420E+003	2.5331745E-001	-2.7038385E+002
3	0	1.661338771444789E+003	2.5297624E-001	-2.7036267E+002
3	0	1.661838771432158E+003	2.5263530E-001	-2.7040155E+002
3	0	1.662338771419527E+003	2.5229439E-001	-2.7036267E+002
3	0	1.662838771406896E+003	2.5194398E-001	-2.7038031E+002
3	0	1.663338771394265E+003	2.5158206E-001	-2.7039801E+002
3	0	1.663838771381634E+003	2.5122565E-001	-2.7035559E+002
3	0	1.664338771369003E+003	2.5091210E-001	-2.7037326E+002
3	0	1.664838771356372E+003	2.5060174E-001	-2.7040155E+002
3	0	1.665338771343741E+003	2.5028658E-001	-2.7038385E+002
3	0	1.665838771331109E+003	2.4997716E-001	-2.7039093E+002
3	0	1.666338771318478E+003	2.4966505E-001	-2.7038742E+002
3	0	1.666838771305847E+003	2.4935050E-001	-2.7039801E+002
3	0	1.667338771293216E+003	2.4900901E-001	-2.7039447E+002
3	0	1.667838771280585E+003	2.4868512E-001	-2.7039801E+002
3	0	1.668338771267954E+003	2.4839738E-001	-2.7039801E+002
3	0	1.668838771255323E+003	2.4811266E-001	-2.7038031E+002
3	0	1.669338771242692E+003	2.4783267E-001	-2.7036267E+002
3	0	1.669838771230061E+003	2.4754924E-001	-2.7038385E+002
3	0	1.670338771217430E+003	2.4726349E-001	-2.7036972E+002
3	0	1.670838771204799E+003	2.4696372E-001	-2.7039447E+002
3	0	1.671338771192168E+003	2.4665073E-001	-2.7037326E+002
3	0	1.671838771179537E+003	2.4634778E-001	-2.7036267E+002
3	0	1.672338771166906E+003	2.4608390E-001	-2.7036267E+002
3	0	1.672838771154275E+003	2.4582618E-001	-2.7038031E+002
3	0	1.673338771141644E+003	2.4556458E-001	-2.7038031E+002
3	0	1.673838771129012E+003	2.4530748E-001	-2.7036618E+002
3	0	1.674338771116381E+003	2.4503939E-001	-2.7039801E+002
3	0	1.674838771103750E+003	2.4476424E-001	-2.7036267E+002
3	0	1.675338771091119E+003	2.4447447E-001	-2.7037326E+002
3	0	1.675838771078488E+003	2.4419783E-001	-2.7035913E+002
3	0	1.676338771065857E+003	2.4395911E-001	-2.7037677E+002
3	0	1.676838771053226E+003	2.4372277E-001	-2.7037326E+002
3	0	1.677338771040595E+003	2.4348731E-001	-2.7037326E+002
3	0	1.677838771027964E+003	2.4325018E-001	-2.7040506E+002
3	0	1.678338771015333E+003	2.4300772E-001	-2.7037326E+002
3	0	1.678838771002702E+003	2.4275561E-001	-2.7037677E+002
3	0	1.679338770990071E+003	2.4248338E-001	-2.7039801E+002
3	0	1.679838770977440E+003	2.4222167E-001	-2.7037326E+002
3	0	1.680338770964809E+003	2.4200904E-001	-2.7036972E+002
3	0	1.680838770952178E+003	2.4179703E-001	-2.7036972E+002
3	0	1.681338770939547E+003	2.4157798E-001	-2.7036972E+002
3	0	1.681838770926915E+003	2.4136002E-001	-2.7038742E+002
3	0	1.682338770914284E+003	2.4114181E-001	-2.7036618E+002
3	0	1.682838770901653E+003	2.4090612E-001	-2.7040506E+002
3	0	1.683338770889022E+003	2.4065839E-001	-2.7041214E+002
3	0	1.683838770876391E+003	2.4041723E-001	-2.7036267E+002
3	0	1.684338770863760E+003	2.4022357E-001	-2.7039093E+002
3	0	1.684838770851129E+003	2.4002938E-001	-2.7036972E+002
3	0	1.685338770838498E+003	2.3983297E-001	-2.7038742E+002
3	0	1.685838770825867E+003	2.3963580E-001	-2.7038742E+002
3	0	1.686338770813236E+003	2.3943447E-001	-2.7040506E+002
3	0	1.686838770800605E+003	2.3921685E-001	-2.7037326E+002
3	0	1.687338770787974E+003	2.3898180E-001	-2.7040155E+002
3	0	1.687838770775343E+003	2.3875934E-001	-2.7039093E+002
3	0	1.688338770762712E+003	2.3857868E-001	-2.7038031E+002
3	0	1.688838770750081E+003	2.3839884E-001	-2.7038742E+002
3	0	1.689338770737450E+003	2.3821443E-001	-2.7037326E+002
3	0	1.689838770724818E+003	2.3802809E-001	-2.7039447E+002
3	0	1.690338770712187E+003	2.3783769E-001	-2.7036972E+002
3	0	1.690838770699556E+003	2.3764068E-001	-2.7037326E+002
3	0	1.691338770686925E+003	2.3742157E-001	-2.7037326E+002
3	0	1.691838770674294E+003	2.3720643E-001	-2.7037326E+002
3	0	1.692338770661663E+003	2.3704202E-001	-2.7037677E+002
3	0	1.692838770649032E+003	2.3687612E-001	-2.7038742E+002
3	0	1.693338770636401E+003	2.3670433E-001	-2.7038031E+002
3	0	1.693838770623770E+003	2.3654185E-001	-2.7035913E+002
3	0	1.694338770611139E+003	2.3637094E-001	-2.7039801E+002
3	0	1.694838770598508E+003	2.3618087E-001	-2.7039447E+002
3	0	1.695338770585877E+003	2.3597655E-001	-2.7038385E+002
3	0	1.695838770573246E+003	2.3578957E-001	-2.7039447E+002
3	0	1.696338770560615E+003	2.3564456E-001	-2.7037326E+002
3	0	1.696838770547984E+003	2.3549630E-001	-2.7037677E+002
3	0	1.697338770535353E+003	2.3534559E-001	-2.7039093E+002
3	0	1.697838770522721E+003	2.3519713E-001	-2.7038385E+002
3	0	1.698338770510090E+003	2.3504066E-001	-2.7038031E+002
3	0	1.698838770497459E+003	2.3486671E-001	-2.7036618E+002
3	0	1.699338770484828E+003	2.3467775E-001	-2.7036972E+002
3	0	1.699838770472197E+003	2.3450011E-001	-2.7036972E+002
3	0	1.700338770459566E+003	2.3436332E-001	-2.7036972E+002
3	0	1.700838770446935E+003	2.3422553E-001	-2.7037677E+002
3	0	1.701338770434304E+003	2.3408815E-001	-2.7036618E+002
3	0	1.701838770421673E+003	2.3394501E-001	-2.7037677E+002
3	0	1.702338770409042E+003	2.3380131E-001	-2.7037677E+002
3	0	1.702838770396411E+003	2.3363788E-001	-2.7038031E+002
3	0	1.703338770383780E+003	2.3345460E-001	-2.7038742E+002
3	0	1.703838770371149E+003	2.3328958E-001	-2.7041919E+002
3	0	1.704338770358518E+003	2.3315829E-001	-2.7039093E+002
3	0	1.704838770345887E+003	2.3304023E-001	-2.7037326E+002
3	0	1.705338770333256E+003	2.3290600E-001	-2.7039447E+002
3	0	1.705838770320624E+003	2.3277995E-001	-2.7037677E+002
3	0	1.706338770307993E+003	2.3263945E-001	-2.7036972E+002
3	0	1.706838770295362E+003	2.3247968E-001	-2.7037677E+002
3	0	1.707338770282731E+003	2.3229679E-001	-2.7039801E+002
3	0	1.707838770270100E+003	2.3213297E-001	-2.7037326E+002
3	0	1.708338770257469E+003	2.3200433E-001	-2.7035559E+002
3	0	1.708838770244838E+003	2.3188011E-001	-2.7036618E+002
3	0	1.709338770232207E+003	2.3175456E-001	-2.7036972E+002
3	0	1.709838770219576E+003	2.3162703E-001	-2.7036618E+002
3	0	1.710338770206945E+003	2.3149808E-001	-2.7038742E+002
3	0	1.710838770194314E+003	2.3133986E-001	-2.7036618E+002
3	0	1.711338770181683E+003	2.3117319E-001	-2.7038385E+002
3	0	1.711838770169052E+003	2.3102012E-001	-2.7035913E+002
3	0	1.712338770156421E+003	2.3090649E-001	-2.7037326E+002
3	0	1.712838770143790E+003	2.3079602E-001	-2.7037677E+002
3	0	1.713338770131159E+003	2.3067506E-001	-2.7038385E+002
3	0	1.713838770118527E+003	2.3055898E-001	-2.7038031E+002
3	0	1.714338770105896E+003	2.3043810E-001	-2.7037677E+002
3	0	1.714838770093265E+003	2.3030081E-001	-2.7039093E+002
3	0	1.715338770080634E+003	2.3014733E-001	-2.7038742E+002
3	0	1.715838770068003E+003	2.3000550E-001	-2.7038031E+002
3	0	1.716338770055372E+003	2.2990298E-001	-2.7040155E+002
3	0	1.716838770042741E+003	2.2980416E-001	-2.7039093E+002
3	0	1.717338770030110E+003	2.2969276E-001	-2.7036267E+002
3	0	1.717838770017479E+003	2.2957577E-001	-2.7036618E+002
3	0	1.718338770004848E+003	2.2946961E-001	-2.7038385E+002
3	0	1.718838769992217E+003	2.2934173E-001	-2.7036972E+002
3	0	1.719338769979586E+003	2.2919056E-001	-2.7040155E+002
3	0	1.719838769966955E+003	2.2906125E-001	-2.7036618E+002
3	0	1.720338769954324E+003	2.2896262E-001	-2.7038742E+002
3	0	1.720838769941693E+003	2.2886710E-001	-2.7038742E+002
3	0	1.721338769929062E+003	2.2876522E-001	-2.7036972E+002
3	0	1.721838769916430E+003	2.2866392E-001	-2.7038031E+002
3	0	1.722338769903799E+003	2.2856244E-001	-2.7039093E+002
3	0	1.722838769891168E+003	2.2843809E-001	-2.7039801E+002
3	0	1.723338769878537E+003	2.2830324E-001	-2.7038742E+002
3	0	1.723838769865906E+003	2.2817472E-001	-2.7039093E+002
3	0	1.724338769853275E+003	2.2808132E-001	-2.7035913E+002
3	0	1.724838769840644E+003	2.2799708E-001	-2.7039801E+002
3	0	1.725338769828013E+003	2.2790392E-001	-2.7037326E+002
3	0	1.725838769815382E+003	2.2780992E-001	-2.7040506E+002
3	0	1.726338769802751E+003	2.2770816E-001	-2.7038031E+002
3	0	1.726838769790120E+003	2.2759385E-001	-2.7036618E+002
3	0	1.727338769777489E+003	2.2746237E-001	-2.7039093E+002
3	0	1.727838769764858E+003	2.2733568E-001	-2.7038742E+002
3	0	1.728338769752227E+003	2.2724642E-001	-2.7034497E+002
3	0	1.728838769739596E+003	2.2716197E-001	-2.7038385E+002
3	0	1.729338769726965E+003	2.2707811E-001	-2.7037677E+002
3	0	1.729838769714333E+003	2.2698629E-001	-2.7040155E+002
3	0	1.730338769701702E+003	2.2688633E-001	-2.7037677E+002
3	0	1.730838769689071E+003	2.2677587E-001	-2.7038031E+002
3	0	1.731338769676440E+003	2.2663739E-001	-2.7039093E+002
3	0	1.731838769663809E+003	2.2651769E-001	-2.7037677E+002
3	0	1.732338769651178E+003	2.2643197E-001	-2.7037677E+002
3	0	1.732838769638547E+003	2.2635089E-001	-2.7038031E+002
3	0	1.733338769625916E+003	2.2626422E-001	-2.7037677E+002
3	0	1.733838769613285E+003	2.2617884E-001	-2.7037326E+002
3	0	1.734338769600654E+003	2.2609457E-001	-2.7037677E+002
3	0	1.734838769588023E+003	2.2598742E-001	-2.7038742E+002
3	0	1.735338769575392E+003	2.2585779E-001	-2.7038742E+002
3	0	1.735838769562761E+003	2.2574469E-001	-2.7039093E+002
3	0	1.736338769550130E+003	2.2566949E-001	-2.7038385E+002
3	0	1.736838769537499E+003	2.2559549E-001	-2.7035205E+002
3	0	1.737338769524868E+003	2.2552171E-001	-2.7037677E+002
3	0	1.737838769512236E+003	2.2544594E-001	-2.7040155E+002
3	0	1.738338769499605E+003	2.2536197E-001	-2.7040155E+002
3	0	1.738838769486974E+003	2.2525926E-001	-2.7035913E+002
3	0	1.739338769474343E+003	2.2513939E-001	-2.7040860E+002
3	0	1.739838769461712E+003	2.2502758E-001	-2.7038385E+002
3	0	1.740338769449081E+003	2.2496165E-001	-2.7037326E+002
3	0	1.740838769436450E+003	2.2489648E-001	-2.7036267E+002
3	0	1.741338769423819E+003	2.2482823E-001	-2.7037326E+002
3	0	1.741838769411188E+003	2.2475755E-001	-2.7036972E+002
3	0	1.742338769398557E+003	2.2467689E-001	-2.7038385E+002
3	0	1.742838769385926E+003	2.2458065E-001	-2.7036267E+002
3	0	1.743338769373295E+003	2.2446305E-001	-2.7037326E+002
3	0	1.743838769360664E+003	2.2435306E-001	-2.7039093E+002
3	0	1.744338769348033E+003	2.2429046E-001	-2.7035559E+002
3	0	1.744838769335402E+003	2.2422078E-001	-2.7038742E+002
3	0	1.745338769322771E+003	2.2415455E-001	-2.7038385E+002
3	0	1.745838769310139E+003	2.2407965E-001	-2.7039801E+002
3	0	1.746338769297508E+003	2.2400379E-001	-2.7037326E+002
3	0	1.746838769284877E+003	2.2391242E-001	-2.7036972E+002
3	0	1.747338769272246E+003	2.2379495E-001	-2.7039093E+002
3	0	1.747838769259615E+003	2.2369154E-001	-2.7037326E+002
3	0	1.748338769246984E+003	2.2363156E-001	-2.7036972E+002
3	0	1.748838769234353E+003	2.2356977E-001	-2.7039093E+002
3	0	1.749338769221722E+003	2.2350490E-001	-2.7039801E+002
3	0	1.749838769209091E+003	2.2343367E-001	-2.7039447E+002
3	0	1.750338769196460E+003	2.2335866E-001	-2.7037677E+002
3	0	1.750838769183829E+003	2.2326191E-001	-2.7040506E+002
3	0	1.751338769171198E+003	2.2315136E-001	-2.7037326E+002
3	0	1.751838769158567E+003	2.2305109E-001	-2.7037677E+002
3	0	1.752338769145936E+003	2.2298802E-001	-2.7038742E+002
3	0	1.752838769133305E+003	2.2292608E-001	-2.7038031E+002
3	0	1.753338769120674E+003	2.2285877E-001	-2.7037326E+002
3	0	1.753838769108042E+003	2.2279233E-001	-2.7039447E+002
3	0	1.754338769095411E+003	2.2272481E-001	-2.7039093E+002
3	0	1.754838769082780E+003	2.2263810E-001	-2.7039093E+002
3	0	1.755338769070149E+003	2.2252861E-001	-2.7039447E+002
3	0	1.755838769057518E+003	2.2243014E-001	-2.7037677E+002
3	0	1.756338769044887E+003	2.2237311E-001	-2.7038742E+002
3	0	1.756838769032256E+003	2.2231829E-001	-2.7039093E+002
3	0	1.757338769019625E+003	2.2225633E-001	-2.7038742E+002
3	0	1.757838769006994E+003	2.2219869E-001	-2.7037326E+002
3	0	1.758338768994363E+003	2.2213812E-001	-2.7038031E+002
3	0	1.758838768981732E+003	2.2205679E-001	-2.7038031E+002
3	0	1.759338768969101E+003	2.2195172E-001	-2.7038742E+002
3	0	1.759838768956470E+003	2.2185914E-001	-2.7040155E+002
3	0	1.760338768943839E+003	2.2181046E-001	-2.7037677E+002
3	0	1.760838768931208E+003	2.2175834E-001	-2.7039801E+002
3	0	1.761338768918577E+003	2.2170213E-001	-2.7036972E+002
3	0	1.761838768905945E+003	2.2164285E-001	-2.7036972E+002
3	0	1.762338768893314E+003	2.2157982E-001	-2.7038031E+002
3	0	1.762838768880683E+003	2.2149935E-001	-2.7038742E+002
3	0	1.763338768868052E+003	2.2140074E-001	-2.7038031E+002
3	0	1.763838768855421E+003	2.2130497E-001	-2.7036972E+002
3	0	1.764338768842790E+003	2.2125740E-001	-2.7037326E+002
3	0	1.764838768830159E+003	2.2121088E-001	-2.7038742E+002
3	0	1.765338768817528E+003	2.2115707E-001	-2.7036972E+002
3	0	1.765838768804897E+003	2.2110607E-001	-2.7038031E+002
3	0	1.766338768792266E+003	2.2105201E-001	-2.7039447E+002
3	0	1.766838768779635E+003	2.2097494E-001	-2.7039093E+002
3	0	1.767338768767004E+003	2.2087398E-001	-2.7037677E+002
3	0	1.767838768754373E+003	2.2078364E-001	-2.7037326E+002
3	0	1.768338768741742E+003	2.2073692E-001	-2.7038031E+002
3	0	1.768838768729111E+003	2.2068001E-001	-2.7038742E+002
3	0	1.769338768716480E+003	2.2061783E-001	-2.7038385E+002
3	0	1.769838768703848E+003	2.2055575E-001	-2.7037677E+002
3	0	1.770338768691217E+003	2.2048661E-001	-2.7038385E+002
3	0	1.770838768678586E+003	2.2040337E-001	-2.7037677E+002
3	0	1.771338768665955E+003	2.2029643E-001	-2.7039093E+002
3	0	1.771838768653324E+003	2.2020866E-001	-2.7035913E+002
3	0	1.772338768640693E+003	2.2015482E-001	-2.7037326E+002
3	0	1.772838768628062E+003	2.2010212E-001	-2.7036972E+002
3	0	1.773338768615431E+003	2.2004494E-001	-2.7036618E+002
3	0	1.773838768602800E+003	2.1998353E-001	-2.7038031E+002
3	0	1.774338768590169E+003	2.1991585E-001	-2.7038385E+002
3	0	1.774838768577538E+003	2.1983734E-001	-2.7039801E+002
3	0	1.775338768564907E+003	2.1974830E-001	-2.7038742E+002
3	0	1.775838768552276E+003	2.1967094E-001	-2.7038031E+002
3	0	1.776338768539645E+003	2.1962795E-001	-2.7038385E+002
3	0	1.776838768527014E+003	2.1957867E-001	-2.7036267E+002
3	0	1.777338768514383E+003	2.1953192E-001	-2.7037677E+002
3	0	1.777838768501751E+003	2.1948455E-001	-2.7035559E+002
3	0	1.778338768489120E+003	2.1943268E-001	-2.7038031E+002
3	0	1.778838768476489E+003	2.1936229E-001	-2.7036972E+002
3	0	1.779338768463858E+003	2.1926725E-001	-2.7036972E+002
3	0	1.779838768451227E+003	2.1919489E-001	-2.7038742E+002
3	0	1.780338768438596E+003	2.1915226E-001	-2.7036267E+002
3	0	1.780838768425965E+003	2.1910010E-001	-2.7038385E+002
3	0	1.781338768413334E+003	2.1905568E-001	-2.7038031E+002
3	0	1.781838768400703E+003	2.1900587E-001	-2.7037326E+002
3	0	1.782338768388072E+003	2.1895704E-001	-2.7038742E+002
3	0	1.782838768375441E+003	2.1889074E-001	-2.7038385E+002
3	0	1.783338768362810E+003	2.1879542E-001	-2.7038742E+002
3	0	1.783838768350179E+003	2.1872309E-001	-2.7037677E+002
3	0	1.784338768337548E+003	2.1868508E-001	-2.7038385E+002
3	0	1.784838768324917E+003	2.1863815E-001	-2.7038742E+002
3	0	1.785338768312286E+003	2.1859218E-001	-2.7038031E+002
3	0	1.785838768299654E+003	2.1854897E-001	-2.7038742E+002
3	0	1.786338768287023E+003	2.1849953E-001	-2.7035913E+002
3	0	1.786838768274392E+003	2.1843311E-001	-2.7036972E+002
3	0	1.787338768261761E+003	2.1834530E-001	-2.7039801E+002
3	0	1.787838768249130E+003	2.1826778E-001	-2.7039801E+002
3	0	1.788338768236499E+003	2.1822958E-001	-2.7036267E+002
3	0	1.788838768223868E+003	2.1817982E-001	-2.7038742E+002
3	0	1.789338768211237E+003	2.1813589E-001	-2.7037677E+002
3	0	1.789838768198606E+003	2.1809290E-001	-2.7041214E+002
3	0	1.790338768185975E+003	2.1803473E-001	-2.7040506E+002
3	0	1.790838768173344E+003	2.1795982E-001	-2.7038385E+002
3	0	1.791338768160713E+003	2.1786799E-001	-2.7035913E+002
3	0	1.791838768148082E+003	2.1779254E-001	-2.7037677E+002
3	0	1.792338768135451E+003	2.1775094E-001	-2.7037677E+002
3	0	1.792838768122820E+003	2.1770413E-001	-2.7039447E+002
3	0	1.793338768110189E+003	2.1765731E-001	-2.7035559E+002
3	0	1.793838768097557E+003	2.1760853E-001	-2.7036267E+002
3	0	1.794338768084926E+003	2.1755862E-001	-2.7037326E+002
3	0	1.794838768072295E+003	2.1749081E-001	-2.7037326E+002
3	0	1.795338768059664E+003	2.1740384E-001	-2.7036972E+002
3	0	1.795838768047033E+003	2.1732977E-001	-2.7038031E+002
3	0	1.796338768034402E+003	2.1729715E-001	-2.7039447E+002
3	0	1.796838768021771E+003	2.1724999E-001	-2.7038031E+002
3	0	1.797338768009140E+003	2.1721117E-001	-2.7038031E+002
3	0	1.797838767996509E+003	2.1717325E-001	-2.7038385E+002
3	0	1.798338767983878E+003	2.1712394E-001	-2.7037326E+002
3	0	1.798838767971247E+003	2.1705966E-001	-2.7039093E+002
3	0	1.799338767958616E+003	2.1698131E-001	-2.7038385E+002
3	0	1.799838767945985E+003	2.1690868E-001	-2.7037677E+002
3	0	1.800338767933354E+003	2.1687435E-001	-2.7038031E+002
3	0	1.800838767920723E+003	2.1683331E-001	-2.7038742E+002
3	0	1.801338767908092E+003	2.1679530E-001	-2.7040860E+002
3	0	1.801838767895460E+003	2.1675260E-001	-2.7037677E+002
3	0	1.802338767882829E+003	2.1671169E-001	-2.7038031E+002
3	0	1.802838767870198E+003	2.1665370E-001	-2.7039447E+002
3	0	1.803338767857567E+003	2.1656644E-001	-2.7038031E+002
3	0	1.803838767844936E+003	2.1649776E-001	-2.7038031E+002
3	0	1.804338767832305E+003	2.1646270E-001	-2.7037326E+002
3	0	1.804363367831684E+003	2.1643794E-001	-2.7038385E+002