EC-Lab ASCII FILE
Nb header lines : 55                          

Open Circuit Voltage

Run on channel : 1 (SN 81504)
User : 
CE vs. WE compliance from -10 V to 10 V
Electrode connection : standard
Potential control : Ewe
Ewe ctrl range : min = -2.50 V, max = 2.50 V
Safety Limits :
	Do not start on E overload
Acquisition started on : 05/08/2026 00:05:30.308
Loaded Setting File :  C:\PEM-WE_measurements\2026\372_IV_IV IrOx, 5 min Pt, 30 min C, etched cathode\new station\Loopeis new\1,46 V different time gaps open cell\Loopeis 1,46V_180s_3_PEIS from 6500Hz to 1000Hz.mps
Saved on :
	File : L_28_Loopeis 1,46V_180s_3_PEIS from 6500Hz to 1000Hz_04_OCV_C01.mpr
	Directory : C:\PEM-WE_measurements\2026\372_IV_IV IrOx, 5 min Pt, 30 min C, etched cathode\new station\Loopeis new\1,46 V different time gaps open cell\
	Host : 192.168.0.2
Device : SP-150e (SN .005491)
Address : 192.168.0.91
EC-LAB for windows v11.71 (software)
Internet server v28.00 (firmware)
Command interpretor v14.01 (firmware)
Electrode material : 
Initial state : 
Electrolyte : 
Comments : 
Current amplifier : SP-150eB-20A
Electrode surface area : 0.001 cm²
Characteristic mass : 0.001 g
Equivalent Weight : 0.000 g/eq.
Density : 0.000 g/cm3
Volume (V) : 0.001 cm³
Record Analogic IN 1
Text export
   Mode : Standard
   Time format : Elapsed
Cycle Definition : Charge/Discharge alternance
External device configuration :
   device type : Temperature Probe
   device name : Other
   Analog IN 1 : 
      unit : T/Â°C
      max : 100.000 at 2.000 V
      min : 0.000 at 1.460 V
tR (h:m:s)          0:03:0.0000         
dER/dt (mV/h)       1.0                 
record              <Ewe>               
dER (mV)            10.00               
dtR (s)             0.5000              
E range min (V)     -2.500              
E range max (V)     2.500               

mode	error	time/s	<Ewe/V>	Analog IN 1/V	
3	0	2.704455964400404E+002	9.3950307E-001	-2.7037677E+002
3	0	2.709455964274093E+002	1.1264684E+000	-2.7038385E+002
3	0	2.714455964147783E+002	7.4523759E-001	-2.7036618E+002
3	0	2.719455964021472E+002	3.8687429E-001	-2.7035559E+002
3	0	2.724455963895161E+002	3.2064727E-001	-2.7038385E+002
3	0	2.729455963768851E+002	3.1138915E-001	-2.7038031E+002
3	0	2.734455963642540E+002	3.0492735E-001	-2.7039093E+002
3	0	2.739455963516230E+002	2.9954809E-001	-2.7037326E+002
3	0	2.744455963389919E+002	2.9531303E-001	-2.7039447E+002
3	0	2.749455963263608E+002	2.9199854E-001	-2.7036972E+002
3	0	2.754455963137298E+002	2.8934985E-001	-2.7037326E+002
3	0	2.759455963010987E+002	2.8717497E-001	-2.7035913E+002
3	0	2.764455962884676E+002	2.8536588E-001	-2.7036267E+002
3	0	2.769455962758366E+002	2.8385419E-001	-2.7037326E+002
3	0	2.774455962632055E+002	2.8254557E-001	-2.7039093E+002
3	0	2.779455962505745E+002	2.8138691E-001	-2.7038031E+002
3	0	2.784455962379434E+002	2.8034988E-001	-2.7036972E+002
3	0	2.789455962253123E+002	2.7940312E-001	-2.7040155E+002
3	0	2.794455962126813E+002	2.7851534E-001	-2.7040155E+002
3	0	2.799455962000502E+002	2.7766746E-001	-2.7038742E+002
3	0	2.804455961874191E+002	2.7688360E-001	-2.7036972E+002
3	0	2.809455961747881E+002	2.7616802E-001	-2.7037326E+002
3	0	2.814455961621570E+002	2.7548686E-001	-2.7036267E+002
3	0	2.819455961495260E+002	2.7483261E-001	-2.7038742E+002
3	0	2.824455961368949E+002	2.7421200E-001	-2.7038031E+002
3	0	2.829455961242638E+002	2.7359995E-001	-2.7038031E+002
3	0	2.834455961116328E+002	2.7298489E-001	-2.7038385E+002
3	0	2.839455960990017E+002	2.7236766E-001	-2.7038742E+002
3	0	2.844455960863706E+002	2.7178386E-001	-2.7040155E+002
3	0	2.849455960737396E+002	2.7122366E-001	-2.7039447E+002
3	0	2.854455960611085E+002	2.7068546E-001	-2.7039801E+002
3	0	2.859455960484775E+002	2.7015060E-001	-2.7038385E+002
3	0	2.864455960358464E+002	2.6962906E-001	-2.7035205E+002
3	0	2.869455960232153E+002	2.6911905E-001	-2.7039801E+002
3	0	2.874455960105843E+002	2.6858819E-001	-2.7039093E+002
3	0	2.879455959979532E+002	2.6805189E-001	-2.7036972E+002
3	0	2.884455959853221E+002	2.6752785E-001	-2.7038031E+002
3	0	2.889455959726911E+002	2.6704556E-001	-2.7036267E+002
3	0	2.894455959600600E+002	2.6656684E-001	-2.7037677E+002
3	0	2.899455959474290E+002	2.6609236E-001	-2.7039447E+002
3	0	2.904455959347979E+002	2.6561919E-001	-2.7039447E+002
3	0	2.909455959221668E+002	2.6514322E-001	-2.7038385E+002
3	0	2.914455959095358E+002	2.6466042E-001	-2.7037677E+002
3	0	2.919455958969047E+002	2.6416484E-001	-2.7036618E+002
3	0	2.924455958842736E+002	2.6368764E-001	-2.7035205E+002
3	0	2.929455958716426E+002	2.6324499E-001	-2.7039093E+002
3	0	2.934455958590115E+002	2.6280221E-001	-2.7037326E+002
3	0	2.939455958463805E+002	2.6236597E-001	-2.7038031E+002
3	0	2.944455958337494E+002	2.6192820E-001	-2.7037326E+002
3	0	2.949455958211183E+002	2.6149052E-001	-2.7038031E+002
3	0	2.954455958084873E+002	2.6104084E-001	-2.7036267E+002
3	0	2.959455957958562E+002	2.6058161E-001	-2.7037326E+002
3	0	2.964455957832251E+002	2.6014167E-001	-2.7037326E+002
3	0	2.969455957705941E+002	2.5973424E-001	-2.7039093E+002
3	0	2.974455957579630E+002	2.5932309E-001	-2.7039801E+002
3	0	2.979455957453320E+002	2.5891125E-001	-2.7038742E+002
3	0	2.984455957327009E+002	2.5849602E-001	-2.7039447E+002
3	0	2.989455957200698E+002	2.5809547E-001	-2.7037677E+002
3	0	2.994455957074388E+002	2.5767529E-001	-2.7038742E+002
3	0	2.999455956948077E+002	2.5724691E-001	-2.7040155E+002
3	0	3.004455956821766E+002	2.5683594E-001	-2.7037677E+002
3	0	3.009455956695456E+002	2.5646105E-001	-2.7036267E+002
3	0	3.014455956569145E+002	2.5608680E-001	-2.7040155E+002
3	0	3.019455956442835E+002	2.5571105E-001	-2.7039093E+002
3	0	3.024455956316524E+002	2.5534216E-001	-2.7039093E+002
3	0	3.029455956190213E+002	2.5497028E-001	-2.7040860E+002
3	0	3.034455956063903E+002	2.5458336E-001	-2.7036267E+002
3	0	3.039455955937592E+002	2.5418860E-001	-2.7035205E+002
3	0	3.044455955811281E+002	2.5380856E-001	-2.7039093E+002
3	0	3.049455955684971E+002	2.5346059E-001	-2.7038385E+002
3	0	3.054455955558660E+002	2.5311273E-001	-2.7038385E+002
3	0	3.059455955432350E+002	2.5276220E-001	-2.7040506E+002
3	0	3.064455955306039E+002	2.5241739E-001	-2.7037677E+002
3	0	3.069455955179728E+002	2.5207603E-001	-2.7039801E+002
3	0	3.074455955053418E+002	2.5172487E-001	-2.7037677E+002
3	0	3.079455954927107E+002	2.5134960E-001	-2.7039801E+002
3	0	3.084455954800796E+002	2.5100744E-001	-2.7037677E+002
3	0	3.089455954674486E+002	2.5069362E-001	-2.7034851E+002
3	0	3.094455954548175E+002	2.5037411E-001	-2.7037677E+002
3	0	3.099455954421865E+002	2.5005731E-001	-2.7039447E+002
3	0	3.104455954295554E+002	2.4974786E-001	-2.7037677E+002
3	0	3.109455954169243E+002	2.4943216E-001	-2.7037326E+002
3	0	3.114455954042933E+002	2.4910846E-001	-2.7038031E+002
3	0	3.119455953916622E+002	2.4876529E-001	-2.7036972E+002
3	0	3.124455953790311E+002	2.4843903E-001	-2.7036267E+002
3	0	3.129455953664001E+002	2.4815252E-001	-2.7036618E+002
3	0	3.134455953537690E+002	2.4785973E-001	-2.7038031E+002
3	0	3.139455953411380E+002	2.4756952E-001	-2.7036618E+002
3	0	3.144455953285069E+002	2.4727796E-001	-2.7038742E+002
3	0	3.149455953158758E+002	2.4698356E-001	-2.7037677E+002
3	0	3.154455953032448E+002	2.4668416E-001	-2.7037326E+002
3	0	3.159455952906137E+002	2.4636109E-001	-2.7036972E+002
3	0	3.164455952779826E+002	2.4606295E-001	-2.7038385E+002
3	0	3.169455952653516E+002	2.4579315E-001	-2.7037677E+002
3	0	3.174455952527205E+002	2.4552938E-001	-2.7038031E+002
3	0	3.179455952400895E+002	2.4526088E-001	-2.7037326E+002
3	0	3.184455952274584E+002	2.4499388E-001	-2.7039093E+002
3	0	3.189455952148273E+002	2.4472183E-001	-2.7037326E+002
3	0	3.194455952021963E+002	2.4444704E-001	-2.7039093E+002
3	0	3.199455951895652E+002	2.4414699E-001	-2.7037326E+002
3	0	3.204455951769341E+002	2.4386606E-001	-2.7039801E+002
3	0	3.209455951643031E+002	2.4362437E-001	-2.7038385E+002
3	0	3.214455951516720E+002	2.4337365E-001	-2.7036267E+002
3	0	3.219455951390410E+002	2.4312951E-001	-2.7039093E+002
3	0	3.224455951264099E+002	2.4288423E-001	-2.7039447E+002
3	0	3.229455951137788E+002	2.4263546E-001	-2.7039801E+002
3	0	3.234455951011478E+002	2.4237001E-001	-2.7037677E+002
3	0	3.239455950885167E+002	2.4209818E-001	-2.7040506E+002
3	0	3.244455950758856E+002	2.4184367E-001	-2.7037677E+002
3	0	3.249455950632546E+002	2.4162057E-001	-2.7038385E+002
3	0	3.254455950506235E+002	2.4139482E-001	-2.7038031E+002
3	0	3.259455950379925E+002	2.4117313E-001	-2.7038385E+002
3	0	3.264455950253614E+002	2.4094957E-001	-2.7039447E+002
3	0	3.269455950127303E+002	2.4073538E-001	-2.7037677E+002
3	0	3.274455950000993E+002	2.4049576E-001	-2.7036267E+002
3	0	3.279455949874682E+002	2.4023715E-001	-2.7036972E+002
3	0	3.284455949748372E+002	2.4000379E-001	-2.7038742E+002
3	0	3.289455949622061E+002	2.3980191E-001	-2.7038385E+002
3	0	3.294455949495750E+002	2.3959754E-001	-2.7037677E+002
3	0	3.299455949369440E+002	2.3939122E-001	-2.7037677E+002
3	0	3.304455949243129E+002	2.3918417E-001	-2.7037326E+002
3	0	3.309455949116818E+002	2.3898543E-001	-2.7036267E+002
3	0	3.314455948990508E+002	2.3876324E-001	-2.7036618E+002
3	0	3.319455948864197E+002	2.3852022E-001	-2.7037677E+002
3	0	3.324455948737887E+002	2.3830831E-001	-2.7037677E+002
3	0	3.329455948611576E+002	2.3812093E-001	-2.7038385E+002
3	0	3.334455948485265E+002	2.3793212E-001	-2.7038385E+002
3	0	3.339455948358955E+002	2.3774633E-001	-2.7035913E+002
3	0	3.344455948232644E+002	2.3756261E-001	-2.7037677E+002
3	0	3.349455948106333E+002	2.3736888E-001	-2.7039447E+002
3	0	3.354455947980023E+002	2.3716696E-001	-2.7036618E+002
3	0	3.359455947853712E+002	2.3694251E-001	-2.7036618E+002
3	0	3.364455947727402E+002	2.3674068E-001	-2.7040506E+002
3	0	3.369455947601091E+002	2.3657256E-001	-2.7038031E+002
3	0	3.374455947474780E+002	2.3639917E-001	-2.7036267E+002
3	0	3.379455947348470E+002	2.3622760E-001	-2.7038742E+002
3	0	3.384455947222159E+002	2.3605242E-001	-2.7038031E+002
3	0	3.389455947095848E+002	2.3587796E-001	-2.7037326E+002
3	0	3.394455946969538E+002	2.3569086E-001	-2.7036972E+002
3	0	3.399455946843227E+002	2.3548602E-001	-2.7035913E+002
3	0	3.404455946716917E+002	2.3529911E-001	-2.7036972E+002
3	0	3.409455946590606E+002	2.3514481E-001	-2.7040506E+002
3	0	3.414455946464295E+002	2.3497479E-001	-2.7038031E+002
3	0	3.419455946337985E+002	2.3481768E-001	-2.7034851E+002
3	0	3.424455946211674E+002	2.3465198E-001	-2.7039801E+002
3	0	3.429455946085363E+002	2.3448746E-001	-2.7038031E+002
3	0	3.434455945959053E+002	2.3430812E-001	-2.7038385E+002
3	0	3.439455945832742E+002	2.3411393E-001	-2.7036267E+002
3	0	3.444455945706432E+002	2.3393336E-001	-2.7038742E+002
3	0	3.449455945580121E+002	2.3378541E-001	-2.7039447E+002
3	0	3.454455945453810E+002	2.3363119E-001	-2.7037326E+002
3	0	3.459455945327500E+002	2.3348482E-001	-2.7039093E+002
3	0	3.464455945201189E+002	2.3334005E-001	-2.7038385E+002
3	0	3.469455945074878E+002	2.3319207E-001	-2.7038031E+002
3	0	3.474455944948568E+002	2.3303044E-001	-2.7038742E+002
3	0	3.479455944822257E+002	2.3284425E-001	-2.7038385E+002
3	0	3.484455944695947E+002	2.3267792E-001	-2.7036267E+002
3	0	3.489455944569636E+002	2.3255201E-001	-2.7036618E+002
3	0	3.494455944443325E+002	2.3241246E-001	-2.7035205E+002
3	0	3.499455944317015E+002	2.3228160E-001	-2.7035559E+002
3	0	3.504455944190704E+002	2.3215589E-001	-2.7039447E+002
3	0	3.509455944064393E+002	2.3201954E-001	-2.7038742E+002
3	0	3.514455943938083E+002	2.3185997E-001	-2.7036972E+002
3	0	3.519455943811772E+002	2.3168859E-001	-2.7037677E+002
3	0	3.524455943685462E+002	2.3153429E-001	-2.7039093E+002
3	0	3.529455943559151E+002	2.3141149E-001	-2.7038031E+002
3	0	3.534455943432840E+002	2.3128131E-001	-2.7039801E+002
3	0	3.539455943306530E+002	2.3115619E-001	-2.7039801E+002
3	0	3.544455943180219E+002	2.3103544E-001	-2.7037326E+002
3	0	3.549455943053908E+002	2.3090978E-001	-2.7035913E+002
3	0	3.554455942927598E+002	2.3076344E-001	-2.7038031E+002
3	0	3.559455942801287E+002	2.3059979E-001	-2.7037326E+002
3	0	3.564455942674977E+002	2.3045792E-001	-2.7036618E+002
3	0	3.569455942548666E+002	2.3034604E-001	-2.7036972E+002
3	0	3.574455942422355E+002	2.3022673E-001	-2.7039447E+002
3	0	3.579455942296045E+002	2.3011617E-001	-2.7038031E+002
3	0	3.584455942169734E+002	2.2999862E-001	-2.7039447E+002
3	0	3.589455942043423E+002	2.2988160E-001	-2.7040155E+002
3	0	3.594455941917113E+002	2.2974236E-001	-2.7038031E+002
3	0	3.599455941790802E+002	2.2958195E-001	-2.7037677E+002
3	0	3.604455941664492E+002	2.2944441E-001	-2.7039093E+002
3	0	3.609455941538181E+002	2.2934107E-001	-2.7039093E+002
3	0	3.614455941411870E+002	2.2923507E-001	-2.7036618E+002
3	0	3.619455941285560E+002	2.2912455E-001	-2.7035205E+002
3	0	3.624455941159249E+002	2.2901288E-001	-2.7038385E+002
3	0	3.629455941032938E+002	2.2889684E-001	-2.7037677E+002
3	0	3.634455940906628E+002	2.2876622E-001	-2.7038385E+002
3	0	3.639455940780317E+002	2.2860910E-001	-2.7037326E+002
3	0	3.644455940654007E+002	2.2847389E-001	-2.7036618E+002
3	0	3.649455940527696E+002	2.2837636E-001	-2.7039093E+002
3	0	3.654455940401385E+002	2.2827159E-001	-2.7040506E+002
3	0	3.659455940275075E+002	2.2816952E-001	-2.7040155E+002
3	0	3.664455940148764E+002	2.2807395E-001	-2.7036267E+002
3	0	3.669455940022453E+002	2.2797213E-001	-2.7036972E+002
3	0	3.674455939896143E+002	2.2784320E-001	-2.7038385E+002
3	0	3.679455939769832E+002	2.2769886E-001	-2.7039801E+002
3	0	3.684455939643522E+002	2.2757271E-001	-2.7038031E+002
3	0	3.689455939517211E+002	2.2747974E-001	-2.7036972E+002
3	0	3.694455939390900E+002	2.2738312E-001	-2.7036618E+002
3	0	3.699455939264590E+002	2.2728287E-001	-2.7037326E+002
3	0	3.704455939138279E+002	2.2718415E-001	-2.7038742E+002
3	0	3.709455939011968E+002	2.2706383E-001	-2.7036972E+002
3	0	3.714455938885658E+002	2.2693408E-001	-2.7039093E+002
3	0	3.719455938759347E+002	2.2682482E-001	-2.7039801E+002
3	0	3.724455938633037E+002	2.2672088E-001	-2.7037677E+002
3	0	3.729455938506726E+002	2.2665212E-001	-2.7038742E+002
3	0	3.734455938380415E+002	2.2657755E-001	-2.7037326E+002
3	0	3.739455938254105E+002	2.2648841E-001	-2.7036972E+002
3	0	3.744455938127794E+002	2.2640170E-001	-2.7036972E+002
3	0	3.749455938001483E+002	2.2629952E-001	-2.7036267E+002
3	0	3.754455937875173E+002	2.2618285E-001	-2.7040506E+002
3	0	3.759455937748862E+002	2.2603302E-001	-2.7038031E+002
3	0	3.764455937622552E+002	2.2592172E-001	-2.7037677E+002
3	0	3.769455937496241E+002	2.2583415E-001	-2.7039093E+002
3	0	3.774455937369930E+002	2.2575659E-001	-2.7036972E+002
3	0	3.779455937243620E+002	2.2566734E-001	-2.7037326E+002
3	0	3.784455937117309E+002	2.2558267E-001	-2.7038031E+002
3	0	3.789455936990998E+002	2.2549659E-001	-2.7040155E+002
3	0	3.794455936864688E+002	2.2539027E-001	-2.7038031E+002
3	0	3.799455936738377E+002	2.2525615E-001	-2.7039801E+002
3	0	3.804455936612067E+002	2.2513922E-001	-2.7039447E+002
3	0	3.809455936485756E+002	2.2506818E-001	-2.7037677E+002
3	0	3.814455936359445E+002	2.2499728E-001	-2.7037326E+002
3	0	3.819455936233135E+002	2.2491559E-001	-2.7040860E+002
3	0	3.824455936106824E+002	2.2483595E-001	-2.7035913E+002
3	0	3.829455935980513E+002	2.2474268E-001	-2.7034497E+002
3	0	3.834455935854203E+002	2.2463067E-001	-2.7038031E+002
3	0	3.839455935727892E+002	2.2449628E-001	-2.7037326E+002
3	0	3.844455935601582E+002	2.2438824E-001	-2.7037326E+002
3	0	3.849455935475271E+002	2.2432010E-001	-2.7039447E+002
3	0	3.854455935348960E+002	2.2425018E-001	-2.7040506E+002
3	0	3.859455935222650E+002	2.2417764E-001	-2.7038742E+002
3	0	3.864455935096339E+002	2.2409973E-001	-2.7036267E+002
3	0	3.869455934970028E+002	2.2401600E-001	-2.7036972E+002
3	0	3.874455934843718E+002	2.2391012E-001	-2.7038742E+002
3	0	3.879455934717407E+002	2.2378375E-001	-2.7039801E+002
3	0	3.884455934591097E+002	2.2368599E-001	-2.7038385E+002
3	0	3.889455934464786E+002	2.2362626E-001	-2.7039447E+002
3	0	3.894455934338475E+002	2.2356437E-001	-2.7037326E+002
3	0	3.899455934212165E+002	2.2349049E-001	-2.7039093E+002
3	0	3.904455934085854E+002	2.2341947E-001	-2.7040860E+002
3	0	3.909455933959543E+002	2.2333986E-001	-2.7036972E+002
3	0	3.914455933833233E+002	2.2324483E-001	-2.7038742E+002
3	0	3.919455933706922E+002	2.2312489E-001	-2.7038742E+002
3	0	3.924455933580612E+002	2.2302316E-001	-2.7038031E+002
3	0	3.929455933454301E+002	2.2297120E-001	-2.7039447E+002
3	0	3.934455933327990E+002	2.2291082E-001	-2.7038031E+002
3	0	3.939455933201680E+002	2.2284445E-001	-2.7041919E+002
3	0	3.944455933075369E+002	2.2277252E-001	-2.7039801E+002
3	0	3.949455932949058E+002	2.2269879E-001	-2.7035913E+002
3	0	3.954455932822748E+002	2.2260873E-001	-2.7038385E+002
3	0	3.959455932696437E+002	2.2249462E-001	-2.7039093E+002
3	0	3.964455932570127E+002	2.2239894E-001	-2.7036618E+002
3	0	3.969455932443816E+002	2.2234716E-001	-2.7040506E+002
3	0	3.974455932317505E+002	2.2228944E-001	-2.7035205E+002
3	0	3.979455932191195E+002	2.2223131E-001	-2.7038031E+002
3	0	3.984455932064884E+002	2.2217101E-001	-2.7039093E+002
3	0	3.989455931938573E+002	2.2210157E-001	-2.7037677E+002
3	0	3.994455931812263E+002	2.2200905E-001	-2.7038385E+002
3	0	3.999455931685952E+002	2.2189502E-001	-2.7037326E+002
3	0	4.004455931559642E+002	2.2179942E-001	-2.7041919E+002
3	0	4.009455931433331E+002	2.2174385E-001	-2.7039093E+002
3	0	4.014455931307020E+002	2.2169164E-001	-2.7036618E+002
3	0	4.019455931180710E+002	2.2162628E-001	-2.7035913E+002
3	0	4.024455931054399E+002	2.2155082E-001	-2.7039093E+002
3	0	4.029455930928088E+002	2.2147615E-001	-2.7041919E+002
3	0	4.034455930801778E+002	2.2137465E-001	-2.7038031E+002
3	0	4.039455930675467E+002	2.2125775E-001	-2.7036267E+002
3	0	4.044455930549157E+002	2.2116141E-001	-2.7037326E+002
3	0	4.049455930422846E+002	2.2110619E-001	-2.7038031E+002
3	0	4.054455930296535E+002	2.2104786E-001	-2.7038031E+002
3	0	4.059455930170225E+002	2.2098033E-001	-2.7039093E+002
3	0	4.064455930043914E+002	2.2091405E-001	-2.7036972E+002
3	0	4.069455929917604E+002	2.2084247E-001	-2.7038385E+002
3	0	4.074455929791293E+002	2.2075243E-001	-2.7035913E+002
3	0	4.079455929664982E+002	2.2064801E-001	-2.7036267E+002
3	0	4.084455929538672E+002	2.2055706E-001	-2.7039093E+002
3	0	4.089455929412361E+002	2.2050723E-001	-2.7038031E+002
3	0	4.094455929286050E+002	2.2045599E-001	-2.7039093E+002
3	0	4.099455929159740E+002	2.2039945E-001	-2.7039447E+002
3	0	4.104455929033429E+002	2.2033648E-001	-2.7036618E+002
3	0	4.109455928907119E+002	2.2027065E-001	-2.7036618E+002
3	0	4.114455928780808E+002	2.2018512E-001	-2.7038742E+002
3	0	4.119455928654497E+002	2.2007972E-001	-2.7035559E+002
3	0	4.124455928528187E+002	2.1999110E-001	-2.7038031E+002
3	0	4.129455928401876E+002	2.1994528E-001	-2.7037326E+002
3	0	4.134455928275565E+002	2.1989660E-001	-2.7038031E+002
3	0	4.139455928149255E+002	2.1984223E-001	-2.7037677E+002
3	0	4.144455928022944E+002	2.1978559E-001	-2.7038385E+002
3	0	4.149455927896634E+002	2.1972762E-001	-2.7038742E+002
3	0	4.154455927770323E+002	2.1964416E-001	-2.7038031E+002
3	0	4.159455927644012E+002	2.1954428E-001	-2.7037677E+002
3	0	4.164455927517702E+002	2.1946473E-001	-2.7038742E+002
3	0	4.169455927391391E+002	2.1942343E-001	-2.7036618E+002
3	0	4.174455927265080E+002	2.1938136E-001	-2.7037326E+002
3	0	4.179455927138770E+002	2.1932706E-001	-2.7038031E+002
3	0	4.184455927012459E+002	2.1927428E-001	-2.7037326E+002
3	0	4.189455926886149E+002	2.1921070E-001	-2.7037677E+002
3	0	4.194455926759838E+002	2.1912816E-001	-2.7038031E+002
3	0	4.199455926633527E+002	2.1903019E-001	-2.7036972E+002
3	0	4.204455926507217E+002	2.1894597E-001	-2.7037326E+002
3	0	4.209455926380906E+002	2.1890619E-001	-2.7036972E+002
3	0	4.214455926254595E+002	2.1886575E-001	-2.7039801E+002
3	0	4.219455926128285E+002	2.1881330E-001	-2.7036618E+002
3	0	4.224455926001974E+002	2.1875319E-001	-2.7039801E+002
3	0	4.229455925875664E+002	2.1868964E-001	-2.7036267E+002
3	0	4.234455925749353E+002	2.1860880E-001	-2.7039801E+002
3	0	4.239455925623042E+002	2.1850258E-001	-2.7038385E+002
3	0	4.244455925496732E+002	2.1842270E-001	-2.7036972E+002
3	0	4.249455925370421E+002	2.1837765E-001	-2.7036267E+002
3	0	4.254455925244110E+002	2.1833627E-001	-2.7037326E+002
3	0	4.259455925117800E+002	2.1828301E-001	-2.7036972E+002
3	0	4.264455924991489E+002	2.1823286E-001	-2.7038031E+002
3	0	4.269455924865179E+002	2.1817276E-001	-2.7039093E+002
3	0	4.274455924738868E+002	2.1809779E-001	-2.7037326E+002
3	0	4.279455924612557E+002	2.1799715E-001	-2.7038031E+002
3	0	4.284455924486247E+002	2.1791674E-001	-2.7040155E+002
3	0	4.289455924359936E+002	2.1787684E-001	-2.7039093E+002
3	0	4.294455924233625E+002	2.1783966E-001	-2.7036267E+002
3	0	4.299455924107315E+002	2.1779169E-001	-2.7040155E+002
3	0	4.304455923981004E+002	2.1774206E-001	-2.7038031E+002
3	0	4.309455923854694E+002	2.1768630E-001	-2.7039447E+002
3	0	4.314455923728383E+002	2.1761529E-001	-2.7037677E+002
3	0	4.319455923602072E+002	2.1751468E-001	-2.7039093E+002
3	0	4.324455923475762E+002	2.1743844E-001	-2.7038742E+002
3	0	4.329455923349451E+002	2.1740790E-001	-2.7037326E+002
3	0	4.334455923223140E+002	2.1737753E-001	-2.7037326E+002
3	0	4.339455923096830E+002	2.1733448E-001	-2.7039447E+002
3	0	4.344455922970519E+002	2.1729364E-001	-2.7038385E+002
3	0	4.349455922844209E+002	2.1724498E-001	-2.7034851E+002
3	0	4.354455922717898E+002	2.1717574E-001	-2.7036972E+002
3	0	4.359455922591587E+002	2.1708034E-001	-2.7040155E+002
3	0	4.364455922465277E+002	2.1700692E-001	-2.7037677E+002
3	0	4.369455922338966E+002	2.1697132E-001	-2.7037326E+002
3	0	4.374455922212655E+002	2.1693434E-001	-2.7036618E+002
3	0	4.379455922086345E+002	2.1689571E-001	-2.7037677E+002
3	0	4.384455921960034E+002	2.1685314E-001	-2.7038031E+002
3	0	4.389455921833724E+002	2.1680474E-001	-2.7036972E+002
3	0	4.394455921707413E+002	2.1673678E-001	-2.7039801E+002
3	0	4.399455921581102E+002	2.1664737E-001	-2.7035205E+002
3	0	4.404455921454792E+002	2.1657413E-001	-2.7038742E+002
3	0	4.409455921328481E+002	2.1654250E-001	-2.7036972E+002
3	0	4.414455921202170E+002	2.1650712E-001	-2.7036618E+002
3	0	4.419455921075860E+002	2.1646354E-001	-2.7038385E+002
3	0	4.424455920949549E+002	2.1641810E-001	-2.7040506E+002
3	0	4.429455920823239E+002	2.1635997E-001	-2.7040155E+002
3	0	4.434455920696928E+002	2.1629176E-001	-2.7037677E+002
3	0	4.439455920570617E+002	2.1619458E-001	-2.7037677E+002
3	0	4.444455920444307E+002	2.1612053E-001	-2.7035913E+002
3	0	4.449455920317996E+002	2.1608390E-001	-2.7039093E+002
3	0	4.454455920191685E+002	2.1605033E-001	-2.7036618E+002
3	0	4.459455920065375E+002	2.1601181E-001	-2.7035913E+002
3	0	4.464455919939064E+002	2.1596810E-001	-2.7038742E+002
3	0	4.469455919812754E+002	2.1592371E-001	-2.7037326E+002
3	0	4.474455919686443E+002	2.1586382E-001	-2.7036618E+002
3	0	4.479455919560132E+002	2.1576969E-001	-2.7037677E+002
3	0	4.484455919433822E+002	2.1570136E-001	-2.7039093E+002
3	0	4.489455919307511E+002	2.1567282E-001	-2.7039447E+002
3	0	4.494455919181200E+002	2.1564227E-001	-2.7037326E+002
3	0	4.499455919054890E+002	2.1560442E-001	-2.7037677E+002
3	0	4.499719919048221E+002	2.1557564E-001	-2.7040155E+002