EC-Lab ASCII FILE
Nb header lines : 55                          

Open Circuit Voltage

Run on channel : 1 (SN 81504)
User : 
CE vs. WE compliance from -10 V to 10 V
Electrode connection : standard
Potential control : Ewe
Ewe ctrl range : min = -2.50 V, max = 2.50 V
Safety Limits :
	Do not start on E overload
Acquisition started on : 05/08/2026 00:43:10.981
Loaded Setting File :  C:\PEM-WE_measurements\2026\372_IV_IV IrOx, 5 min Pt, 30 min C, etched cathode\new station\Loopeis new\1,46 V different time gaps open cell\Loopeis 1,46V_180s_4_PEIS from 650Hz to 100Hz.mps
Saved on :
	File : L_29_Loopeis 1,46V_180s_4_PEIS from 650Hz to 100Hz_02_OCV_C01.mpr
	Directory : C:\PEM-WE_measurements\2026\372_IV_IV IrOx, 5 min Pt, 30 min C, etched cathode\new station\Loopeis new\1,46 V different time gaps open cell\
	Host : 192.168.0.2
Device : SP-150e (SN .005491)
Address : 192.168.0.91
EC-LAB for windows v11.71 (software)
Internet server v28.00 (firmware)
Command interpretor v14.01 (firmware)
Electrode material : 
Initial state : 
Electrolyte : 
Comments : 
Current amplifier : SP-150eB-20A
Electrode surface area : 0.001 cm²
Characteristic mass : 0.001 g
Equivalent Weight : 0.000 g/eq.
Density : 0.000 g/cm3
Volume (V) : 0.001 cm³
Record Analogic IN 1
Text export
   Mode : Standard
   Time format : Elapsed
Cycle Definition : Charge/Discharge alternance
External device configuration :
   device type : Temperature Probe
   device name : Other
   Analog IN 1 : 
      unit : T/Â°C
      max : 100.000 at 2.000 V
      min : 0.000 at 1.460 V
tR (h:m:s)          0:03:0.0000         
dER/dt (mV/h)       1.0                 
record              <Ewe>               
dER (mV)            10.00               
dtR (s)             0.5000              
E range min (V)     -2.500              
E range max (V)     2.500               

mode	error	time/s	<Ewe/V>	Analog IN 1/V	
3	0	4.549979885057837E+001	1.2177682E+000	-2.7036972E+002
3	0	4.599979883794731E+001	1.1655196E+000	-2.7038031E+002
3	0	4.649979882531625E+001	7.8111541E-001	-2.7038742E+002
3	0	4.699979881268519E+001	4.1429919E-001	-2.7039801E+002
3	0	4.749979880005412E+001	3.4491000E-001	-2.7038742E+002
3	0	4.799979878742306E+001	3.3349589E-001	-2.7036618E+002
3	0	4.849979877479200E+001	3.2589597E-001	-2.7040506E+002
3	0	4.899979876216094E+001	3.1988281E-001	-2.7039093E+002
3	0	4.949979874952987E+001	3.1527281E-001	-2.7037677E+002
3	0	4.999979873689881E+001	3.1170991E-001	-2.7036972E+002
3	0	5.049979872426775E+001	3.0888036E-001	-2.7036618E+002
3	0	5.099979871163669E+001	3.0656385E-001	-2.7038031E+002
3	0	5.149979869900562E+001	3.0461290E-001	-2.7036267E+002
3	0	5.199979868637456E+001	3.0296934E-001	-2.7037326E+002
3	0	5.249979867374350E+001	3.0156109E-001	-2.7037326E+002
3	0	5.299979866111244E+001	3.0030602E-001	-2.7039447E+002
3	0	5.349979864848137E+001	2.9918101E-001	-2.7038031E+002
3	0	5.399979863585031E+001	2.9816547E-001	-2.7038031E+002
3	0	5.449979862321925E+001	2.9721686E-001	-2.7039093E+002
3	0	5.499979861058819E+001	2.9632223E-001	-2.7040155E+002
3	0	5.549979859795712E+001	2.9546276E-001	-2.7035559E+002
3	0	5.599979858532606E+001	2.9466471E-001	-2.7038385E+002
3	0	5.649979857269500E+001	2.9393631E-001	-2.7036267E+002
3	0	5.699979856006394E+001	2.9323268E-001	-2.7039093E+002
3	0	5.749979854743287E+001	2.9254955E-001	-2.7038031E+002
3	0	5.799979853480181E+001	2.9188901E-001	-2.7038031E+002
3	0	5.849979852217075E+001	2.9125068E-001	-2.7038742E+002
3	0	5.899979850953969E+001	2.9060701E-001	-2.7038385E+002
3	0	5.949979849690862E+001	2.8995746E-001	-2.7038385E+002
3	0	5.999979848427756E+001	2.8934237E-001	-2.7035559E+002
3	0	6.049979847164650E+001	2.8876826E-001	-2.7039447E+002
3	0	6.099979845901544E+001	2.8820074E-001	-2.7038031E+002
3	0	6.149979844638438E+001	2.8763828E-001	-2.7039801E+002
3	0	6.199979843375331E+001	2.8708926E-001	-2.7039447E+002
3	0	6.249979842112225E+001	2.8654653E-001	-2.7038031E+002
3	0	6.299979840849119E+001	2.8598860E-001	-2.7039093E+002
3	0	6.349979839586013E+001	2.8541958E-001	-2.7038742E+002
3	0	6.399979838322906E+001	2.8488210E-001	-2.7037326E+002
3	0	6.449979837059800E+001	2.8437340E-001	-2.7036267E+002
3	0	6.499979835796694E+001	2.8385651E-001	-2.7038742E+002
3	0	6.549979834533588E+001	2.8335324E-001	-2.7035913E+002
3	0	6.599979833270481E+001	2.8286082E-001	-2.7039801E+002
3	0	6.649979832007375E+001	2.8236324E-001	-2.7038742E+002
3	0	6.699979830744269E+001	2.8185901E-001	-2.7039447E+002
3	0	6.749979829481163E+001	2.8133401E-001	-2.7040155E+002
3	0	6.799979828218056E+001	2.8084192E-001	-2.7038385E+002
3	0	6.849979826954950E+001	2.8037763E-001	-2.7037326E+002
3	0	6.899979825691844E+001	2.7991140E-001	-2.7037326E+002
3	0	6.949979824428738E+001	2.7945212E-001	-2.7038385E+002
3	0	6.999979823165631E+001	2.7900192E-001	-2.7035913E+002
3	0	7.049979821902525E+001	2.7854952E-001	-2.7040155E+002
3	0	7.099979820639419E+001	2.7807948E-001	-2.7039447E+002
3	0	7.149979819376313E+001	2.7759999E-001	-2.7035205E+002
3	0	7.199979818113206E+001	2.7714315E-001	-2.7038742E+002
3	0	7.249979816850100E+001	2.7671209E-001	-2.7039447E+002
3	0	7.299979815586994E+001	2.7627733E-001	-2.7038031E+002
3	0	7.349979814323888E+001	2.7584970E-001	-2.7039447E+002
3	0	7.399979813060781E+001	2.7543393E-001	-2.7036972E+002
3	0	7.449979811797675E+001	2.7501163E-001	-2.7039093E+002
3	0	7.499979810534569E+001	2.7458364E-001	-2.7039093E+002
3	0	7.549979809271463E+001	2.7413747E-001	-2.7037326E+002
3	0	7.599979808008356E+001	2.7371925E-001	-2.7036618E+002
3	0	7.649979806745250E+001	2.7332672E-001	-2.7037677E+002
3	0	7.699979805482144E+001	2.7292728E-001	-2.7040155E+002
3	0	7.749979804219038E+001	2.7253470E-001	-2.7038031E+002
3	0	7.799979802955932E+001	2.7215892E-001	-2.7038742E+002
3	0	7.849979801692825E+001	2.7177691E-001	-2.7037326E+002
3	0	7.899979800429719E+001	2.7137318E-001	-2.7038031E+002
3	0	7.949979799166613E+001	2.7096155E-001	-2.7037677E+002
3	0	7.999979797903507E+001	2.7057466E-001	-2.7038742E+002
3	0	8.049979796640400E+001	2.7021712E-001	-2.7039093E+002
3	0	8.099979795377294E+001	2.6985204E-001	-2.7037677E+002
3	0	8.149979794114188E+001	2.6950490E-001	-2.7037677E+002
3	0	8.199979792851082E+001	2.6915807E-001	-2.7036618E+002
3	0	8.249979791587975E+001	2.6880404E-001	-2.7039093E+002
3	0	8.299979790324869E+001	2.6843357E-001	-2.7037677E+002
3	0	8.349979789061763E+001	2.6805735E-001	-2.7035913E+002
3	0	8.399979787798657E+001	2.6770297E-001	-2.7039093E+002
3	0	8.449979786535550E+001	2.6737171E-001	-2.7036972E+002
3	0	8.499979785272444E+001	2.6703861E-001	-2.7039801E+002
3	0	8.549979784009338E+001	2.6671374E-001	-2.7037677E+002
3	0	8.599979782746232E+001	2.6638842E-001	-2.7036972E+002
3	0	8.649979781483125E+001	2.6606381E-001	-2.7036267E+002
3	0	8.699979780220019E+001	2.6572284E-001	-2.7040506E+002
3	0	8.749979778956913E+001	2.6537013E-001	-2.7040155E+002
3	0	8.799979777693807E+001	2.6504600E-001	-2.7038031E+002
3	0	8.849979776430700E+001	2.6474610E-001	-2.7037677E+002
3	0	8.899979775167594E+001	2.6444411E-001	-2.7038742E+002
3	0	8.949979773904488E+001	2.6414153E-001	-2.7039093E+002
3	0	8.999979772641382E+001	2.6384723E-001	-2.7036972E+002
3	0	9.049979771378275E+001	2.6354480E-001	-2.7036972E+002
3	0	9.099979770115169E+001	2.6323158E-001	-2.7037677E+002
3	0	9.149979768852063E+001	2.6290321E-001	-2.7037677E+002
3	0	9.199979767588957E+001	2.6260170E-001	-2.7038742E+002
3	0	9.249979766325851E+001	2.6232469E-001	-2.7034851E+002
3	0	9.299979765062744E+001	2.6204360E-001	-2.7037677E+002
3	0	9.349979763799638E+001	2.6176780E-001	-2.7036267E+002
3	0	9.399979762536532E+001	2.6149118E-001	-2.7038385E+002
3	0	9.449979761273426E+001	2.6120961E-001	-2.7036972E+002
3	0	9.499979760010319E+001	2.6091373E-001	-2.7039447E+002
3	0	9.549979758747213E+001	2.6060823E-001	-2.7036972E+002
3	0	9.599979757484107E+001	2.6032865E-001	-2.7039801E+002
3	0	9.649979756221001E+001	2.6007113E-001	-2.7037677E+002
3	0	9.699979754957894E+001	2.5981531E-001	-2.7034143E+002
3	0	9.749979753694788E+001	2.5956771E-001	-2.7036972E+002
3	0	9.799979752431682E+001	2.5931856E-001	-2.7038742E+002
3	0	9.849979751168576E+001	2.5906932E-001	-2.7038385E+002
3	0	9.899979749905469E+001	2.5880289E-001	-2.7039801E+002
3	0	9.949979748642363E+001	2.5852135E-001	-2.7037677E+002
3	0	9.999979747379257E+001	2.5826603E-001	-2.7039801E+002
3	0	1.004997974611615E+002	2.5803772E-001	-2.7040506E+002
3	0	1.009997974485304E+002	2.5779971E-001	-2.7037326E+002
3	0	1.014997974358994E+002	2.5757131E-001	-2.7039093E+002
3	0	1.019997974232683E+002	2.5734213E-001	-2.7037326E+002
3	0	1.024997974106373E+002	2.5710493E-001	-2.7039447E+002
3	0	1.029997973980062E+002	2.5685823E-001	-2.7038385E+002
3	0	1.034997973853751E+002	2.5659782E-001	-2.7036618E+002
3	0	1.039997973727441E+002	2.5636029E-001	-2.7037677E+002
3	0	1.044997973601130E+002	2.5615445E-001	-2.7039447E+002
3	0	1.049997973474819E+002	2.5593835E-001	-2.7038385E+002
3	0	1.054997973348509E+002	2.5572950E-001	-2.7038385E+002
3	0	1.059997973222198E+002	2.5551972E-001	-2.7035205E+002
3	0	1.064997973095888E+002	2.5530553E-001	-2.7035913E+002
3	0	1.069997972969577E+002	2.5507912E-001	-2.7036618E+002
3	0	1.074997972843266E+002	2.5483489E-001	-2.7039093E+002
3	0	1.079997972716956E+002	2.5462073E-001	-2.7035913E+002
3	0	1.084997972590645E+002	2.5443009E-001	-2.7038031E+002
3	0	1.089997972464334E+002	2.5423795E-001	-2.7035913E+002
3	0	1.094997972338024E+002	2.5404385E-001	-2.7037326E+002
3	0	1.099997972211713E+002	2.5385463E-001	-2.7037677E+002
3	0	1.104997972085403E+002	2.5366056E-001	-2.7036267E+002
3	0	1.109997971959092E+002	2.5344738E-001	-2.7037677E+002
3	0	1.114997971832781E+002	2.5321314E-001	-2.7037677E+002
3	0	1.119997971706471E+002	2.5301117E-001	-2.7038742E+002
3	0	1.124997971580160E+002	2.5284106E-001	-2.7038742E+002
3	0	1.129997971453849E+002	2.5264919E-001	-2.7038031E+002
3	0	1.134997971327539E+002	2.5246957E-001	-2.7037326E+002
3	0	1.139997971201228E+002	2.5228813E-001	-2.7038742E+002
3	0	1.144997971074918E+002	2.5210288E-001	-2.7036618E+002
3	0	1.149997970948607E+002	2.5190312E-001	-2.7039093E+002
3	0	1.154997970822296E+002	2.5168598E-001	-2.7038031E+002
3	0	1.159997970695986E+002	2.5148949E-001	-2.7034143E+002
3	0	1.164997970569675E+002	2.5132695E-001	-2.7037326E+002
3	0	1.169997970443364E+002	2.5115967E-001	-2.7037326E+002
3	0	1.174997970317054E+002	2.5099820E-001	-2.7035205E+002
3	0	1.179997970190743E+002	2.5083083E-001	-2.7035205E+002
3	0	1.184997970064433E+002	2.5066167E-001	-2.7039447E+002
3	0	1.189997969938122E+002	2.5047696E-001	-2.7039093E+002
3	0	1.194997969811811E+002	2.5027174E-001	-2.7039093E+002
3	0	1.199997969685501E+002	2.5009710E-001	-2.7038031E+002
3	0	1.204997969559190E+002	2.4995019E-001	-2.7037677E+002
3	0	1.209997969432879E+002	2.4979977E-001	-2.7036618E+002
3	0	1.214997969306569E+002	2.4964891E-001	-2.7037326E+002
3	0	1.219997969180258E+002	2.4950267E-001	-2.7040155E+002
3	0	1.224997969053948E+002	2.4935280E-001	-2.7038031E+002
3	0	1.229997968927637E+002	2.4918097E-001	-2.7036618E+002
3	0	1.234997968801326E+002	2.4899186E-001	-2.7037677E+002
3	0	1.239997968675016E+002	2.4882995E-001	-2.7037326E+002
3	0	1.244997968548705E+002	2.4869317E-001	-2.7037326E+002
3	0	1.249997968422394E+002	2.4855159E-001	-2.7038031E+002
3	0	1.254997968296084E+002	2.4841046E-001	-2.7037326E+002
3	0	1.259997968169773E+002	2.4827306E-001	-2.7036972E+002
3	0	1.264997968043463E+002	2.4812870E-001	-2.7039093E+002
3	0	1.269997967917152E+002	2.4796781E-001	-2.7039093E+002
3	0	1.274997967790841E+002	2.4779567E-001	-2.7041214E+002
3	0	1.279997967664531E+002	2.4763767E-001	-2.7037326E+002
3	0	1.284997967538220E+002	2.4751216E-001	-2.7034143E+002
3	0	1.289997967411909E+002	2.4738409E-001	-2.7038742E+002
3	0	1.294997967285599E+002	2.4725814E-001	-2.7038742E+002
3	0	1.299997967159288E+002	2.4712303E-001	-2.7037677E+002
3	0	1.304997967032978E+002	2.4699128E-001	-2.7036972E+002
3	0	1.309997966906667E+002	2.4683893E-001	-2.7038031E+002
3	0	1.314997966780356E+002	2.4666867E-001	-2.7038385E+002
3	0	1.319997966654046E+002	2.4652696E-001	-2.7036972E+002
3	0	1.324997966527735E+002	2.4640989E-001	-2.7039447E+002
3	0	1.329997966401424E+002	2.4628735E-001	-2.7037326E+002
3	0	1.334997966275114E+002	2.4616326E-001	-2.7036972E+002
3	0	1.339997966148803E+002	2.4604061E-001	-2.7037677E+002
3	0	1.344997966022493E+002	2.4591517E-001	-2.7038031E+002
3	0	1.349997965896182E+002	2.4576412E-001	-2.7036972E+002
3	0	1.354997965769871E+002	2.4559999E-001	-2.7039801E+002
3	0	1.359997965643561E+002	2.4546143E-001	-2.7040506E+002
3	0	1.364997965517250E+002	2.4535179E-001	-2.7039447E+002
3	0	1.369997965390940E+002	2.4523078E-001	-2.7039093E+002
3	0	1.374997965264629E+002	2.4511391E-001	-2.7035913E+002
3	0	1.379997965138318E+002	2.4500118E-001	-2.7039801E+002
3	0	1.384997965012008E+002	2.4487445E-001	-2.7039093E+002
3	0	1.389997964885697E+002	2.4473678E-001	-2.7036618E+002
3	0	1.394997964759386E+002	2.4458431E-001	-2.7038385E+002
3	0	1.399997964633076E+002	2.4445719E-001	-2.7035913E+002
3	0	1.404997964506765E+002	2.4435836E-001	-2.7034851E+002
3	0	1.409997964380455E+002	2.4424642E-001	-2.7039093E+002
3	0	1.414997964254144E+002	2.4414019E-001	-2.7035559E+002
3	0	1.419997964127833E+002	2.4400730E-001	-2.7038742E+002
3	0	1.424997964001523E+002	2.4388590E-001	-2.7037326E+002
3	0	1.429997963875212E+002	2.4377938E-001	-2.7035559E+002
3	0	1.434997963748901E+002	2.4364683E-001	-2.7036618E+002
3	0	1.439997963622591E+002	2.4353516E-001	-2.7036618E+002
3	0	1.444997963496280E+002	2.4345301E-001	-2.7037326E+002
3	0	1.449997963369970E+002	2.4335915E-001	-2.7038385E+002
3	0	1.454997963243659E+002	2.4326381E-001	-2.7036618E+002
3	0	1.459997963117348E+002	2.4316821E-001	-2.7039801E+002
3	0	1.464997962991038E+002	2.4306376E-001	-2.7039093E+002
3	0	1.469997962864727E+002	2.4293509E-001	-2.7037326E+002
3	0	1.474997962738416E+002	2.4278836E-001	-2.7038385E+002
3	0	1.479997962612106E+002	2.4266517E-001	-2.7036618E+002
3	0	1.484997962485795E+002	2.4257618E-001	-2.7037326E+002
3	0	1.489997962359485E+002	2.4248292E-001	-2.7038742E+002
3	0	1.494997962233174E+002	2.4239025E-001	-2.7039093E+002
3	0	1.499997962106863E+002	2.4229017E-001	-2.7039801E+002
3	0	1.504997961980553E+002	2.4218722E-001	-2.7036972E+002
3	0	1.509997961854242E+002	2.4206613E-001	-2.7039801E+002
3	0	1.514997961727931E+002	2.4192794E-001	-2.7037677E+002
3	0	1.519997961601621E+002	2.4181332E-001	-2.7039447E+002
3	0	1.524997961475310E+002	2.4173436E-001	-2.7038742E+002
3	0	1.529997961349000E+002	2.4165060E-001	-2.7039447E+002
3	0	1.534997961222689E+002	2.4155954E-001	-2.7038742E+002
3	0	1.539997961096378E+002	2.4147157E-001	-2.7037326E+002
3	0	1.544997960970068E+002	2.4136652E-001	-2.7040506E+002
3	0	1.549997960843757E+002	2.4123533E-001	-2.7037326E+002
3	0	1.554997960717446E+002	2.4108917E-001	-2.7038742E+002
3	0	1.559997960591136E+002	2.4097411E-001	-2.7039447E+002
3	0	1.564997960464825E+002	2.4089034E-001	-2.7039093E+002
3	0	1.569997960338515E+002	2.4080448E-001	-2.7038385E+002
3	0	1.574997960212204E+002	2.4071369E-001	-2.7036618E+002
3	0	1.579997960085893E+002	2.4062370E-001	-2.7035559E+002
3	0	1.584997959959583E+002	2.4052958E-001	-2.7039093E+002
3	0	1.589997959833272E+002	2.4041092E-001	-2.7035559E+002
3	0	1.594997959706961E+002	2.4027574E-001	-2.7036972E+002
3	0	1.599997959580651E+002	2.4017245E-001	-2.7038031E+002
3	0	1.604997959454340E+002	2.4010120E-001	-2.7034497E+002
3	0	1.609997959328030E+002	2.4002862E-001	-2.7038031E+002
3	0	1.614997959201719E+002	2.3994265E-001	-2.7037326E+002
3	0	1.619997959075408E+002	2.3985787E-001	-2.7036267E+002
3	0	1.624997958949098E+002	2.3977330E-001	-2.7039801E+002
3	0	1.629997958822787E+002	2.3966436E-001	-2.7038742E+002
3	0	1.634997958696476E+002	2.3953705E-001	-2.7038742E+002
3	0	1.639997958570166E+002	2.3943473E-001	-2.7037677E+002
3	0	1.644997958443855E+002	2.3936217E-001	-2.7035913E+002
3	0	1.649997958317545E+002	2.3929830E-001	-2.7037326E+002
3	0	1.654997958191234E+002	2.3922071E-001	-2.7040155E+002
3	0	1.659997958064923E+002	2.3914589E-001	-2.7038742E+002
3	0	1.664997957938613E+002	2.3906212E-001	-2.7036267E+002
3	0	1.669997957812302E+002	2.3895948E-001	-2.7035913E+002
3	0	1.674997957685991E+002	2.3883659E-001	-2.7036618E+002
3	0	1.679997957559681E+002	2.3873968E-001	-2.7039447E+002
3	0	1.684997957433370E+002	2.3867118E-001	-2.7036972E+002
3	0	1.689997957307060E+002	2.3860434E-001	-2.7034143E+002
3	0	1.694997957180749E+002	2.3853238E-001	-2.7037326E+002
3	0	1.699997957054438E+002	2.3846258E-001	-2.7035559E+002
3	0	1.704997956928128E+002	2.3839228E-001	-2.7035913E+002
3	0	1.709997956801817E+002	2.3829255E-001	-2.7039093E+002
3	0	1.714997956675506E+002	2.3816808E-001	-2.7036267E+002
3	0	1.719997956549196E+002	2.3807919E-001	-2.7039447E+002
3	0	1.724997956422885E+002	2.3801681E-001	-2.7038742E+002
3	0	1.729997956296575E+002	2.3795348E-001	-2.7036618E+002
3	0	1.734997956170264E+002	2.3787826E-001	-2.7036618E+002
3	0	1.739997956043953E+002	2.3780975E-001	-2.7038031E+002
3	0	1.744997955917643E+002	2.3773038E-001	-2.7039093E+002
3	0	1.749997955791332E+002	2.3762582E-001	-2.7039447E+002
3	0	1.754997955665021E+002	2.3749925E-001	-2.7039093E+002
3	0	1.759997955538711E+002	2.3740302E-001	-2.7038385E+002
3	0	1.764997955412400E+002	2.3733944E-001	-2.7036972E+002
3	0	1.769997955286090E+002	2.3727836E-001	-2.7036618E+002
3	0	1.774997955159779E+002	2.3720773E-001	-2.7036972E+002
3	0	1.779997955033468E+002	2.3714390E-001	-2.7038031E+002
3	0	1.784997954907158E+002	2.3706959E-001	-2.7038031E+002
3	0	1.789997954780847E+002	2.3697357E-001	-2.7038385E+002
3	0	1.794997954654536E+002	2.3685634E-001	-2.7038385E+002
3	0	1.799997954528226E+002	2.3676530E-001	-2.7036267E+002
3	0	1.804997954401915E+002	2.3671699E-001	-2.7036267E+002
3	0	1.809997954275605E+002	2.3666534E-001	-2.7037326E+002
3	0	1.814997954149294E+002	2.3660284E-001	-2.7040155E+002
3	0	1.819997954022983E+002	2.3653997E-001	-2.7036972E+002
3	0	1.824997953896673E+002	2.3647399E-001	-2.7039447E+002
3	0	1.829997953770362E+002	2.3638271E-001	-2.7038385E+002
3	0	1.834997953644051E+002	2.3627347E-001	-2.7036618E+002
3	0	1.839997953517741E+002	2.3618753E-001	-2.7036267E+002
3	0	1.844997953391430E+002	2.3613743E-001	-2.7038031E+002
3	0	1.849997953265120E+002	2.3608832E-001	-2.7038742E+002
3	0	1.854997953138809E+002	2.3602515E-001	-2.7038385E+002
3	0	1.859997953012498E+002	2.3596039E-001	-2.7035913E+002
3	0	1.864997952886188E+002	2.3589429E-001	-2.7037677E+002
3	0	1.869997952759877E+002	2.3580797E-001	-2.7038742E+002
3	0	1.874997952633566E+002	2.3570302E-001	-2.7039447E+002
3	0	1.879997952507256E+002	2.3562460E-001	-2.7036618E+002
3	0	1.884997952380945E+002	2.3557867E-001	-2.7036618E+002
3	0	1.889997952254635E+002	2.3553571E-001	-2.7037326E+002
3	0	1.894997952128324E+002	2.3548011E-001	-2.7040506E+002
3	0	1.899997952002013E+002	2.3542100E-001	-2.7035205E+002
3	0	1.904997951875703E+002	2.3535644E-001	-2.7038031E+002
3	0	1.909997951749392E+002	2.3527089E-001	-2.7036267E+002
3	0	1.914997951623081E+002	2.3516206E-001	-2.7036972E+002
3	0	1.919997951496771E+002	2.3507808E-001	-2.7037326E+002
3	0	1.924997951370460E+002	2.3502889E-001	-2.7038031E+002
3	0	1.929997951244150E+002	2.3498112E-001	-2.7038742E+002
3	0	1.934997951117839E+002	2.3492071E-001	-2.7035559E+002
3	0	1.939997950991528E+002	2.3486131E-001	-2.7038385E+002
3	0	1.944997950865218E+002	2.3480082E-001	-2.7038031E+002
3	0	1.949997950738907E+002	2.3471671E-001	-2.7039447E+002
3	0	1.954997950612596E+002	2.3460546E-001	-2.7035913E+002
3	0	1.959997950486286E+002	2.3452291E-001	-2.7037326E+002
3	0	1.964997950359975E+002	2.3447116E-001	-2.7037677E+002
3	0	1.969997950233665E+002	2.3441985E-001	-2.7035913E+002
3	0	1.974997950107354E+002	2.3436017E-001	-2.7039447E+002
3	0	1.979997949981043E+002	2.3430289E-001	-2.7037677E+002
3	0	1.984997949854733E+002	2.3423758E-001	-2.7036972E+002
3	0	1.989997949728422E+002	2.3415387E-001	-2.7037326E+002
3	0	1.994997949602111E+002	2.3404916E-001	-2.7038031E+002
3	0	1.999997949475801E+002	2.3396908E-001	-2.7038742E+002
3	0	2.004997949349490E+002	2.3392096E-001	-2.7037677E+002
3	0	2.009997949223180E+002	2.3387282E-001	-2.7037326E+002
3	0	2.014997949096869E+002	2.3381588E-001	-2.7036972E+002
3	0	2.019997948970558E+002	2.3375623E-001	-2.7038385E+002
3	0	2.024997948844248E+002	2.3369806E-001	-2.7039093E+002
3	0	2.029997948717937E+002	2.3361418E-001	-2.7038385E+002
3	0	2.034997948591626E+002	2.3351108E-001	-2.7038031E+002
3	0	2.039997948465316E+002	2.3343953E-001	-2.7039447E+002
3	0	2.044997948339005E+002	2.3340125E-001	-2.7040506E+002
3	0	2.049997948212695E+002	2.3335472E-001	-2.7039093E+002
3	0	2.054997948086384E+002	2.3330902E-001	-2.7038031E+002
3	0	2.059997947960073E+002	2.3325948E-001	-2.7036618E+002
3	0	2.064997947833763E+002	2.3320346E-001	-2.7039801E+002
3	0	2.069997947707452E+002	2.3313190E-001	-2.7036972E+002
3	0	2.074997947581141E+002	2.3303083E-001	-2.7036972E+002
3	0	2.079997947454831E+002	2.3296188E-001	-2.7037677E+002
3	0	2.084997947328520E+002	2.3292145E-001	-2.7039093E+002
3	0	2.089997947202210E+002	2.3288158E-001	-2.7038385E+002
3	0	2.094997947075899E+002	2.3283213E-001	-2.7038385E+002
3	0	2.099997946949588E+002	2.3277897E-001	-2.7038742E+002
3	0	2.104997946823278E+002	2.3273014E-001	-2.7036267E+002
3	0	2.109997946696967E+002	2.3265319E-001	-2.7036618E+002
3	0	2.114997946570657E+002	2.3255333E-001	-2.7040860E+002
3	0	2.119997946444346E+002	2.3247765E-001	-2.7038742E+002
3	0	2.124997946318035E+002	2.3244371E-001	-2.7037677E+002
3	0	2.129997946191725E+002	2.3240335E-001	-2.7038742E+002
3	0	2.134997946065414E+002	2.3235902E-001	-2.7039093E+002
3	0	2.139997945939103E+002	2.3231283E-001	-2.7038031E+002
3	0	2.144997945812793E+002	2.3225631E-001	-2.7037326E+002
3	0	2.149997945686482E+002	2.3217328E-001	-2.7035913E+002
3	0	2.154997945560172E+002	2.3206697E-001	-2.7038385E+002
3	0	2.159997945433861E+002	2.3199514E-001	-2.7038031E+002
3	0	2.164997945307550E+002	2.3195086E-001	-2.7035205E+002
3	0	2.169997945181240E+002	2.3190364E-001	-2.7038742E+002
3	0	2.174997945054929E+002	2.3185514E-001	-2.7037326E+002
3	0	2.179997944928618E+002	2.3180853E-001	-2.7036267E+002
3	0	2.184997944802308E+002	2.3175108E-001	-2.7038742E+002
3	0	2.189997944675997E+002	2.3167846E-001	-2.7035913E+002
3	0	2.194997944549687E+002	2.3157509E-001	-2.7037326E+002
3	0	2.199997944423376E+002	2.3150462E-001	-2.7036972E+002
3	0	2.204997944297065E+002	2.3146410E-001	-2.7036618E+002
3	0	2.209997944170755E+002	2.3142174E-001	-2.7042273E+002
3	0	2.214997944044444E+002	2.3138089E-001	-2.7037677E+002
3	0	2.219997943918133E+002	2.3132980E-001	-2.7037326E+002
3	0	2.224997943791823E+002	2.3128062E-001	-2.7039447E+002
3	0	2.229997943665512E+002	2.3120931E-001	-2.7038031E+002
3	0	2.234997943539202E+002	2.3111866E-001	-2.7039801E+002
3	0	2.239997943412891E+002	2.3105638E-001	-2.7034497E+002
3	0	2.244997943286580E+002	2.3102409E-001	-2.7037677E+002
3	0	2.249997943160270E+002	2.3098941E-001	-2.7039093E+002
3	0	2.250001943160169E+002	2.3100840E-001	-2.7042627E+002