EC-Lab ASCII FILE
Nb header lines : 55                          

Open Circuit Voltage

Run on channel : 1 (SN 81504)
User : 
CE vs. WE compliance from -10 V to 10 V
Electrode connection : standard
Potential control : Ewe
Ewe ctrl range : min = -2.50 V, max = 2.50 V
Safety Limits :
	Do not start on E overload
Acquisition started on : 05/08/2026 00:43:10.981
Loaded Setting File :  C:\PEM-WE_measurements\2026\372_IV_IV IrOx, 5 min Pt, 30 min C, etched cathode\new station\Loopeis new\1,46 V different time gaps open cell\Loopeis 1,46V_180s_4_PEIS from 650Hz to 100Hz.mps
Saved on :
	File : L_29_Loopeis 1,46V_180s_4_PEIS from 650Hz to 100Hz_08_OCV_C01.mpr
	Directory : C:\PEM-WE_measurements\2026\372_IV_IV IrOx, 5 min Pt, 30 min C, etched cathode\new station\Loopeis new\1,46 V different time gaps open cell\
	Host : 192.168.0.2
Device : SP-150e (SN .005491)
Address : 192.168.0.91
EC-LAB for windows v11.71 (software)
Internet server v28.00 (firmware)
Command interpretor v14.01 (firmware)
Electrode material : 
Initial state : 
Electrolyte : 
Comments : 
Current amplifier : SP-150eB-20A
Electrode surface area : 0.001 cm²
Characteristic mass : 0.001 g
Equivalent Weight : 0.000 g/eq.
Density : 0.000 g/cm3
Volume (V) : 0.001 cm³
Record Analogic IN 1
Text export
   Mode : Standard
   Time format : Elapsed
Cycle Definition : Charge/Discharge alternance
External device configuration :
   device type : Temperature Probe
   device name : Other
   Analog IN 1 : 
      unit : T/Â°C
      max : 100.000 at 2.000 V
      min : 0.000 at 1.460 V
tR (h:m:s)          0:03:0.0000         
dER/dt (mV/h)       1.0                 
record              <Ewe>               
dER (mV)            10.00               
dtR (s)             0.5000              
E range min (V)     -2.500              
E range max (V)     2.500               

mode	error	time/s	<Ewe/V>	Analog IN 1/V	
3	0	7.204133883443865E+002	9.4411427E-001	-2.7038031E+002
3	0	7.209133883317554E+002	1.1289589E+000	-2.7036972E+002
3	0	7.214133883191244E+002	7.5416303E-001	-2.7038385E+002
3	0	7.219133883064933E+002	3.8963413E-001	-2.7039801E+002
3	0	7.224133882938622E+002	3.2103196E-001	-2.7039801E+002
3	0	7.229133882812312E+002	3.1158218E-001	-2.7038742E+002
3	0	7.234133882686001E+002	3.0508733E-001	-2.7036972E+002
3	0	7.239133882559690E+002	2.9966360E-001	-2.7038031E+002
3	0	7.244133882433380E+002	2.9538903E-001	-2.7038385E+002
3	0	7.249133882307069E+002	2.9204068E-001	-2.7035913E+002
3	0	7.254133882180759E+002	2.8937629E-001	-2.7039093E+002
3	0	7.259133882054448E+002	2.8721815E-001	-2.7039801E+002
3	0	7.264133881928137E+002	2.8539956E-001	-2.7036267E+002
3	0	7.269133881801827E+002	2.8384286E-001	-2.7037326E+002
3	0	7.274133881675516E+002	2.8251758E-001	-2.7038742E+002
3	0	7.279133881549205E+002	2.8136462E-001	-2.7037326E+002
3	0	7.284133881422895E+002	2.8033113E-001	-2.7038742E+002
3	0	7.289133881296584E+002	2.7939466E-001	-2.7036267E+002
3	0	7.294133881170274E+002	2.7853358E-001	-2.7039093E+002
3	0	7.299133881043963E+002	2.7772737E-001	-2.7038742E+002
3	0	7.304133880917652E+002	2.7694547E-001	-2.7036972E+002
3	0	7.309133880791342E+002	2.7618819E-001	-2.7039093E+002
3	0	7.314133880665031E+002	2.7549922E-001	-2.7038385E+002
3	0	7.319133880538720E+002	2.7484912E-001	-2.7039447E+002
3	0	7.324133880412410E+002	2.7422822E-001	-2.7035913E+002
3	0	7.329133880286099E+002	2.7361196E-001	-2.7039801E+002
3	0	7.334133880159789E+002	2.7302223E-001	-2.7039093E+002
3	0	7.339133880033478E+002	2.7244127E-001	-2.7039093E+002
3	0	7.344133879907167E+002	2.7186459E-001	-2.7034851E+002
3	0	7.349133879780857E+002	2.7127334E-001	-2.7036618E+002
3	0	7.354133879654546E+002	2.7072895E-001	-2.7038031E+002
3	0	7.359133879528235E+002	2.7019712E-001	-2.7040506E+002
3	0	7.364133879401925E+002	2.6967540E-001	-2.7038385E+002
3	0	7.369133879275614E+002	2.6916751E-001	-2.7036618E+002
3	0	7.374133879149304E+002	2.6865292E-001	-2.7040155E+002
3	0	7.379133879022993E+002	2.6814422E-001	-2.7038742E+002
3	0	7.384133878896682E+002	2.6762074E-001	-2.7038385E+002
3	0	7.389133878770372E+002	2.6709965E-001	-2.7038031E+002
3	0	7.394133878644061E+002	2.6660407E-001	-2.7038031E+002
3	0	7.399133878517750E+002	2.6612929E-001	-2.7035913E+002
3	0	7.404133878391440E+002	2.6565593E-001	-2.7037326E+002
3	0	7.409133878265129E+002	2.6518580E-001	-2.7036618E+002
3	0	7.414133878138819E+002	2.6472494E-001	-2.7038031E+002
3	0	7.419133878012508E+002	2.6426658E-001	-2.7037326E+002
3	0	7.424133877886197E+002	2.6379028E-001	-2.7036267E+002
3	0	7.429133877759887E+002	2.6330656E-001	-2.7037326E+002
3	0	7.434133877633576E+002	2.6285726E-001	-2.7037677E+002
3	0	7.439133877507265E+002	2.6241785E-001	-2.7036972E+002
3	0	7.444133877380955E+002	2.6197693E-001	-2.7038742E+002
3	0	7.449133877254644E+002	2.6154473E-001	-2.7038385E+002
3	0	7.454133877128334E+002	2.6111501E-001	-2.7037326E+002
3	0	7.459133877002023E+002	2.6068750E-001	-2.7038385E+002
3	0	7.464133876875712E+002	2.6024309E-001	-2.7037326E+002
3	0	7.469133876749402E+002	2.5978974E-001	-2.7034497E+002
3	0	7.474133876623091E+002	2.5937709E-001	-2.7037326E+002
3	0	7.479133876496780E+002	2.5897467E-001	-2.7036267E+002
3	0	7.484133876370470E+002	2.5856808E-001	-2.7037326E+002
3	0	7.489133876244159E+002	2.5816905E-001	-2.7037677E+002
3	0	7.494133876117849E+002	2.5777304E-001	-2.7038031E+002
3	0	7.499133875991538E+002	2.5736979E-001	-2.7038742E+002
3	0	7.504133875865227E+002	2.5694972E-001	-2.7035913E+002
3	0	7.509133875738917E+002	2.5652942E-001	-2.7037326E+002
3	0	7.514133875612606E+002	2.5614548E-001	-2.7039093E+002
3	0	7.519133875486295E+002	2.5576913E-001	-2.7037326E+002
3	0	7.524133875359985E+002	2.5539553E-001	-2.7038385E+002
3	0	7.529133875233674E+002	2.5502896E-001	-2.7037677E+002
3	0	7.534133875107364E+002	2.5466654E-001	-2.7035913E+002
3	0	7.539133874981053E+002	2.5429752E-001	-2.7038742E+002
3	0	7.544133874854742E+002	2.5390935E-001	-2.7036618E+002
3	0	7.549133874728432E+002	2.5351229E-001	-2.7038385E+002
3	0	7.554133874602121E+002	2.5315753E-001	-2.7036972E+002
3	0	7.559133874475810E+002	2.5281689E-001	-2.7041214E+002
3	0	7.564133874349500E+002	2.5246739E-001	-2.7037326E+002
3	0	7.569133874223189E+002	2.5213093E-001	-2.7038031E+002
3	0	7.574133874096879E+002	2.5179127E-001	-2.7038031E+002
3	0	7.579133873970568E+002	2.5144771E-001	-2.7039093E+002
3	0	7.584133873844257E+002	2.5108957E-001	-2.7038742E+002
3	0	7.589133873717947E+002	2.5071454E-001	-2.7037677E+002
3	0	7.594133873591636E+002	2.5038835E-001	-2.7036267E+002
3	0	7.599133873465325E+002	2.5006422E-001	-2.7039093E+002
3	0	7.604133873339015E+002	2.4975443E-001	-2.7037326E+002
3	0	7.609133873212704E+002	2.4944539E-001	-2.7035559E+002
3	0	7.614133873086394E+002	2.4914049E-001	-2.7038385E+002
3	0	7.619133872960083E+002	2.4882120E-001	-2.7038742E+002
3	0	7.624133872833772E+002	2.4849102E-001	-2.7038742E+002
3	0	7.629133872707462E+002	2.4815452E-001	-2.7036618E+002
3	0	7.634133872581151E+002	2.4785626E-001	-2.7035913E+002
3	0	7.639133872454840E+002	2.4756362E-001	-2.7038031E+002
3	0	7.644133872328530E+002	2.4727654E-001	-2.7038742E+002
3	0	7.649133872202219E+002	2.4699067E-001	-2.7039447E+002
3	0	7.654133872075909E+002	2.4671264E-001	-2.7036972E+002
3	0	7.659133871949598E+002	2.4642894E-001	-2.7035913E+002
3	0	7.664133871823287E+002	2.4612416E-001	-2.7036972E+002
3	0	7.669133871696977E+002	2.4580711E-001	-2.7037326E+002
3	0	7.674133871570666E+002	2.4553148E-001	-2.7036618E+002
3	0	7.679133871444355E+002	2.4526964E-001	-2.7035913E+002
3	0	7.684133871318045E+002	2.4500655E-001	-2.7037326E+002
3	0	7.689133871191734E+002	2.4474446E-001	-2.7040155E+002
3	0	7.694133871065424E+002	2.4448957E-001	-2.7037326E+002
3	0	7.699133870939113E+002	2.4422497E-001	-2.7037677E+002
3	0	7.704133870812802E+002	2.4394132E-001	-2.7035913E+002
3	0	7.709133870686492E+002	2.4364744E-001	-2.7038742E+002
3	0	7.714133870560181E+002	2.4339396E-001	-2.7038742E+002
3	0	7.719133870433870E+002	2.4315619E-001	-2.7036267E+002
3	0	7.724133870307560E+002	2.4291261E-001	-2.7035559E+002
3	0	7.729133870181249E+002	2.4267718E-001	-2.7037326E+002
3	0	7.734133870054939E+002	2.4243946E-001	-2.7037326E+002
3	0	7.739133869928628E+002	2.4219535E-001	-2.7038742E+002
3	0	7.744133869802317E+002	2.4193466E-001	-2.7037326E+002
3	0	7.749133869676007E+002	2.4166434E-001	-2.7037326E+002
3	0	7.754133869549696E+002	2.4143131E-001	-2.7040155E+002
3	0	7.759133869423385E+002	2.4120995E-001	-2.7038385E+002
3	0	7.764133869297075E+002	2.4098851E-001	-2.7039447E+002
3	0	7.769133869170764E+002	2.4076933E-001	-2.7037326E+002
3	0	7.774133869044454E+002	2.4055301E-001	-2.7037326E+002
3	0	7.779133868918143E+002	2.4032499E-001	-2.7039447E+002
3	0	7.784133868791832E+002	2.4008776E-001	-2.7038385E+002
3	0	7.789133868665522E+002	2.3983146E-001	-2.7036972E+002
3	0	7.794133868539211E+002	2.3961847E-001	-2.7038385E+002
3	0	7.799133868412900E+002	2.3941268E-001	-2.7038742E+002
3	0	7.804133868286590E+002	2.3920467E-001	-2.7038742E+002
3	0	7.809133868160279E+002	2.3900372E-001	-2.7036267E+002
3	0	7.814133868033969E+002	2.3880507E-001	-2.7038385E+002
3	0	7.819133867907658E+002	2.3859455E-001	-2.7036267E+002
3	0	7.824133867781347E+002	2.3837520E-001	-2.7036618E+002
3	0	7.829133867655037E+002	2.3814161E-001	-2.7038742E+002
3	0	7.834133867528726E+002	2.3794530E-001	-2.7037326E+002
3	0	7.839133867402415E+002	2.3776251E-001	-2.7036267E+002
3	0	7.844133867276105E+002	2.3757672E-001	-2.7037677E+002
3	0	7.849133867149794E+002	2.3739420E-001	-2.7043332E+002
3	0	7.854133867023484E+002	2.3721085E-001	-2.7037326E+002
3	0	7.859133866897173E+002	2.3702484E-001	-2.7034497E+002
3	0	7.864133866770862E+002	2.3681849E-001	-2.7037326E+002
3	0	7.869133866644552E+002	2.3660214E-001	-2.7035205E+002
3	0	7.874133866518241E+002	2.3641810E-001	-2.7037677E+002
3	0	7.879133866391931E+002	2.3625113E-001	-2.7036972E+002
3	0	7.884133866265620E+002	2.3608260E-001	-2.7037677E+002
3	0	7.889133866139309E+002	2.3591486E-001	-2.7037677E+002
3	0	7.894133866012999E+002	2.3575184E-001	-2.7035205E+002
3	0	7.899133865886688E+002	2.3557335E-001	-2.7038385E+002
3	0	7.904133865760377E+002	2.3537171E-001	-2.7038742E+002
3	0	7.909133865634067E+002	2.3516500E-001	-2.7038031E+002
3	0	7.914133865507756E+002	2.3498754E-001	-2.7038742E+002
3	0	7.919133865381446E+002	2.3483263E-001	-2.7037326E+002
3	0	7.924133865255135E+002	2.3467022E-001	-2.7038385E+002
3	0	7.929133865128824E+002	2.3451343E-001	-2.7036267E+002
3	0	7.934133865002514E+002	2.3435189E-001	-2.7039801E+002
3	0	7.939133864876203E+002	2.3418854E-001	-2.7034851E+002
3	0	7.944133864749892E+002	2.3400670E-001	-2.7039447E+002
3	0	7.949133864623582E+002	2.3381805E-001	-2.7040155E+002
3	0	7.954133864497271E+002	2.3366341E-001	-2.7037677E+002
3	0	7.959133864370961E+002	2.3351270E-001	-2.7037326E+002
3	0	7.964133864244650E+002	2.3336579E-001	-2.7037677E+002
3	0	7.969133864118339E+002	2.3322357E-001	-2.7038031E+002
3	0	7.974133863992029E+002	2.3307626E-001	-2.7038031E+002
3	0	7.979133863865718E+002	2.3291664E-001	-2.7039093E+002
3	0	7.984133863739407E+002	2.3274642E-001	-2.7039093E+002
3	0	7.989133863613097E+002	2.3255743E-001	-2.7039447E+002
3	0	7.994133863486786E+002	2.3241031E-001	-2.7037677E+002
3	0	7.999133863360476E+002	2.3227735E-001	-2.7035205E+002
3	0	8.004133863234165E+002	2.3214169E-001	-2.7038385E+002
3	0	8.009133863107854E+002	2.3200497E-001	-2.7038742E+002
3	0	8.014133862981544E+002	2.3184314E-001	-2.7039093E+002
3	0	8.019133862855233E+002	2.3169327E-001	-2.7037326E+002
3	0	8.024133862728922E+002	2.3155643E-001	-2.7038031E+002
3	0	8.029133862602612E+002	2.3140506E-001	-2.7037326E+002
3	0	8.034133862476301E+002	2.3128235E-001	-2.7035205E+002
3	0	8.039133862349991E+002	2.3117240E-001	-2.7037677E+002
3	0	8.044133862223680E+002	2.3105097E-001	-2.7037677E+002
3	0	8.049133862097369E+002	2.3092692E-001	-2.7036972E+002
3	0	8.054133861971059E+002	2.3080568E-001	-2.7038385E+002
3	0	8.059133861844748E+002	2.3067699E-001	-2.7038742E+002
3	0	8.064133861718437E+002	2.3052441E-001	-2.7039093E+002
3	0	8.069133861592127E+002	2.3035859E-001	-2.7039093E+002
3	0	8.074133861465816E+002	2.3023301E-001	-2.7039093E+002
3	0	8.079133861339506E+002	2.3012716E-001	-2.7036972E+002
3	0	8.084133861213195E+002	2.3001996E-001	-2.7036618E+002
3	0	8.089133861086884E+002	2.2989684E-001	-2.7036267E+002
3	0	8.094133860960574E+002	2.2977665E-001	-2.7036618E+002
3	0	8.099133860834263E+002	2.2965243E-001	-2.7036267E+002
3	0	8.104133860707952E+002	2.2950411E-001	-2.7035205E+002
3	0	8.109133860581642E+002	2.2934368E-001	-2.7040506E+002
3	0	8.114133860455331E+002	2.2922057E-001	-2.7038385E+002
3	0	8.119133860329021E+002	2.2912572E-001	-2.7038742E+002
3	0	8.124133860202710E+002	2.2902225E-001	-2.7039801E+002
3	0	8.129133860076399E+002	2.2891340E-001	-2.7036972E+002
3	0	8.134133859950089E+002	2.2880584E-001	-2.7036618E+002
3	0	8.139133859823778E+002	2.2868139E-001	-2.7039801E+002
3	0	8.144133859697467E+002	2.2853878E-001	-2.7036267E+002
3	0	8.149133859571157E+002	2.2838345E-001	-2.7038742E+002
3	0	8.154133859444846E+002	2.2826974E-001	-2.7036618E+002
3	0	8.159133859318536E+002	2.2817780E-001	-2.7038385E+002
3	0	8.164133859192225E+002	2.2807531E-001	-2.7037326E+002
3	0	8.169133859065914E+002	2.2796923E-001	-2.7035913E+002
3	0	8.174133858939604E+002	2.2785453E-001	-2.7036618E+002
3	0	8.179133858813293E+002	2.2773726E-001	-2.7038742E+002
3	0	8.184133858686982E+002	2.2759242E-001	-2.7037326E+002
3	0	8.189133858560672E+002	2.2743849E-001	-2.7038742E+002
3	0	8.194133858434361E+002	2.2732669E-001	-2.7037326E+002
3	0	8.199133858308051E+002	2.2722855E-001	-2.7038031E+002
3	0	8.204133858181740E+002	2.2713217E-001	-2.7038742E+002
3	0	8.209133858055429E+002	2.2702771E-001	-2.7037326E+002
3	0	8.214133857929119E+002	2.2692564E-001	-2.7038742E+002
3	0	8.219133857802808E+002	2.2681473E-001	-2.7036618E+002
3	0	8.224133857676497E+002	2.2669169E-001	-2.7036618E+002
3	0	8.229133857550187E+002	2.2654909E-001	-2.7038385E+002
3	0	8.234133857423876E+002	2.2644615E-001	-2.7038742E+002
3	0	8.239133857297566E+002	2.2636439E-001	-2.7035205E+002
3	0	8.244133857171255E+002	2.2628297E-001	-2.7038031E+002
3	0	8.249133857044944E+002	2.2618690E-001	-2.7038742E+002
3	0	8.254133856918634E+002	2.2609125E-001	-2.7036618E+002
3	0	8.259133856792323E+002	2.2599086E-001	-2.7038031E+002
3	0	8.264133856666012E+002	2.2587061E-001	-2.7036972E+002
3	0	8.269133856539702E+002	2.2574024E-001	-2.7037677E+002
3	0	8.274133856413391E+002	2.2564551E-001	-2.7039447E+002
3	0	8.279133856287081E+002	2.2557743E-001	-2.7037677E+002
3	0	8.284133856160770E+002	2.2549418E-001	-2.7037326E+002
3	0	8.289133856034459E+002	2.2541028E-001	-2.7038742E+002
3	0	8.294133855908149E+002	2.2532569E-001	-2.7036972E+002
3	0	8.299133855781838E+002	2.2523062E-001	-2.7036618E+002
3	0	8.304133855655527E+002	2.2511396E-001	-2.7036267E+002
3	0	8.309133855529217E+002	2.2498359E-001	-2.7040860E+002
3	0	8.314133855402906E+002	2.2489977E-001	-2.7038031E+002
3	0	8.319133855276596E+002	2.2482990E-001	-2.7038385E+002
3	0	8.324133855150285E+002	2.2475888E-001	-2.7038742E+002
3	0	8.329133855023974E+002	2.2467975E-001	-2.7038385E+002
3	0	8.334133854897664E+002	2.2459659E-001	-2.7036972E+002
3	0	8.339133854771353E+002	2.2450313E-001	-2.7038385E+002
3	0	8.344133854645042E+002	2.2438978E-001	-2.7038031E+002
3	0	8.349133854518732E+002	2.2426371E-001	-2.7040506E+002
3	0	8.354133854392421E+002	2.2417951E-001	-2.7036267E+002
3	0	8.359133854266111E+002	2.2411227E-001	-2.7036618E+002
3	0	8.364133854139800E+002	2.2403990E-001	-2.7036972E+002
3	0	8.369133854013489E+002	2.2396095E-001	-2.7038031E+002
3	0	8.374133853887179E+002	2.2388309E-001	-2.7036972E+002
3	0	8.379133853760868E+002	2.2379212E-001	-2.7037326E+002
3	0	8.384133853634557E+002	2.2368036E-001	-2.7038031E+002
3	0	8.389133853508247E+002	2.2354808E-001	-2.7038031E+002
3	0	8.394133853381936E+002	2.2346188E-001	-2.7036972E+002
3	0	8.399133853255626E+002	2.2339776E-001	-2.7037677E+002
3	0	8.404133853129315E+002	2.2332594E-001	-2.7038031E+002
3	0	8.409133853003004E+002	2.2324762E-001	-2.7038385E+002
3	0	8.414133852876694E+002	2.2317499E-001	-2.7039093E+002
3	0	8.419133852750383E+002	2.2308886E-001	-2.7038385E+002
3	0	8.424133852624072E+002	2.2298717E-001	-2.7038385E+002
3	0	8.429133852497762E+002	2.2286174E-001	-2.7038385E+002
3	0	8.434133852371451E+002	2.2278434E-001	-2.7037326E+002
3	0	8.439133852245141E+002	2.2272648E-001	-2.7036972E+002
3	0	8.444133852118830E+002	2.2265875E-001	-2.7038385E+002
3	0	8.449133851992519E+002	2.2258827E-001	-2.7036618E+002
3	0	8.454133851866209E+002	2.2251283E-001	-2.7038031E+002
3	0	8.459133851739898E+002	2.2243780E-001	-2.7036267E+002
3	0	8.464133851613587E+002	2.2233699E-001	-2.7038385E+002
3	0	8.469133851487277E+002	2.2222322E-001	-2.7036267E+002
3	0	8.474133851360966E+002	2.2214666E-001	-2.7034143E+002
3	0	8.479133851234656E+002	2.2209713E-001	-2.7037326E+002
3	0	8.484133851108345E+002	2.2203939E-001	-2.7036972E+002
3	0	8.489133850982034E+002	2.2197394E-001	-2.7038031E+002
3	0	8.494133850855724E+002	2.2191097E-001	-2.7039447E+002
3	0	8.499133850729413E+002	2.2183406E-001	-2.7040506E+002
3	0	8.504133850603102E+002	2.2173455E-001	-2.7038385E+002
3	0	8.509133850476792E+002	2.2162123E-001	-2.7037677E+002
3	0	8.514133850350481E+002	2.2154476E-001	-2.7036267E+002
3	0	8.519133850224171E+002	2.2149289E-001	-2.7038385E+002
3	0	8.524133850097860E+002	2.2143787E-001	-2.7038385E+002
3	0	8.529133849971549E+002	2.2136852E-001	-2.7039447E+002
3	0	8.534133849845239E+002	2.2130622E-001	-2.7036618E+002
3	0	8.539133849718928E+002	2.2123744E-001	-2.7038031E+002
3	0	8.544133849592617E+002	2.2113897E-001	-2.7038031E+002
3	0	8.549133849466307E+002	2.2102948E-001	-2.7040506E+002
3	0	8.554133849339996E+002	2.2095504E-001	-2.7038742E+002
3	0	8.559133849213686E+002	2.2090992E-001	-2.7038385E+002
3	0	8.564133849087375E+002	2.2085452E-001	-2.7038385E+002
3	0	8.569133848961064E+002	2.2079027E-001	-2.7038742E+002
3	0	8.574133848834754E+002	2.2072308E-001	-2.7037677E+002
3	0	8.579133848708443E+002	2.2065407E-001	-2.7037677E+002
3	0	8.584133848582132E+002	2.2055797E-001	-2.7038385E+002
3	0	8.589133848455822E+002	2.2044557E-001	-2.7037677E+002
3	0	8.594133848329511E+002	2.2036706E-001	-2.7036972E+002
3	0	8.599133848203201E+002	2.2031930E-001	-2.7037326E+002
3	0	8.604133848076890E+002	2.2026183E-001	-2.7038742E+002
3	0	8.609133847950579E+002	2.2019903E-001	-2.7037326E+002
3	0	8.614133847824269E+002	2.2013655E-001	-2.7039447E+002
3	0	8.619133847697958E+002	2.2006270E-001	-2.7039447E+002
3	0	8.624133847571647E+002	2.1996182E-001	-2.7036972E+002
3	0	8.629133847445337E+002	2.1985306E-001	-2.7039801E+002
3	0	8.634133847319026E+002	2.1978639E-001	-2.7039093E+002
3	0	8.639133847192716E+002	2.1973805E-001	-2.7038742E+002
3	0	8.644133847066405E+002	2.1968065E-001	-2.7036972E+002
3	0	8.649133846940094E+002	2.1962184E-001	-2.7037326E+002
3	0	8.654133846813784E+002	2.1956412E-001	-2.7038742E+002
3	0	8.659133846687473E+002	2.1949528E-001	-2.7037326E+002
3	0	8.664133846561163E+002	2.1940541E-001	-2.7039447E+002
3	0	8.669133846434852E+002	2.1929401E-001	-2.7038031E+002
3	0	8.674133846308541E+002	2.1922804E-001	-2.7039447E+002
3	0	8.679133846182231E+002	2.1917999E-001	-2.7036618E+002
3	0	8.684133846055920E+002	2.1913065E-001	-2.7039093E+002
3	0	8.689133845929609E+002	2.1907194E-001	-2.7036618E+002
3	0	8.694133845803299E+002	2.1901537E-001	-2.7040506E+002
3	0	8.699133845676988E+002	2.1895057E-001	-2.7038742E+002
3	0	8.704133845550678E+002	2.1886314E-001	-2.7039093E+002
3	0	8.709133845424367E+002	2.1876596E-001	-2.7037677E+002
3	0	8.714133845298056E+002	2.1870980E-001	-2.7039093E+002
3	0	8.719133845171746E+002	2.1868451E-001	-2.7036972E+002
3	0	8.724133845045435E+002	2.1865059E-001	-2.7037677E+002
3	0	8.729133844919124E+002	2.1860588E-001	-2.7038742E+002
3	0	8.734133844792814E+002	2.1856324E-001	-2.7038385E+002
3	0	8.739133844666503E+002	2.1850143E-001	-2.7039447E+002
3	0	8.744133844540193E+002	2.1841671E-001	-2.7037677E+002
3	0	8.749133844413882E+002	2.1831806E-001	-2.7039447E+002
3	0	8.754133844287571E+002	2.1826310E-001	-2.7039093E+002
3	0	8.759133844161261E+002	2.1822672E-001	-2.7038385E+002
3	0	8.764133844034950E+002	2.1817856E-001	-2.7039447E+002
3	0	8.769133843908639E+002	2.1813612E-001	-2.7036972E+002
3	0	8.774133843782329E+002	2.1808429E-001	-2.7040155E+002
3	0	8.779133843656018E+002	2.1802028E-001	-2.7038031E+002
3	0	8.784133843529708E+002	2.1793449E-001	-2.7037326E+002
3	0	8.789133843403397E+002	2.1783055E-001	-2.7038031E+002
3	0	8.794133843277086E+002	2.1776986E-001	-2.7039093E+002
3	0	8.799133843150776E+002	2.1772955E-001	-2.7036972E+002
3	0	8.804133843024465E+002	2.1768072E-001	-2.7035913E+002
3	0	8.809133842898154E+002	2.1763036E-001	-2.7035913E+002
3	0	8.814133842771844E+002	2.1757609E-001	-2.7038385E+002
3	0	8.819133842645533E+002	2.1751502E-001	-2.7038385E+002
3	0	8.824133842519223E+002	2.1742943E-001	-2.7037326E+002
3	0	8.829133842392912E+002	2.1732685E-001	-2.7035205E+002
3	0	8.834133842266601E+002	2.1727271E-001	-2.7038031E+002
3	0	8.839133842140291E+002	2.1723844E-001	-2.7037677E+002
3	0	8.844133842013980E+002	2.1719737E-001	-2.7036972E+002
3	0	8.849133841887669E+002	2.1714969E-001	-2.7037326E+002
3	0	8.854133841761359E+002	2.1710432E-001	-2.7037677E+002
3	0	8.859133841635048E+002	2.1704672E-001	-2.7038742E+002
3	0	8.864133841508738E+002	2.1696118E-001	-2.7040155E+002
3	0	8.869133841382427E+002	2.1686366E-001	-2.7034851E+002
3	0	8.874133841256116E+002	2.1681127E-001	-2.7037677E+002
3	0	8.879133841129806E+002	2.1677709E-001	-2.7039801E+002
3	0	8.884133841003495E+002	2.1673368E-001	-2.7038031E+002
3	0	8.889133840877184E+002	2.1669169E-001	-2.7035913E+002
3	0	8.894133840750874E+002	2.1664742E-001	-2.7039093E+002
3	0	8.899133840624563E+002	2.1659131E-001	-2.7039093E+002
3	0	8.904133840498253E+002	2.1650955E-001	-2.7036972E+002
3	0	8.909133840371942E+002	2.1641114E-001	-2.7038031E+002
3	0	8.914133840245631E+002	2.1635199E-001	-2.7041568E+002
3	0	8.919133840119321E+002	2.1631603E-001	-2.7037677E+002
3	0	8.924133839993010E+002	2.1627247E-001	-2.7036972E+002
3	0	8.929133839866699E+002	2.1622597E-001	-2.7037326E+002
3	0	8.934133839740389E+002	2.1618026E-001	-2.7036972E+002
3	0	8.939133839614078E+002	2.1612792E-001	-2.7037326E+002
3	0	8.944133839487768E+002	2.1604747E-001	-2.7039447E+002
3	0	8.949133839361457E+002	2.1595687E-001	-2.7038031E+002
3	0	8.954133839235146E+002	2.1590394E-001	-2.7036618E+002
3	0	8.959133839108836E+002	2.1587418E-001	-2.7037677E+002
3	0	8.964133838982525E+002	2.1583854E-001	-2.7038742E+002
3	0	8.969133838856214E+002	2.1579765E-001	-2.7039093E+002
3	0	8.974133838729904E+002	2.1575463E-001	-2.7040860E+002
3	0	8.979133838603593E+002	2.1570197E-001	-2.7040155E+002
3	0	8.984133838477283E+002	2.1561879E-001	-2.7037677E+002
3	0	8.989133838350972E+002	2.1551917E-001	-2.7038031E+002
3	0	8.994133838224661E+002	2.1546027E-001	-2.7038742E+002
3	0	8.999133838098351E+002	2.1542281E-001	-2.7037677E+002
3	0	8.999367838092439E+002	2.1540809E-001	-2.7037326E+002