EC-Lab ASCII FILE
Nb header lines : 55                          

Open Circuit Voltage

Run on channel : 1 (SN 81504)
User : 
CE vs. WE compliance from -10 V to 10 V
Electrode connection : standard
Potential control : Ewe
Ewe ctrl range : min = -2.50 V, max = 2.50 V
Safety Limits :
	Do not start on E overload
Acquisition started on : 05/08/2026 01:25:27.042
Loaded Setting File :  C:\PEM-WE_measurements\2026\372_IV_IV IrOx, 5 min Pt, 30 min C, etched cathode\new station\Loopeis new\1,46 V different time gaps open cell\Loopeis 1,46V_180s_5_PEIS from 65Hz to 10Hz.mps
Saved on :
	File : L_30_Loopeis 1,46V_180s_5_PEIS from 65Hz to 10Hz_18_OCV_C01.mpr
	Directory : C:\PEM-WE_measurements\2026\372_IV_IV IrOx, 5 min Pt, 30 min C, etched cathode\new station\Loopeis new\1,46 V different time gaps open cell\
	Host : 192.168.0.2
Device : SP-150e (SN .005491)
Address : 192.168.0.91
EC-LAB for windows v11.71 (software)
Internet server v28.00 (firmware)
Command interpretor v14.01 (firmware)
Electrode material : 
Initial state : 
Electrolyte : 
Comments : 
Current amplifier : SP-150eB-20A
Electrode surface area : 0.001 cm²
Characteristic mass : 0.001 g
Equivalent Weight : 0.000 g/eq.
Density : 0.000 g/cm3
Volume (V) : 0.001 cm³
Record Analogic IN 1
Text export
   Mode : Standard
   Time format : Elapsed
Cycle Definition : Charge/Discharge alternance
External device configuration :
   device type : Temperature Probe
   device name : Other
   Analog IN 1 : 
      unit : T/Â°C
      max : 100.000 at 2.000 V
      min : 0.000 at 1.460 V
tR (h:m:s)          0:03:0.0000         
dER/dt (mV/h)       1.0                 
record              <Ewe>               
dER (mV)            10.00               
dtR (s)             0.5000              
E range min (V)     -2.500              
E range max (V)     2.500               

mode	error	time/s	<Ewe/V>	Analog IN 1/V	
3	0	1.861330967226895E+003	1.2198085E+000	-2.7035205E+002
3	0	1.861830967214264E+003	1.1690887E+000	-2.7038385E+002
3	0	1.862330967201633E+003	7.9954195E-001	-2.7039093E+002
3	0	1.862830967189002E+003	4.1915217E-001	-2.7037677E+002
3	0	1.863330967176371E+003	3.4557319E-001	-2.7037677E+002
3	0	1.863830967163740E+003	3.3373603E-001	-2.7038385E+002
3	0	1.864330967151109E+003	3.2587120E-001	-2.7038385E+002
3	0	1.864830967138478E+003	3.1970477E-001	-2.7036618E+002
3	0	1.865330967125847E+003	3.1500578E-001	-2.7038385E+002
3	0	1.865830967113216E+003	3.1137943E-001	-2.7040506E+002
3	0	1.866330967100585E+003	3.0850229E-001	-2.7038385E+002
3	0	1.866830967087953E+003	3.0618384E-001	-2.7036972E+002
3	0	1.867330967075322E+003	3.0427220E-001	-2.7036972E+002
3	0	1.867830967062691E+003	3.0264866E-001	-2.7036972E+002
3	0	1.868330967050060E+003	3.0123019E-001	-2.7038742E+002
3	0	1.868830967037429E+003	2.9998550E-001	-2.7038031E+002
3	0	1.869330967024798E+003	2.9886115E-001	-2.7036972E+002
3	0	1.869830967012167E+003	2.9782405E-001	-2.7036972E+002
3	0	1.870330966999536E+003	2.9684767E-001	-2.7040155E+002
3	0	1.870830966986905E+003	2.9595405E-001	-2.7038742E+002
3	0	1.871330966974274E+003	2.9514587E-001	-2.7035913E+002
3	0	1.871830966961643E+003	2.9437810E-001	-2.7038031E+002
3	0	1.872330966949012E+003	2.9365110E-001	-2.7038385E+002
3	0	1.872830966936381E+003	2.9294938E-001	-2.7038742E+002
3	0	1.873330966923750E+003	2.9226533E-001	-2.7040155E+002
3	0	1.873830966911119E+003	2.9158944E-001	-2.7038031E+002
3	0	1.874330966898488E+003	2.9090905E-001	-2.7039093E+002
3	0	1.874830966885856E+003	2.9026851E-001	-2.7038031E+002
3	0	1.875330966873225E+003	2.8966659E-001	-2.7035559E+002
3	0	1.875830966860594E+003	2.8908226E-001	-2.7037326E+002
3	0	1.876330966847963E+003	2.8851062E-001	-2.7038031E+002
3	0	1.876830966835332E+003	2.8794250E-001	-2.7035559E+002
3	0	1.877330966822701E+003	2.8737548E-001	-2.7036267E+002
3	0	1.877830966810070E+003	2.8679830E-001	-2.7037326E+002
3	0	1.878330966797439E+003	2.8620812E-001	-2.7037326E+002
3	0	1.878830966784808E+003	2.8566027E-001	-2.7036618E+002
3	0	1.879330966772177E+003	2.8513327E-001	-2.7039801E+002
3	0	1.879830966759546E+003	2.8460950E-001	-2.7037326E+002
3	0	1.880330966746915E+003	2.8409502E-001	-2.7038385E+002
3	0	1.880830966734284E+003	2.8358385E-001	-2.7038742E+002
3	0	1.881330966721653E+003	2.8308040E-001	-2.7038742E+002
3	0	1.881830966709022E+003	2.8255990E-001	-2.7039093E+002
3	0	1.882330966696391E+003	2.8203380E-001	-2.7038031E+002
3	0	1.882830966683759E+003	2.8153661E-001	-2.7036972E+002
3	0	1.883330966671128E+003	2.8106025E-001	-2.7036972E+002
3	0	1.883830966658497E+003	2.8058964E-001	-2.7036618E+002
3	0	1.884330966645866E+003	2.8011742E-001	-2.7036618E+002
3	0	1.884830966633235E+003	2.7966106E-001	-2.7037326E+002
3	0	1.885330966620604E+003	2.7919662E-001	-2.7038031E+002
3	0	1.885830966607973E+003	2.7872270E-001	-2.7041214E+002
3	0	1.886330966595342E+003	2.7823049E-001	-2.7038385E+002
3	0	1.886830966582711E+003	2.7776995E-001	-2.7035913E+002
3	0	1.887330966570080E+003	2.7733445E-001	-2.7035205E+002
3	0	1.887830966557449E+003	2.7689868E-001	-2.7037326E+002
3	0	1.888330966544818E+003	2.7646378E-001	-2.7037326E+002
3	0	1.888830966532187E+003	2.7604103E-001	-2.7037677E+002
3	0	1.889330966519556E+003	2.7561596E-001	-2.7037677E+002
3	0	1.889830966506925E+003	2.7516782E-001	-2.7037677E+002
3	0	1.890330966494294E+003	2.7471823E-001	-2.7036267E+002
3	0	1.890830966481662E+003	2.7429801E-001	-2.7034497E+002
3	0	1.891330966469031E+003	2.7389887E-001	-2.7040155E+002
3	0	1.891830966456400E+003	2.7350199E-001	-2.7039801E+002
3	0	1.892330966443769E+003	2.7310440E-001	-2.7038385E+002
3	0	1.892830966431138E+003	2.7270582E-001	-2.7037326E+002
3	0	1.893330966418507E+003	2.7231470E-001	-2.7035913E+002
3	0	1.893830966405876E+003	2.7190930E-001	-2.7039447E+002
3	0	1.894330966393245E+003	2.7148801E-001	-2.7038385E+002
3	0	1.894830966380614E+003	2.7110362E-001	-2.7037677E+002
3	0	1.895330966367983E+003	2.7073973E-001	-2.7036972E+002
3	0	1.895830966355352E+003	2.7036488E-001	-2.7038031E+002
3	0	1.896330966342721E+003	2.6999193E-001	-2.7038742E+002
3	0	1.896830966330090E+003	2.6964024E-001	-2.7036972E+002
3	0	1.897330966317459E+003	2.6927698E-001	-2.7037326E+002
3	0	1.897830966304828E+003	2.6889795E-001	-2.7035559E+002
3	0	1.898330966292197E+003	2.6851183E-001	-2.7036267E+002
3	0	1.898830966279565E+003	2.6815802E-001	-2.7038385E+002
3	0	1.899330966266934E+003	2.6782507E-001	-2.7038031E+002
3	0	1.899830966254303E+003	2.6748350E-001	-2.7037677E+002
3	0	1.900330966241672E+003	2.6714662E-001	-2.7039447E+002
3	0	1.900830966229041E+003	2.6681441E-001	-2.7038031E+002
3	0	1.901330966216410E+003	2.6647857E-001	-2.7039093E+002
3	0	1.901830966203779E+003	2.6612476E-001	-2.7037677E+002
3	0	1.902330966191148E+003	2.6576552E-001	-2.7036972E+002
3	0	1.902830966178517E+003	2.6543945E-001	-2.7035559E+002
3	0	1.903330966165886E+003	2.6512891E-001	-2.7038385E+002
3	0	1.903830966153255E+003	2.6481545E-001	-2.7039801E+002
3	0	1.904330966140624E+003	2.6450580E-001	-2.7037326E+002
3	0	1.904830966127993E+003	2.6419845E-001	-2.7036267E+002
3	0	1.905330966115362E+003	2.6389083E-001	-2.7034851E+002
3	0	1.905830966102731E+003	2.6356852E-001	-2.7035913E+002
3	0	1.906330966090100E+003	2.6323336E-001	-2.7037326E+002
3	0	1.906830966077468E+003	2.6293451E-001	-2.7037677E+002
3	0	1.907330966064837E+003	2.6265115E-001	-2.7036267E+002
3	0	1.907830966052206E+003	2.6236781E-001	-2.7038742E+002
3	0	1.908330966039575E+003	2.6208022E-001	-2.7041568E+002
3	0	1.908830966026944E+003	2.6180133E-001	-2.7038742E+002
3	0	1.909330966014313E+003	2.6151952E-001	-2.7039447E+002
3	0	1.909830966001682E+003	2.6121894E-001	-2.7038742E+002
3	0	1.910330965989051E+003	2.6091364E-001	-2.7038742E+002
3	0	1.910830965976420E+003	2.6063290E-001	-2.7038742E+002
3	0	1.911330965963789E+003	2.6037890E-001	-2.7039447E+002
3	0	1.911830965951158E+003	2.6011747E-001	-2.7036972E+002
3	0	1.912330965938527E+003	2.5986454E-001	-2.7037677E+002
3	0	1.912830965925896E+003	2.5961709E-001	-2.7038742E+002
3	0	1.913330965913265E+003	2.5936553E-001	-2.7037677E+002
3	0	1.913830965900634E+003	2.5909048E-001	-2.7037677E+002
3	0	1.914330965888003E+003	2.5880027E-001	-2.7039093E+002
3	0	1.914830965875371E+003	2.5854883E-001	-2.7039093E+002
3	0	1.915330965862740E+003	2.5831532E-001	-2.7038385E+002
3	0	1.915830965850109E+003	2.5807366E-001	-2.7038031E+002
3	0	1.916330965837478E+003	2.5784037E-001	-2.7039093E+002
3	0	1.916830965824847E+003	2.5761086E-001	-2.7039801E+002
3	0	1.917330965812216E+003	2.5737318E-001	-2.7036972E+002
3	0	1.917830965799585E+003	2.5712454E-001	-2.7035559E+002
3	0	1.918330965786954E+003	2.5685668E-001	-2.7038385E+002
3	0	1.918830965774323E+003	2.5662795E-001	-2.7036972E+002
3	0	1.919330965761692E+003	2.5641581E-001	-2.7037677E+002
3	0	1.919830965749061E+003	2.5619751E-001	-2.7037326E+002
3	0	1.920330965736430E+003	2.5598720E-001	-2.7039447E+002
3	0	1.920830965723799E+003	2.5577021E-001	-2.7040860E+002
3	0	1.921330965711168E+003	2.5555739E-001	-2.7037677E+002
3	0	1.921830965698537E+003	2.5532520E-001	-2.7037326E+002
3	0	1.922330965685906E+003	2.5507888E-001	-2.7040860E+002
3	0	1.922830965673274E+003	2.5487220E-001	-2.7038742E+002
3	0	1.923330965660643E+003	2.5467643E-001	-2.7040155E+002
3	0	1.923830965648012E+003	2.5447792E-001	-2.7037326E+002
3	0	1.924330965635381E+003	2.5428116E-001	-2.7037677E+002
3	0	1.924830965622750E+003	2.5408867E-001	-2.7038385E+002
3	0	1.925330965610119E+003	2.5388467E-001	-2.7036267E+002
3	0	1.925830965597488E+003	2.5366837E-001	-2.7034851E+002
3	0	1.926330965584857E+003	2.5343093E-001	-2.7039801E+002
3	0	1.926830965572226E+003	2.5322983E-001	-2.7036972E+002
3	0	1.927330965559595E+003	2.5305164E-001	-2.7037326E+002
3	0	1.927830965546964E+003	2.5286481E-001	-2.7037677E+002
3	0	1.928330965534333E+003	2.5268456E-001	-2.7038742E+002
3	0	1.928830965521702E+003	2.5250077E-001	-2.7039093E+002
3	0	1.929330965509071E+003	2.5232288E-001	-2.7038031E+002
3	0	1.929830965496440E+003	2.5212061E-001	-2.7036972E+002
3	0	1.930330965483809E+003	2.5189936E-001	-2.7040860E+002
3	0	1.930830965471177E+003	2.5172240E-001	-2.7039801E+002
3	0	1.931330965458546E+003	2.5156012E-001	-2.7039447E+002
3	0	1.931830965445915E+003	2.5138974E-001	-2.7038742E+002
3	0	1.932330965433284E+003	2.5122359E-001	-2.7037677E+002
3	0	1.932830965420653E+003	2.5105762E-001	-2.7039093E+002
3	0	1.933330965408022E+003	2.5088397E-001	-2.7038742E+002
3	0	1.933830965395391E+003	2.5069585E-001	-2.7038742E+002
3	0	1.934330965382760E+003	2.5049365E-001	-2.7039447E+002
3	0	1.934830965370129E+003	2.5032753E-001	-2.7036972E+002
3	0	1.935330965357498E+003	2.5017589E-001	-2.7038385E+002
3	0	1.935830965344867E+003	2.5002170E-001	-2.7035913E+002
3	0	1.936330965332236E+003	2.4987230E-001	-2.7037326E+002
3	0	1.936830965319605E+003	2.4972296E-001	-2.7037677E+002
3	0	1.937330965306974E+003	2.4956998E-001	-2.7038031E+002
3	0	1.937830965294343E+003	2.4939212E-001	-2.7039093E+002
3	0	1.938330965281712E+003	2.4920504E-001	-2.7035559E+002
3	0	1.938830965269080E+003	2.4904913E-001	-2.7038031E+002
3	0	1.939330965256449E+003	2.4891260E-001	-2.7037677E+002
3	0	1.939830965243818E+003	2.4876651E-001	-2.7038742E+002
3	0	1.940330965231187E+003	2.4863099E-001	-2.7034497E+002
3	0	1.940830965218556E+003	2.4848834E-001	-2.7038742E+002
3	0	1.941330965205925E+003	2.4834457E-001	-2.7036972E+002
3	0	1.941830965193294E+003	2.4817701E-001	-2.7036618E+002
3	0	1.942330965180663E+003	2.4799649E-001	-2.7037677E+002
3	0	1.942830965168032E+003	2.4785441E-001	-2.7036618E+002
3	0	1.943330965155401E+003	2.4772421E-001	-2.7037677E+002
3	0	1.943830965142770E+003	2.4758409E-001	-2.7038385E+002
3	0	1.944330965130139E+003	2.4745241E-001	-2.7036972E+002
3	0	1.944830965117508E+003	2.4731542E-001	-2.7036972E+002
3	0	1.945330965104877E+003	2.4717581E-001	-2.7039447E+002
3	0	1.945830965092246E+003	2.4700946E-001	-2.7040155E+002
3	0	1.946330965079615E+003	2.4683453E-001	-2.7040155E+002
3	0	1.946830965066983E+003	2.4669372E-001	-2.7036618E+002
3	0	1.947330965054352E+003	2.4657533E-001	-2.7036267E+002
3	0	1.947830965041721E+003	2.4644439E-001	-2.7039447E+002
3	0	1.948330965029090E+003	2.4632157E-001	-2.7038385E+002
3	0	1.948830965016459E+003	2.4619874E-001	-2.7039801E+002
3	0	1.949330965003828E+003	2.4606715E-001	-2.7038385E+002
3	0	1.949830964991197E+003	2.4591537E-001	-2.7038385E+002
3	0	1.950330964978566E+003	2.4574757E-001	-2.7039093E+002
3	0	1.950830964965935E+003	2.4562179E-001	-2.7038742E+002
3	0	1.951330964953304E+003	2.4551146E-001	-2.7036267E+002
3	0	1.951830964940673E+003	2.4539232E-001	-2.7036267E+002
3	0	1.952330964928042E+003	2.4528417E-001	-2.7036618E+002
3	0	1.952830964915411E+003	2.4516636E-001	-2.7038385E+002
3	0	1.953330964902780E+003	2.4504618E-001	-2.7039801E+002
3	0	1.953830964890149E+003	2.4490164E-001	-2.7037677E+002
3	0	1.954330964877518E+003	2.4474376E-001	-2.7035913E+002
3	0	1.954830964864886E+003	2.4462150E-001	-2.7038742E+002
3	0	1.955330964852255E+003	2.4451841E-001	-2.7035913E+002
3	0	1.955830964839624E+003	2.4441332E-001	-2.7038031E+002
3	0	1.956330964826993E+003	2.4431063E-001	-2.7038031E+002
3	0	1.956830964814362E+003	2.4420431E-001	-2.7038385E+002
3	0	1.957330964801731E+003	2.4409056E-001	-2.7039801E+002
3	0	1.957830964789100E+003	2.4395797E-001	-2.7035913E+002
3	0	1.958330964776469E+003	2.4380656E-001	-2.7039447E+002
3	0	1.958830964763838E+003	2.4369168E-001	-2.7036972E+002
3	0	1.959330964751207E+003	2.4359351E-001	-2.7038031E+002
3	0	1.959830964738576E+003	2.4349310E-001	-2.7038385E+002
3	0	1.960330964725945E+003	2.4339871E-001	-2.7038031E+002
3	0	1.960830964713314E+003	2.4329762E-001	-2.7038385E+002
3	0	1.961330964700683E+003	2.4319008E-001	-2.7039447E+002
3	0	1.961830964688052E+003	2.4306515E-001	-2.7037677E+002
3	0	1.962330964675421E+003	2.4292056E-001	-2.7037326E+002
3	0	1.962830964662789E+003	2.4281359E-001	-2.7039093E+002
3	0	1.963330964650158E+003	2.4272242E-001	-2.7035913E+002
3	0	1.963830964637527E+003	2.4262793E-001	-2.7039093E+002
3	0	1.964330964624896E+003	2.4252494E-001	-2.7038385E+002
3	0	1.964830964612265E+003	2.4242906E-001	-2.7038742E+002
3	0	1.965330964599634E+003	2.4232823E-001	-2.7038031E+002
3	0	1.965830964587003E+003	2.4220614E-001	-2.7038385E+002
3	0	1.966330964574372E+003	2.4206898E-001	-2.7036618E+002
3	0	1.966830964561741E+003	2.4196628E-001	-2.7036972E+002
3	0	1.967330964549110E+003	2.4187726E-001	-2.7038031E+002
3	0	1.967830964536479E+003	2.4178751E-001	-2.7038385E+002
3	0	1.968330964523848E+003	2.4170062E-001	-2.7039093E+002
3	0	1.968830964511217E+003	2.4160953E-001	-2.7038031E+002
3	0	1.969330964498586E+003	2.4151227E-001	-2.7036972E+002
3	0	1.969830964485955E+003	2.4140340E-001	-2.7034851E+002
3	0	1.970330964473324E+003	2.4126384E-001	-2.7035913E+002
3	0	1.970830964460692E+003	2.4116312E-001	-2.7037326E+002
3	0	1.971330964448061E+003	2.4108675E-001	-2.7039093E+002
3	0	1.971830964435430E+003	2.4100360E-001	-2.7036972E+002
3	0	1.972330964422799E+003	2.4092059E-001	-2.7039093E+002
3	0	1.972830964410168E+003	2.4083883E-001	-2.7038385E+002
3	0	1.973330964397537E+003	2.4075077E-001	-2.7038385E+002
3	0	1.973830964384906E+003	2.4064018E-001	-2.7036618E+002
3	0	1.974330964372275E+003	2.4051264E-001	-2.7037326E+002
3	0	1.974830964359644E+003	2.4041544E-001	-2.7036267E+002
3	0	1.975330964347013E+003	2.4033669E-001	-2.7038385E+002
3	0	1.975830964334382E+003	2.4025731E-001	-2.7038385E+002
3	0	1.976330964321751E+003	2.4017765E-001	-2.7036618E+002
3	0	1.976830964309120E+003	2.4010292E-001	-2.7038385E+002
3	0	1.977330964296489E+003	2.4001607E-001	-2.7035913E+002
3	0	1.977830964283858E+003	2.3990922E-001	-2.7039447E+002
3	0	1.978330964271227E+003	2.3978199E-001	-2.7039801E+002
3	0	1.978830964258595E+003	2.3969360E-001	-2.7036618E+002
3	0	1.979330964245964E+003	2.3962472E-001	-2.7039093E+002
3	0	1.979830964233333E+003	2.3955035E-001	-2.7038742E+002
3	0	1.980330964220702E+003	2.3947816E-001	-2.7035205E+002
3	0	1.980830964208071E+003	2.3939766E-001	-2.7041214E+002
3	0	1.981330964195440E+003	2.3931322E-001	-2.7035913E+002
3	0	1.981830964182809E+003	2.3921075E-001	-2.7038031E+002
3	0	1.982330964170178E+003	2.3909239E-001	-2.7036972E+002
3	0	1.982830964157547E+003	2.3900621E-001	-2.7037677E+002
3	0	1.983330964144916E+003	2.3893912E-001	-2.7040155E+002
3	0	1.983830964132285E+003	2.3886420E-001	-2.7036972E+002
3	0	1.984330964119654E+003	2.3878914E-001	-2.7037677E+002
3	0	1.984830964107023E+003	2.3871961E-001	-2.7038031E+002
3	0	1.985330964094392E+003	2.3863743E-001	-2.7036972E+002
3	0	1.985830964081761E+003	2.3853049E-001	-2.7039093E+002
3	0	1.986330964069130E+003	2.3840930E-001	-2.7038742E+002
3	0	1.986830964056498E+003	2.3831807E-001	-2.7038742E+002
3	0	1.987330964043867E+003	2.3824754E-001	-2.7036972E+002
3	0	1.987830964031236E+003	2.3817292E-001	-2.7036267E+002
3	0	1.988330964018605E+003	2.3810211E-001	-2.7036972E+002
3	0	1.988830964005974E+003	2.3802647E-001	-2.7036267E+002
3	0	1.989330963993343E+003	2.3794645E-001	-2.7037677E+002
3	0	1.989830963980712E+003	2.3785241E-001	-2.7038742E+002
3	0	1.990330963968081E+003	2.3773533E-001	-2.7037326E+002
3	0	1.990830963955450E+003	2.3765188E-001	-2.7037677E+002
3	0	1.991330963942819E+003	2.3758754E-001	-2.7036618E+002
3	0	1.991830963930188E+003	2.3751856E-001	-2.7039447E+002
3	0	1.992330963917557E+003	2.3745461E-001	-2.7039093E+002
3	0	1.992830963904926E+003	2.3739174E-001	-2.7037677E+002
3	0	1.993330963892295E+003	2.3731342E-001	-2.7036972E+002
3	0	1.993830963879664E+003	2.3722269E-001	-2.7038742E+002
3	0	1.994330963867033E+003	2.3711534E-001	-2.7038742E+002
3	0	1.994830963854401E+003	2.3703796E-001	-2.7037326E+002
3	0	1.995330963841770E+003	2.3698129E-001	-2.7036267E+002
3	0	1.995830963829139E+003	2.3691715E-001	-2.7037326E+002
3	0	1.996330963816508E+003	2.3685667E-001	-2.7038742E+002
3	0	1.996830963803877E+003	2.3679620E-001	-2.7038385E+002
3	0	1.997330963791246E+003	2.3672867E-001	-2.7038385E+002
3	0	1.997830963778615E+003	2.3664276E-001	-2.7038031E+002
3	0	1.998330963765984E+003	2.3653106E-001	-2.7037677E+002
3	0	1.998830963753353E+003	2.3645833E-001	-2.7039447E+002
3	0	1.999330963740722E+003	2.3640276E-001	-2.7038742E+002
3	0	1.999830963728091E+003	2.3633829E-001	-2.7039093E+002
3	0	2.000330963715460E+003	2.3628150E-001	-2.7039093E+002
3	0	2.000830963702829E+003	2.3622088E-001	-2.7038742E+002
3	0	2.001330963690198E+003	2.3615709E-001	-2.7037677E+002
3	0	2.001830963677567E+003	2.3607166E-001	-2.7037677E+002
3	0	2.002330963664936E+003	2.3596625E-001	-2.7038742E+002
3	0	2.002830963652304E+003	2.3589708E-001	-2.7039447E+002
3	0	2.003330963639673E+003	2.3584437E-001	-2.7038385E+002
3	0	2.003830963627042E+003	2.3578544E-001	-2.7039447E+002
3	0	2.004330963614411E+003	2.3573042E-001	-2.7038031E+002
3	0	2.004830963601780E+003	2.3566960E-001	-2.7036618E+002
3	0	2.005330963589149E+003	2.3560272E-001	-2.7038031E+002
3	0	2.005830963576518E+003	2.3551714E-001	-2.7037677E+002
3	0	2.006330963563887E+003	2.3541074E-001	-2.7039093E+002
3	0	2.006830963551256E+003	2.3533937E-001	-2.7039447E+002
3	0	2.007330963538625E+003	2.3528749E-001	-2.7038385E+002
3	0	2.007830963525994E+003	2.3522748E-001	-2.7037677E+002
3	0	2.008330963513363E+003	2.3517172E-001	-2.7037677E+002
3	0	2.008830963500732E+003	2.3508707E-001	-2.7039447E+002
3	0	2.009330963488101E+003	2.3500392E-001	-2.7036618E+002
3	0	2.009830963475470E+003	2.3493260E-001	-2.7038031E+002
3	0	2.010330963462839E+003	2.3484698E-001	-2.7036618E+002
3	0	2.010830963450207E+003	2.3479010E-001	-2.7038742E+002
3	0	2.011330963437576E+003	2.3474900E-001	-2.7038742E+002
3	0	2.011830963424945E+003	2.3470539E-001	-2.7038742E+002
3	0	2.012330963412314E+003	2.3465174E-001	-2.7036972E+002
3	0	2.012830963399683E+003	2.3460115E-001	-2.7039801E+002
3	0	2.013330963387052E+003	2.3454104E-001	-2.7035559E+002
3	0	2.013830963374421E+003	2.3445675E-001	-2.7038742E+002
3	0	2.014330963361790E+003	2.3435105E-001	-2.7037677E+002
3	0	2.014830963349159E+003	2.3428340E-001	-2.7038031E+002
3	0	2.015330963336528E+003	2.3424181E-001	-2.7038742E+002
3	0	2.015830963323897E+003	2.3419340E-001	-2.7036618E+002
3	0	2.016330963311266E+003	2.3414254E-001	-2.7036972E+002
3	0	2.016830963298635E+003	2.3408829E-001	-2.7037677E+002
3	0	2.017330963286004E+003	2.3402981E-001	-2.7039801E+002
3	0	2.017830963273373E+003	2.3394728E-001	-2.7038031E+002
3	0	2.018330963260742E+003	2.3384403E-001	-2.7038031E+002
3	0	2.018830963248110E+003	2.3377018E-001	-2.7039447E+002
3	0	2.019330963235479E+003	2.3373190E-001	-2.7037326E+002
3	0	2.019830963222848E+003	2.3369013E-001	-2.7038742E+002
3	0	2.020330963210217E+003	2.3363900E-001	-2.7038385E+002
3	0	2.020830963197586E+003	2.3358926E-001	-2.7038031E+002
3	0	2.021330963184955E+003	2.3353051E-001	-2.7038031E+002
3	0	2.021830963172324E+003	2.3344974E-001	-2.7036618E+002
3	0	2.022330963159693E+003	2.3335080E-001	-2.7038031E+002
3	0	2.022830963147062E+003	2.3328626E-001	-2.7037677E+002
3	0	2.023330963134431E+003	2.3325127E-001	-2.7039447E+002
3	0	2.023830963121800E+003	2.3320456E-001	-2.7037326E+002
3	0	2.024330963109169E+003	2.3315014E-001	-2.7037677E+002
3	0	2.024830963096538E+003	2.3310360E-001	-2.7036618E+002
3	0	2.025330963083907E+003	2.3303968E-001	-2.7036267E+002
3	0	2.025830963071276E+003	2.3295744E-001	-2.7035913E+002
3	0	2.026330963058645E+003	2.3285449E-001	-2.7038385E+002
3	0	2.026830963046013E+003	2.3278485E-001	-2.7036972E+002
3	0	2.027330963033382E+003	2.3274314E-001	-2.7036618E+002
3	0	2.027830963020751E+003	2.3269796E-001	-2.7040860E+002
3	0	2.028330963008120E+003	2.3264581E-001	-2.7037677E+002
3	0	2.028830962995489E+003	2.3259306E-001	-2.7037326E+002
3	0	2.029330962982858E+003	2.3252174E-001	-2.7038742E+002
3	0	2.029830962970227E+003	2.3243868E-001	-2.7038742E+002
3	0	2.030330962957596E+003	2.3233680E-001	-2.7036972E+002
3	0	2.030830962944965E+003	2.3226720E-001	-2.7039093E+002
3	0	2.031330962932334E+003	2.3222691E-001	-2.7036267E+002
3	0	2.031830962919703E+003	2.3218441E-001	-2.7035559E+002
3	0	2.032330962907072E+003	2.3212907E-001	-2.7038031E+002
3	0	2.032830962894441E+003	2.3207432E-001	-2.7039093E+002
3	0	2.033330962881810E+003	2.3201795E-001	-2.7037677E+002
3	0	2.033830962869179E+003	2.3193637E-001	-2.7034497E+002
3	0	2.034330962856548E+003	2.3184450E-001	-2.7036618E+002
3	0	2.034830962843917E+003	2.3178463E-001	-2.7037326E+002
3	0	2.035330962831285E+003	2.3174661E-001	-2.7039447E+002
3	0	2.035830962818654E+003	2.3170692E-001	-2.7038385E+002
3	0	2.036330962806023E+003	2.3165560E-001	-2.7035913E+002
3	0	2.036830962793392E+003	2.3161212E-001	-2.7036267E+002
3	0	2.037330962780761E+003	2.3155780E-001	-2.7036618E+002
3	0	2.037830962768130E+003	2.3148346E-001	-2.7038031E+002
3	0	2.038330962755499E+003	2.3138802E-001	-2.7038031E+002
3	0	2.038830962742868E+003	2.3132813E-001	-2.7040860E+002
3	0	2.039330962730237E+003	2.3129798E-001	-2.7035913E+002
3	0	2.039830962717606E+003	2.3125844E-001	-2.7036972E+002
3	0	2.040330962704975E+003	2.3121557E-001	-2.7037326E+002
3	0	2.040830962692344E+003	2.3116556E-001	-2.7037326E+002
3	0	2.040831362692334E+003	2.3112290E-001	-2.7036267E+002