EC-Lab ASCII FILE
Nb header lines : 55                          

Open Circuit Voltage

Run on channel : 1 (SN 81504)
User : 
CE vs. WE compliance from -10 V to 10 V
Electrode connection : standard
Potential control : Ewe
Ewe ctrl range : min = -2.50 V, max = 2.50 V
Safety Limits :
	Do not start on E overload
Acquisition started on : 05/08/2026 01:25:27.042
Loaded Setting File :  C:\PEM-WE_measurements\2026\372_IV_IV IrOx, 5 min Pt, 30 min C, etched cathode\new station\Loopeis new\1,46 V different time gaps open cell\Loopeis 1,46V_180s_5_PEIS from 65Hz to 10Hz.mps
Saved on :
	File : L_30_Loopeis 1,46V_180s_5_PEIS from 65Hz to 10Hz_10_OCV_C01.mpr
	Directory : C:\PEM-WE_measurements\2026\372_IV_IV IrOx, 5 min Pt, 30 min C, etched cathode\new station\Loopeis new\1,46 V different time gaps open cell\
	Host : 192.168.0.2
Device : SP-150e (SN .005491)
Address : 192.168.0.91
EC-LAB for windows v11.71 (software)
Internet server v28.00 (firmware)
Command interpretor v14.01 (firmware)
Electrode material : 
Initial state : 
Electrolyte : 
Comments : 
Current amplifier : SP-150eB-20A
Electrode surface area : 0.001 cm²
Characteristic mass : 0.001 g
Equivalent Weight : 0.000 g/eq.
Density : 0.000 g/cm3
Volume (V) : 0.001 cm³
Record Analogic IN 1
Text export
   Mode : Standard
   Time format : Elapsed
Cycle Definition : Charge/Discharge alternance
External device configuration :
   device type : Temperature Probe
   device name : Other
   Analog IN 1 : 
      unit : T/Â°C
      max : 100.000 at 2.000 V
      min : 0.000 at 1.460 V
tR (h:m:s)          0:03:0.0000         
dER/dt (mV/h)       1.0                 
record              <Ewe>               
dER (mV)            10.00               
dtR (s)             0.5000              
E range min (V)     -2.500              
E range max (V)     2.500               

mode	error	time/s	<Ewe/V>	Analog IN 1/V	
3	0	9.580393832583650E+002	1.2213790E+000	-2.7038742E+002
3	0	9.585393832457339E+002	1.1754031E+000	-2.7036972E+002
3	0	9.590393832331029E+002	8.2919925E-001	-2.7036618E+002
3	0	9.595393832204718E+002	4.2874303E-001	-2.7036972E+002
3	0	9.600393832078407E+002	3.4702730E-001	-2.7040506E+002
3	0	9.605393831952097E+002	3.3453816E-001	-2.7037326E+002
3	0	9.610393831825786E+002	3.2646877E-001	-2.7037677E+002
3	0	9.615393831699475E+002	3.2012907E-001	-2.7037677E+002
3	0	9.620393831573165E+002	3.1531057E-001	-2.7035559E+002
3	0	9.625393831446854E+002	3.1159970E-001	-2.7038742E+002
3	0	9.630393831320544E+002	3.0868167E-001	-2.7038385E+002
3	0	9.635393831194233E+002	3.0634141E-001	-2.7041919E+002
3	0	9.640393831067922E+002	3.0439535E-001	-2.7038742E+002
3	0	9.645393830941612E+002	3.0274415E-001	-2.7036972E+002
3	0	9.650393830815301E+002	3.0131033E-001	-2.7035913E+002
3	0	9.655393830688990E+002	3.0004692E-001	-2.7038385E+002
3	0	9.660393830562680E+002	2.9889506E-001	-2.7038385E+002
3	0	9.665393830436369E+002	2.9784483E-001	-2.7036618E+002
3	0	9.670393830310059E+002	2.9688433E-001	-2.7039801E+002
3	0	9.675393830183748E+002	2.9601774E-001	-2.7039801E+002
3	0	9.680393830057437E+002	2.9520273E-001	-2.7039447E+002
3	0	9.685393829931127E+002	2.9443428E-001	-2.7038031E+002
3	0	9.690393829804816E+002	2.9370788E-001	-2.7039801E+002
3	0	9.695393829678505E+002	2.9299948E-001	-2.7038385E+002
3	0	9.700393829552195E+002	2.9230225E-001	-2.7038385E+002
3	0	9.705393829425884E+002	2.9160419E-001	-2.7038385E+002
3	0	9.710393829299574E+002	2.9094347E-001	-2.7039801E+002
3	0	9.715393829173263E+002	2.9032406E-001	-2.7036267E+002
3	0	9.720393829046952E+002	2.8972375E-001	-2.7037677E+002
3	0	9.725393828920642E+002	2.8913319E-001	-2.7035913E+002
3	0	9.730393828794331E+002	2.8855422E-001	-2.7037677E+002
3	0	9.735393828668020E+002	2.8797954E-001	-2.7036267E+002
3	0	9.740393828541710E+002	2.8739342E-001	-2.7036267E+002
3	0	9.745393828415399E+002	2.8680122E-001	-2.7037677E+002
3	0	9.750393828289089E+002	2.8623724E-001	-2.7036267E+002
3	0	9.755393828162778E+002	2.8570685E-001	-2.7038385E+002
3	0	9.760393828036467E+002	2.8517041E-001	-2.7037677E+002
3	0	9.765393827910157E+002	2.8464454E-001	-2.7038031E+002
3	0	9.770393827783846E+002	2.8412575E-001	-2.7037326E+002
3	0	9.775393827657535E+002	2.8361204E-001	-2.7037326E+002
3	0	9.780393827531225E+002	2.8308091E-001	-2.7038385E+002
3	0	9.785393827404914E+002	2.8254464E-001	-2.7037677E+002
3	0	9.790393827278604E+002	2.8203934E-001	-2.7038031E+002
3	0	9.795393827152293E+002	2.8155607E-001	-2.7037677E+002
3	0	9.800393827025982E+002	2.8107509E-001	-2.7039093E+002
3	0	9.805393826899672E+002	2.8060284E-001	-2.7040506E+002
3	0	9.810393826773361E+002	2.8013876E-001	-2.7037326E+002
3	0	9.815393826647050E+002	2.7967361E-001	-2.7036267E+002
3	0	9.820393826520740E+002	2.7919433E-001	-2.7038031E+002
3	0	9.825393826394429E+002	2.7870888E-001	-2.7038385E+002
3	0	9.830393826268119E+002	2.7824095E-001	-2.7038742E+002
3	0	9.835393826141808E+002	2.7779812E-001	-2.7038742E+002
3	0	9.840393826015497E+002	2.7736124E-001	-2.7036267E+002
3	0	9.845393825889187E+002	2.7692527E-001	-2.7034497E+002
3	0	9.850393825762876E+002	2.7649581E-001	-2.7040155E+002
3	0	9.855393825636565E+002	2.7606753E-001	-2.7037326E+002
3	0	9.860393825510255E+002	2.7562279E-001	-2.7040506E+002
3	0	9.865393825383944E+002	2.7515972E-001	-2.7040860E+002
3	0	9.870393825257634E+002	2.7473044E-001	-2.7039447E+002
3	0	9.875393825131323E+002	2.7433160E-001	-2.7038742E+002
3	0	9.880393825005012E+002	2.7392587E-001	-2.7038031E+002
3	0	9.885393824878702E+002	2.7352399E-001	-2.7037326E+002
3	0	9.890393824752391E+002	2.7312511E-001	-2.7036618E+002
3	0	9.895393824626080E+002	2.7271900E-001	-2.7036972E+002
3	0	9.900393824499770E+002	2.7231741E-001	-2.7039801E+002
3	0	9.905393824373459E+002	2.7189893E-001	-2.7034851E+002
3	0	9.910393824247149E+002	2.7150121E-001	-2.7037326E+002
3	0	9.915393824120838E+002	2.7112702E-001	-2.7035913E+002
3	0	9.920393823994527E+002	2.7075654E-001	-2.7038031E+002
3	0	9.925393823868217E+002	2.7037898E-001	-2.7040506E+002
3	0	9.930393823741906E+002	2.7000570E-001	-2.7035913E+002
3	0	9.935393823615595E+002	2.6964819E-001	-2.7040155E+002
3	0	9.940393823489285E+002	2.6927194E-001	-2.7037326E+002
3	0	9.945393823362974E+002	2.6887631E-001	-2.7040506E+002
3	0	9.950393823236664E+002	2.6851508E-001	-2.7040155E+002
3	0	9.955393823110353E+002	2.6817760E-001	-2.7037677E+002
3	0	9.960393822984042E+002	2.6783040E-001	-2.7040155E+002
3	0	9.965393822857732E+002	2.6748934E-001	-2.7036618E+002
3	0	9.970393822731421E+002	2.6715276E-001	-2.7040860E+002
3	0	9.975393822605110E+002	2.6681450E-001	-2.7038031E+002
3	0	9.980393822478800E+002	2.6645586E-001	-2.7037677E+002
3	0	9.985393822352489E+002	2.6609150E-001	-2.7038031E+002
3	0	9.990393822226179E+002	2.6575553E-001	-2.7039093E+002
3	0	9.995393822099868E+002	2.6544508E-001	-2.7037326E+002
3	0	1.000039382197356E+003	2.6512173E-001	-2.7037326E+002
3	0	1.000539382184725E+003	2.6481438E-001	-2.7038742E+002
3	0	1.001039382172094E+003	2.6450777E-001	-2.7036267E+002
3	0	1.001539382159463E+003	2.6419079E-001	-2.7036972E+002
3	0	1.002039382146831E+003	2.6386997E-001	-2.7038031E+002
3	0	1.002539382134200E+003	2.6353356E-001	-2.7037677E+002
3	0	1.003039382121569E+003	2.6322949E-001	-2.7039093E+002
3	0	1.003539382108938E+003	2.6294419E-001	-2.7037326E+002
3	0	1.004039382096307E+003	2.6265445E-001	-2.7036618E+002
3	0	1.004539382083676E+003	2.6236504E-001	-2.7037326E+002
3	0	1.005039382071045E+003	2.6208279E-001	-2.7036618E+002
3	0	1.005539382058414E+003	2.6180232E-001	-2.7038031E+002
3	0	1.006039382045783E+003	2.6150659E-001	-2.7039447E+002
3	0	1.006539382033152E+003	2.6119751E-001	-2.7037677E+002
3	0	1.007039382020521E+003	2.6091972E-001	-2.7038742E+002
3	0	1.007539382007890E+003	2.6066589E-001	-2.7038385E+002
3	0	1.008039381995259E+003	2.6039949E-001	-2.7038385E+002
3	0	1.008539381982628E+003	2.6013556E-001	-2.7037677E+002
3	0	1.009039381969997E+003	2.5987577E-001	-2.7037677E+002
3	0	1.009539381957366E+003	2.5962093E-001	-2.7038742E+002
3	0	1.010039381944734E+003	2.5934899E-001	-2.7036267E+002
3	0	1.010539381932103E+003	2.5906608E-001	-2.7039801E+002
3	0	1.011039381919472E+003	2.5880393E-001	-2.7036618E+002
3	0	1.011539381906841E+003	2.5856945E-001	-2.7038385E+002
3	0	1.012039381894210E+003	2.5833085E-001	-2.7038031E+002
3	0	1.012539381881579E+003	2.5809336E-001	-2.7037677E+002
3	0	1.013039381868948E+003	2.5786200E-001	-2.7039801E+002
3	0	1.013539381856317E+003	2.5761747E-001	-2.7039447E+002
3	0	1.014039381843686E+003	2.5736472E-001	-2.7039093E+002
3	0	1.014539381831055E+003	2.5709096E-001	-2.7037677E+002
3	0	1.015039381818424E+003	2.5685364E-001	-2.7040506E+002
3	0	1.015539381805793E+003	2.5664029E-001	-2.7036267E+002
3	0	1.016039381793162E+003	2.5641799E-001	-2.7038031E+002
3	0	1.016539381780531E+003	2.5620344E-001	-2.7037326E+002
3	0	1.017039381767900E+003	2.5598717E-001	-2.7041568E+002
3	0	1.017539381755269E+003	2.5576562E-001	-2.7036618E+002
3	0	1.018039381742637E+003	2.5553617E-001	-2.7035913E+002
3	0	1.018539381730006E+003	2.5527775E-001	-2.7038385E+002
3	0	1.019039381717375E+003	2.5505635E-001	-2.7036972E+002
3	0	1.019539381704744E+003	2.5485942E-001	-2.7037677E+002
3	0	1.020039381692113E+003	2.5465575E-001	-2.7036972E+002
3	0	1.020539381679482E+003	2.5445113E-001	-2.7036618E+002
3	0	1.021039381666851E+003	2.5425366E-001	-2.7038031E+002
3	0	1.021539381654220E+003	2.5404447E-001	-2.7040155E+002
3	0	1.022039381641589E+003	2.5382283E-001	-2.7039801E+002
3	0	1.022539381628958E+003	2.5359583E-001	-2.7036267E+002
3	0	1.023039381616327E+003	2.5338823E-001	-2.7036972E+002
3	0	1.023539381603696E+003	2.5320742E-001	-2.7035913E+002
3	0	1.024039381591065E+003	2.5302625E-001	-2.7039447E+002
3	0	1.024539381578434E+003	2.5284496E-001	-2.7036618E+002
3	0	1.025039381565803E+003	2.5266430E-001	-2.7040155E+002
3	0	1.025539381553172E+003	2.5247455E-001	-2.7036972E+002
3	0	1.026039381540540E+003	2.5227654E-001	-2.7035913E+002
3	0	1.026539381527909E+003	2.5205177E-001	-2.7037326E+002
3	0	1.027039381515278E+003	2.5187111E-001	-2.7035913E+002
3	0	1.027539381502647E+003	2.5170565E-001	-2.7038031E+002
3	0	1.028039381490016E+003	2.5152913E-001	-2.7038031E+002
3	0	1.028539381477385E+003	2.5135902E-001	-2.7038031E+002
3	0	1.029039381464754E+003	2.5119203E-001	-2.7039447E+002
3	0	1.029539381452123E+003	2.5102326E-001	-2.7039093E+002
3	0	1.030039381439492E+003	2.5083208E-001	-2.7039093E+002
3	0	1.030539381426861E+003	2.5062859E-001	-2.7038385E+002
3	0	1.031039381414230E+003	2.5045514E-001	-2.7037326E+002
3	0	1.031539381401599E+003	2.5030264E-001	-2.7036618E+002
3	0	1.032039381388968E+003	2.5014326E-001	-2.7037326E+002
3	0	1.032539381376337E+003	2.4998693E-001	-2.7035913E+002
3	0	1.033039381363706E+003	2.4983373E-001	-2.7035913E+002
3	0	1.033539381351075E+003	2.4967660E-001	-2.7038031E+002
3	0	1.034039381338443E+003	2.4949603E-001	-2.7035913E+002
3	0	1.034539381325812E+003	2.4931119E-001	-2.7036972E+002
3	0	1.035039381313181E+003	2.4914938E-001	-2.7035913E+002
3	0	1.035539381300550E+003	2.4901402E-001	-2.7038385E+002
3	0	1.036039381287919E+003	2.4886784E-001	-2.7038742E+002
3	0	1.036539381275288E+003	2.4872923E-001	-2.7037677E+002
3	0	1.037039381262657E+003	2.4858356E-001	-2.7035913E+002
3	0	1.037539381250026E+003	2.4843006E-001	-2.7036267E+002
3	0	1.038039381237395E+003	2.4825992E-001	-2.7036972E+002
3	0	1.038539381224764E+003	2.4807788E-001	-2.7038031E+002
3	0	1.039039381212133E+003	2.4792299E-001	-2.7037677E+002
3	0	1.039539381199502E+003	2.4778700E-001	-2.7038742E+002
3	0	1.040039381186871E+003	2.4764171E-001	-2.7037677E+002
3	0	1.040539381174240E+003	2.4750482E-001	-2.7039447E+002
3	0	1.041039381161609E+003	2.4736626E-001	-2.7035559E+002
3	0	1.041539381148978E+003	2.4722503E-001	-2.7035559E+002
3	0	1.042039381136346E+003	2.4705783E-001	-2.7039093E+002
3	0	1.042539381123715E+003	2.4688382E-001	-2.7038385E+002
3	0	1.043039381111084E+003	2.4673568E-001	-2.7038385E+002
3	0	1.043539381098453E+003	2.4662071E-001	-2.7037677E+002
3	0	1.044039381085822E+003	2.4648912E-001	-2.7036267E+002
3	0	1.044539381073191E+003	2.4636839E-001	-2.7037677E+002
3	0	1.045039381060560E+003	2.4624467E-001	-2.7038385E+002
3	0	1.045539381047929E+003	2.4611427E-001	-2.7039093E+002
3	0	1.046039381035298E+003	2.4597190E-001	-2.7036618E+002
3	0	1.046539381022667E+003	2.4581432E-001	-2.7039801E+002
3	0	1.047039381010036E+003	2.4567766E-001	-2.7038031E+002
3	0	1.047539380997405E+003	2.4556947E-001	-2.7037677E+002
3	0	1.048039380984774E+003	2.4545270E-001	-2.7037677E+002
3	0	1.048539380972143E+003	2.4533986E-001	-2.7036972E+002
3	0	1.049039380959512E+003	2.4522214E-001	-2.7037326E+002
3	0	1.049539380946881E+003	2.4510743E-001	-2.7038742E+002
3	0	1.050039380934249E+003	2.4496827E-001	-2.7038385E+002
3	0	1.050539380921618E+003	2.4481273E-001	-2.7038742E+002
3	0	1.051039380908987E+003	2.4468522E-001	-2.7037326E+002
3	0	1.051539380896356E+003	2.4458350E-001	-2.7037326E+002
3	0	1.052039380883725E+003	2.4447595E-001	-2.7036267E+002
3	0	1.052539380871094E+003	2.4437352E-001	-2.7038385E+002
3	0	1.053039380858463E+003	2.4426366E-001	-2.7038031E+002
3	0	1.053539380845832E+003	2.4415563E-001	-2.7038742E+002
3	0	1.054039380833201E+003	2.4402381E-001	-2.7036267E+002
3	0	1.054539380820570E+003	2.4387528E-001	-2.7036267E+002
3	0	1.055039380807939E+003	2.4375695E-001	-2.7041214E+002
3	0	1.055539380795308E+003	2.4365912E-001	-2.7037326E+002
3	0	1.056039380782677E+003	2.4355258E-001	-2.7036972E+002
3	0	1.056539380770046E+003	2.4345136E-001	-2.7039447E+002
3	0	1.057039380757415E+003	2.4334957E-001	-2.7036972E+002
3	0	1.057539380744784E+003	2.4324565E-001	-2.7037677E+002
3	0	1.058039380732152E+003	2.4312282E-001	-2.7039801E+002
3	0	1.058539380719521E+003	2.4297456E-001	-2.7036618E+002
3	0	1.059039380706890E+003	2.4285214E-001	-2.7039447E+002
3	0	1.059539380694259E+003	2.4275836E-001	-2.7038031E+002
3	0	1.060039380681628E+003	2.4266116E-001	-2.7037677E+002
3	0	1.060539380668997E+003	2.4256112E-001	-2.7039447E+002
3	0	1.061039380656366E+003	2.4246138E-001	-2.7037677E+002
3	0	1.061539380643735E+003	2.4235280E-001	-2.7037677E+002
3	0	1.062039380631104E+003	2.4223006E-001	-2.7034851E+002
3	0	1.062539380618473E+003	2.4208637E-001	-2.7038031E+002
3	0	1.063039380605842E+003	2.4197680E-001	-2.7038031E+002
3	0	1.063539380593211E+003	2.4189168E-001	-2.7039093E+002
3	0	1.064039380580580E+003	2.4179897E-001	-2.7036267E+002
3	0	1.064539380567949E+003	2.4170911E-001	-2.7038031E+002
3	0	1.065039380555318E+003	2.4162363E-001	-2.7038385E+002
3	0	1.065539380542687E+003	2.4152650E-001	-2.7038031E+002
3	0	1.066039380530056E+003	2.4141385E-001	-2.7038031E+002
3	0	1.066539380517424E+003	2.4128190E-001	-2.7037677E+002
3	0	1.067039380504793E+003	2.4117506E-001	-2.7038031E+002
3	0	1.067539380492162E+003	2.4108936E-001	-2.7037677E+002
3	0	1.068039380479531E+003	2.4100502E-001	-2.7037677E+002
3	0	1.068539380466900E+003	2.4092272E-001	-2.7040860E+002
3	0	1.069039380454269E+003	2.4084091E-001	-2.7038742E+002
3	0	1.069539380441638E+003	2.4075367E-001	-2.7037677E+002
3	0	1.070039380429007E+003	2.4064161E-001	-2.7038031E+002
3	0	1.070539380416376E+003	2.4051835E-001	-2.7036618E+002
3	0	1.071039380403745E+003	2.4042057E-001	-2.7036972E+002
3	0	1.071539380391114E+003	2.4034534E-001	-2.7039093E+002
3	0	1.072039380378483E+003	2.4027357E-001	-2.7038385E+002
3	0	1.072539380365852E+003	2.4019481E-001	-2.7038385E+002
3	0	1.073039380353221E+003	2.4012025E-001	-2.7038742E+002
3	0	1.073539380340590E+003	2.4003753E-001	-2.7039447E+002
3	0	1.074039380327959E+003	2.3993048E-001	-2.7037326E+002
3	0	1.074539380315327E+003	2.3980750E-001	-2.7039801E+002
3	0	1.075039380302696E+003	2.3971300E-001	-2.7035913E+002
3	0	1.075539380290065E+003	2.3964344E-001	-2.7038031E+002
3	0	1.076039380277434E+003	2.3956579E-001	-2.7038031E+002
3	0	1.076539380264803E+003	2.3949739E-001	-2.7035913E+002
3	0	1.077039380252172E+003	2.3942025E-001	-2.7038031E+002
3	0	1.077539380239541E+003	2.3933777E-001	-2.7036618E+002
3	0	1.078039380226910E+003	2.3924035E-001	-2.7035559E+002
3	0	1.078539380214279E+003	2.3911822E-001	-2.7037677E+002
3	0	1.079039380201648E+003	2.3902601E-001	-2.7039801E+002
3	0	1.079539380189017E+003	2.3895840E-001	-2.7038385E+002
3	0	1.080039380176386E+003	2.3887575E-001	-2.7040155E+002
3	0	1.080539380163755E+003	2.3880138E-001	-2.7039801E+002
3	0	1.081039380151124E+003	2.3872352E-001	-2.7040860E+002
3	0	1.081539380138493E+003	2.3863304E-001	-2.7039801E+002
3	0	1.082039380125862E+003	2.3853768E-001	-2.7036972E+002
3	0	1.082539380113230E+003	2.3841718E-001	-2.7037326E+002
3	0	1.083039380100599E+003	2.3832706E-001	-2.7036618E+002
3	0	1.083539380087968E+003	2.3826846E-001	-2.7039447E+002
3	0	1.084039380075337E+003	2.3819599E-001	-2.7038385E+002
3	0	1.084539380062706E+003	2.3813143E-001	-2.7034851E+002
3	0	1.085039380050075E+003	2.3806280E-001	-2.7037677E+002
3	0	1.085539380037444E+003	2.3798478E-001	-2.7037677E+002
3	0	1.086039380024813E+003	2.3788917E-001	-2.7038742E+002
3	0	1.086539380012182E+003	2.3777983E-001	-2.7036618E+002
3	0	1.087039379999551E+003	2.3769337E-001	-2.7039801E+002
3	0	1.087539379986920E+003	2.3763272E-001	-2.7038385E+002
3	0	1.088039379974289E+003	2.3756546E-001	-2.7038031E+002
3	0	1.088539379961658E+003	2.3750106E-001	-2.7038031E+002
3	0	1.089039379949027E+003	2.3743470E-001	-2.7037677E+002
3	0	1.089539379936396E+003	2.3736529E-001	-2.7036972E+002
3	0	1.090039379923765E+003	2.3727751E-001	-2.7039447E+002
3	0	1.090539379911133E+003	2.3716956E-001	-2.7036972E+002
3	0	1.091039379898502E+003	2.3708595E-001	-2.7038031E+002
3	0	1.091539379885871E+003	2.3703364E-001	-2.7037326E+002
3	0	1.092039379873240E+003	2.3696922E-001	-2.7039801E+002
3	0	1.092539379860609E+003	2.3691100E-001	-2.7038742E+002
3	0	1.093039379847978E+003	2.3684891E-001	-2.7039093E+002
3	0	1.093539379835347E+003	2.3678422E-001	-2.7036972E+002
3	0	1.094039379822716E+003	2.3669098E-001	-2.7036267E+002
3	0	1.094539379810085E+003	2.3659325E-001	-2.7035205E+002
3	0	1.095039379797454E+003	2.3651217E-001	-2.7037677E+002
3	0	1.095539379784823E+003	2.3646231E-001	-2.7034851E+002
3	0	1.096039379772192E+003	2.3640077E-001	-2.7039093E+002
3	0	1.096539379759561E+003	2.3634578E-001	-2.7037326E+002
3	0	1.097039379746930E+003	2.3628427E-001	-2.7037326E+002
3	0	1.097539379734299E+003	2.3621958E-001	-2.7036972E+002
3	0	1.098039379721668E+003	2.3613551E-001	-2.7037326E+002
3	0	1.098539379709036E+003	2.3602533E-001	-2.7036618E+002
3	0	1.099039379696405E+003	2.3594603E-001	-2.7038031E+002
3	0	1.099539379683774E+003	2.3589207E-001	-2.7035913E+002
3	0	1.100039379671143E+003	2.3582624E-001	-2.7036267E+002
3	0	1.100539379658512E+003	2.3576567E-001	-2.7035913E+002
3	0	1.101039379645881E+003	2.3570529E-001	-2.7037326E+002
3	0	1.101539379633250E+003	2.3564318E-001	-2.7035913E+002
3	0	1.102039379620619E+003	2.3555534E-001	-2.7038742E+002
3	0	1.102539379607988E+003	2.3545483E-001	-2.7037326E+002
3	0	1.103039379595357E+003	2.3537721E-001	-2.7039801E+002
3	0	1.103539379582726E+003	2.3532963E-001	-2.7037677E+002
3	0	1.104039379570095E+003	2.3526700E-001	-2.7038742E+002
3	0	1.104539379557464E+003	2.3520948E-001	-2.7037677E+002
3	0	1.105039379544833E+003	2.3515257E-001	-2.7038031E+002
3	0	1.105539379532202E+003	2.3508331E-001	-2.7038031E+002
3	0	1.106039379519571E+003	2.3497815E-001	-2.7038031E+002
3	0	1.106539379506939E+003	2.3489000E-001	-2.7036972E+002
3	0	1.107039379494308E+003	2.3483282E-001	-2.7039093E+002
3	0	1.107539379481677E+003	2.3480465E-001	-2.7040155E+002
3	0	1.108039379469046E+003	2.3476200E-001	-2.7038031E+002
3	0	1.108539379456415E+003	2.3471722E-001	-2.7038031E+002
3	0	1.109039379443784E+003	2.3466459E-001	-2.7035559E+002
3	0	1.109539379431153E+003	2.3460658E-001	-2.7034851E+002
3	0	1.110039379418522E+003	2.3452194E-001	-2.7038385E+002
3	0	1.110539379405891E+003	2.3441827E-001	-2.7037326E+002
3	0	1.111039379393260E+003	2.3434485E-001	-2.7036267E+002
3	0	1.111539379380629E+003	2.3430631E-001	-2.7038742E+002
3	0	1.112039379367998E+003	2.3426044E-001	-2.7035913E+002
3	0	1.112539379355367E+003	2.3421142E-001	-2.7038742E+002
3	0	1.113039379342736E+003	2.3416078E-001	-2.7038742E+002
3	0	1.113539379330105E+003	2.3409745E-001	-2.7037326E+002
3	0	1.114039379317474E+003	2.3401138E-001	-2.7038385E+002
3	0	1.114539379304842E+003	2.3390478E-001	-2.7038031E+002
3	0	1.115039379292211E+003	2.3382673E-001	-2.7038385E+002
3	0	1.115539379279580E+003	2.3378666E-001	-2.7035559E+002
3	0	1.116039379266949E+003	2.3373814E-001	-2.7037677E+002
3	0	1.116539379254318E+003	2.3368050E-001	-2.7034851E+002
3	0	1.117039379241687E+003	2.3362733E-001	-2.7037677E+002
3	0	1.117539379229056E+003	2.3356307E-001	-2.7038742E+002
3	0	1.118039379216425E+003	2.3347536E-001	-2.7036972E+002
3	0	1.118539379203794E+003	2.3337108E-001	-2.7036618E+002
3	0	1.119039379191163E+003	2.3329718E-001	-2.7035559E+002
3	0	1.119539379178532E+003	2.3325314E-001	-2.7036618E+002
3	0	1.120039379165901E+003	2.3320682E-001	-2.7037677E+002
3	0	1.120539379153270E+003	2.3315157E-001	-2.7036618E+002
3	0	1.121039379140639E+003	2.3309626E-001	-2.7037677E+002
3	0	1.121539379128008E+003	2.3303293E-001	-2.7038742E+002
3	0	1.122039379115377E+003	2.3294036E-001	-2.7038742E+002
3	0	1.122539379102745E+003	2.3283526E-001	-2.7037326E+002
3	0	1.123039379090114E+003	2.3275875E-001	-2.7036267E+002
3	0	1.123539379077483E+003	2.3271702E-001	-2.7038031E+002
3	0	1.124039379064852E+003	2.3267226E-001	-2.7036618E+002
3	0	1.124539379052221E+003	2.3262060E-001	-2.7040155E+002
3	0	1.125039379039590E+003	2.3257031E-001	-2.7039093E+002
3	0	1.125539379026959E+003	2.3251615E-001	-2.7040506E+002
3	0	1.126039379014328E+003	2.3243815E-001	-2.7039801E+002
3	0	1.126539379001697E+003	2.3233278E-001	-2.7037677E+002
3	0	1.127039378989066E+003	2.3226693E-001	-2.7038742E+002
3	0	1.127539378976435E+003	2.3223253E-001	-2.7038385E+002
3	0	1.128039378963804E+003	2.3219359E-001	-2.7036618E+002
3	0	1.128539378951173E+003	2.3215118E-001	-2.7036972E+002
3	0	1.129039378938542E+003	2.3210563E-001	-2.7037326E+002
3	0	1.129539378925911E+003	2.3205753E-001	-2.7038742E+002
3	0	1.130039378913280E+003	2.3197711E-001	-2.7036972E+002
3	0	1.130539378900648E+003	2.3188156E-001	-2.7036972E+002
3	0	1.131039378888017E+003	2.3181693E-001	-2.7040860E+002
3	0	1.131539378875386E+003	2.3178333E-001	-2.7036618E+002
3	0	1.132039378862755E+003	2.3175538E-001	-2.7038031E+002
3	0	1.132539378850124E+003	2.3171292E-001	-2.7036618E+002
3	0	1.133039378837493E+003	2.3166841E-001	-2.7038031E+002
3	0	1.133539378824862E+003	2.3162155E-001	-2.7035913E+002
3	0	1.134039378812231E+003	2.3154514E-001	-2.7038031E+002
3	0	1.134539378799600E+003	2.3144679E-001	-2.7036618E+002
3	0	1.135039378786969E+003	2.3138136E-001	-2.7039801E+002
3	0	1.135539378774338E+003	2.3134869E-001	-2.7038742E+002
3	0	1.136039378761707E+003	2.3131461E-001	-2.7039093E+002
3	0	1.136539378749076E+003	2.3127148E-001	-2.7040155E+002
3	0	1.137039378736445E+003	2.3123214E-001	-2.7040860E+002
3	0	1.137539378723814E+003	2.3118445E-001	-2.7036972E+002
3	0	1.137539778723803E+003	2.3120877E-001	-2.7040506E+002