EC-Lab ASCII FILE
Nb header lines : 55                          

Open Circuit Voltage

Run on channel : 1 (SN 81504)
User : 
CE vs. WE compliance from -10 V to 10 V
Electrode connection : standard
Potential control : Ewe
Ewe ctrl range : min = -2.50 V, max = 2.50 V
Safety Limits :
	Do not start on E overload
Acquisition started on : 05/08/2026 01:25:27.042
Loaded Setting File :  C:\PEM-WE_measurements\2026\372_IV_IV IrOx, 5 min Pt, 30 min C, etched cathode\new station\Loopeis new\1,46 V different time gaps open cell\Loopeis 1,46V_180s_5_PEIS from 65Hz to 10Hz.mps
Saved on :
	File : L_30_Loopeis 1,46V_180s_5_PEIS from 65Hz to 10Hz_02_OCV_C01.mpr
	Directory : C:\PEM-WE_measurements\2026\372_IV_IV IrOx, 5 min Pt, 30 min C, etched cathode\new station\Loopeis new\1,46 V different time gaps open cell\
	Host : 192.168.0.2
Device : SP-150e (SN .005491)
Address : 192.168.0.91
EC-LAB for windows v11.71 (software)
Internet server v28.00 (firmware)
Command interpretor v14.01 (firmware)
Electrode material : 
Initial state : 
Electrolyte : 
Comments : 
Current amplifier : SP-150eB-20A
Electrode surface area : 0.001 cm²
Characteristic mass : 0.001 g
Equivalent Weight : 0.000 g/eq.
Density : 0.000 g/cm3
Volume (V) : 0.001 cm³
Record Analogic IN 1
Text export
   Mode : Standard
   Time format : Elapsed
Cycle Definition : Charge/Discharge alternance
External device configuration :
   device type : Temperature Probe
   device name : Other
   Analog IN 1 : 
      unit : T/Â°C
      max : 100.000 at 2.000 V
      min : 0.000 at 1.460 V
tR (h:m:s)          0:03:0.0000         
dER/dt (mV/h)       1.0                 
record              <Ewe>               
dER (mV)            10.00               
dtR (s)             0.5000              
E range min (V)     -2.500              
E range max (V)     2.500               

mode	error	time/s	<Ewe/V>	Analog IN 1/V	
3	0	4.549979885057837E+001	1.2290350E+000	-2.7036618E+002
3	0	4.599979883794731E+001	1.1885810E+000	-2.7038742E+002
3	0	4.649979882531625E+001	8.9228523E-001	-2.7039801E+002
3	0	4.699979881268519E+001	4.5196843E-001	-2.7039447E+002
3	0	4.749979880005412E+001	3.4946889E-001	-2.7040860E+002
3	0	4.799979878742306E+001	3.3527508E-001	-2.7038031E+002
3	0	4.849979877479200E+001	3.2703272E-001	-2.7035913E+002
3	0	4.899979876216094E+001	3.2049981E-001	-2.7035913E+002
3	0	4.949979874952987E+001	3.1552941E-001	-2.7037326E+002
3	0	4.999979873689881E+001	3.1173223E-001	-2.7036267E+002
3	0	5.049979872426775E+001	3.0875492E-001	-2.7039093E+002
3	0	5.099979871163669E+001	3.0633786E-001	-2.7038742E+002
3	0	5.149979869900562E+001	3.0432656E-001	-2.7036972E+002
3	0	5.199979868637456E+001	3.0265427E-001	-2.7037326E+002
3	0	5.249979867374350E+001	3.0122402E-001	-2.7039093E+002
3	0	5.299979866111244E+001	2.9996142E-001	-2.7036618E+002
3	0	5.349979864848137E+001	2.9883566E-001	-2.7035913E+002
3	0	5.399979863585031E+001	2.9781500E-001	-2.7037326E+002
3	0	5.449979862321925E+001	2.9686108E-001	-2.7040155E+002
3	0	5.499979861058819E+001	2.9595563E-001	-2.7039093E+002
3	0	5.549979859795712E+001	2.9509237E-001	-2.7036618E+002
3	0	5.599979858532606E+001	2.9431969E-001	-2.7037677E+002
3	0	5.649979857269500E+001	2.9359892E-001	-2.7037677E+002
3	0	5.699979856006394E+001	2.9290682E-001	-2.7038742E+002
3	0	5.749979854743287E+001	2.9223782E-001	-2.7039093E+002
3	0	5.799979853480181E+001	2.9158753E-001	-2.7038031E+002
3	0	5.849979852217075E+001	2.9094458E-001	-2.7038385E+002
3	0	5.899979850953969E+001	2.9030314E-001	-2.7037326E+002
3	0	5.949979849690862E+001	2.8965735E-001	-2.7037677E+002
3	0	5.999979848427756E+001	2.8907001E-001	-2.7036267E+002
3	0	6.049979847164650E+001	2.8849569E-001	-2.7039447E+002
3	0	6.099979845901544E+001	2.8792834E-001	-2.7037326E+002
3	0	6.149979844638438E+001	2.8736743E-001	-2.7038031E+002
3	0	6.199979843375331E+001	2.8681961E-001	-2.7038742E+002
3	0	6.249979842112225E+001	2.8627011E-001	-2.7037326E+002
3	0	6.299979840849119E+001	2.8571159E-001	-2.7039447E+002
3	0	6.349979839586013E+001	2.8514615E-001	-2.7038385E+002
3	0	6.399979838322906E+001	2.8462628E-001	-2.7036618E+002
3	0	6.449979837059800E+001	2.8412881E-001	-2.7035913E+002
3	0	6.499979835796694E+001	2.8362200E-001	-2.7039447E+002
3	0	6.549979834533588E+001	2.8313062E-001	-2.7037677E+002
3	0	6.599979833270481E+001	2.8262970E-001	-2.7039801E+002
3	0	6.649979832007375E+001	2.8213388E-001	-2.7036972E+002
3	0	6.699979830744269E+001	2.8161481E-001	-2.7037677E+002
3	0	6.749979829481163E+001	2.8110194E-001	-2.7037326E+002
3	0	6.799979828218056E+001	2.8063521E-001	-2.7035559E+002
3	0	6.849979826954950E+001	2.8016710E-001	-2.7039093E+002
3	0	6.899979825691844E+001	2.7970740E-001	-2.7039093E+002
3	0	6.949979824428738E+001	2.7925307E-001	-2.7034851E+002
3	0	6.999979823165631E+001	2.7880263E-001	-2.7039447E+002
3	0	7.049979821902525E+001	2.7834639E-001	-2.7038742E+002
3	0	7.099979820639419E+001	2.7787384E-001	-2.7039093E+002
3	0	7.149979819376313E+001	2.7739993E-001	-2.7036972E+002
3	0	7.199979818113206E+001	2.7696830E-001	-2.7037326E+002
3	0	7.249979816850100E+001	2.7653173E-001	-2.7037677E+002
3	0	7.299979815586994E+001	2.7610216E-001	-2.7039093E+002
3	0	7.349979814323888E+001	2.7567977E-001	-2.7037326E+002
3	0	7.399979813060781E+001	2.7526027E-001	-2.7037677E+002
3	0	7.449979811797675E+001	2.7483004E-001	-2.7038031E+002
3	0	7.499979810534569E+001	2.7439526E-001	-2.7036267E+002
3	0	7.549979809271463E+001	2.7395430E-001	-2.7036267E+002
3	0	7.599979808008356E+001	2.7355692E-001	-2.7035205E+002
3	0	7.649979806745250E+001	2.7316138E-001	-2.7036972E+002
3	0	7.699979805482144E+001	2.7276248E-001	-2.7039447E+002
3	0	7.749979804219038E+001	2.7237657E-001	-2.7037326E+002
3	0	7.799979802955932E+001	2.7200145E-001	-2.7036972E+002
3	0	7.849979801692825E+001	2.7160883E-001	-2.7036267E+002
3	0	7.899979800429719E+001	2.7119511E-001	-2.7035205E+002
3	0	7.949979799166613E+001	2.7079469E-001	-2.7038031E+002
3	0	7.999979797903507E+001	2.7042407E-001	-2.7039093E+002
3	0	8.049979796640400E+001	2.7005580E-001	-2.7039093E+002
3	0	8.099979795377294E+001	2.6970080E-001	-2.7039093E+002
3	0	8.149979794114188E+001	2.6934573E-001	-2.7037677E+002
3	0	8.199979792851082E+001	2.6899132E-001	-2.7038385E+002
3	0	8.249979791587975E+001	2.6863295E-001	-2.7039447E+002
3	0	8.299979790324869E+001	2.6826000E-001	-2.7038385E+002
3	0	8.349979789061763E+001	2.6788023E-001	-2.7038031E+002
3	0	8.399979787798657E+001	2.6754448E-001	-2.7039093E+002
3	0	8.449979786535550E+001	2.6720706E-001	-2.7039093E+002
3	0	8.499979785272444E+001	2.6687670E-001	-2.7039447E+002
3	0	8.549979784009338E+001	2.6654699E-001	-2.7037677E+002
3	0	8.599979782746232E+001	2.6621622E-001	-2.7039447E+002
3	0	8.649979781483125E+001	2.6588446E-001	-2.7038742E+002
3	0	8.699979780220019E+001	2.6553532E-001	-2.7038031E+002
3	0	8.749979778956913E+001	2.6518732E-001	-2.7037326E+002
3	0	8.799979777693807E+001	2.6488101E-001	-2.7039093E+002
3	0	8.849979776430700E+001	2.6458234E-001	-2.7036972E+002
3	0	8.899979775167594E+001	2.6427978E-001	-2.7037677E+002
3	0	8.949979773904488E+001	2.6398259E-001	-2.7039093E+002
3	0	8.999979772641382E+001	2.6368502E-001	-2.7040155E+002
3	0	9.049979771378275E+001	2.6337847E-001	-2.7038385E+002
3	0	9.099979770115169E+001	2.6305622E-001	-2.7037326E+002
3	0	9.149979768852063E+001	2.6273420E-001	-2.7035913E+002
3	0	9.199979767588957E+001	2.6245028E-001	-2.7037326E+002
3	0	9.249979766325851E+001	2.6217240E-001	-2.7036972E+002
3	0	9.299979765062744E+001	2.6189756E-001	-2.7036972E+002
3	0	9.349979763799638E+001	2.6161891E-001	-2.7038742E+002
3	0	9.399979762536532E+001	2.6134384E-001	-2.7036972E+002
3	0	9.449979761273426E+001	2.6106411E-001	-2.7038031E+002
3	0	9.499979760010319E+001	2.6076248E-001	-2.7038742E+002
3	0	9.549979758747213E+001	2.6046532E-001	-2.7037326E+002
3	0	9.599979757484107E+001	2.6020917E-001	-2.7036267E+002
3	0	9.649979756221001E+001	2.5995281E-001	-2.7038031E+002
3	0	9.699979754957894E+001	2.5970262E-001	-2.7038742E+002
3	0	9.749979753694788E+001	2.5945339E-001	-2.7038385E+002
3	0	9.799979752431682E+001	2.5920582E-001	-2.7038742E+002
3	0	9.849979751168576E+001	2.5895149E-001	-2.7039447E+002
3	0	9.899979749905469E+001	2.5867999E-001	-2.7039093E+002
3	0	9.949979748642363E+001	2.5840542E-001	-2.7039447E+002
3	0	9.999979747379257E+001	2.5817555E-001	-2.7038385E+002
3	0	1.004997974611615E+002	2.5794977E-001	-2.7035913E+002
3	0	1.009997974485304E+002	2.5772056E-001	-2.7038385E+002
3	0	1.014997974358994E+002	2.5748926E-001	-2.7040506E+002
3	0	1.019997974232683E+002	2.5724834E-001	-2.7038031E+002
3	0	1.024997974106373E+002	2.5700846E-001	-2.7038742E+002
3	0	1.029997973980062E+002	2.5676683E-001	-2.7039093E+002
3	0	1.034997973853751E+002	2.5652477E-001	-2.7037326E+002
3	0	1.039997973727441E+002	2.5632840E-001	-2.7039801E+002
3	0	1.044997973601130E+002	2.5611791E-001	-2.7036972E+002
3	0	1.049997973474819E+002	2.5590444E-001	-2.7036618E+002
3	0	1.054997973348509E+002	2.5569066E-001	-2.7039093E+002
3	0	1.059997973222198E+002	2.5548446E-001	-2.7035913E+002
3	0	1.064997973095888E+002	2.5526437E-001	-2.7039093E+002
3	0	1.069997972969577E+002	2.5503281E-001	-2.7036972E+002
3	0	1.074997972843266E+002	2.5480139E-001	-2.7038031E+002
3	0	1.079997972716956E+002	2.5461411E-001	-2.7036972E+002
3	0	1.084997972590645E+002	2.5441584E-001	-2.7037677E+002
3	0	1.089997972464334E+002	2.5422674E-001	-2.7040506E+002
3	0	1.094997972338024E+002	2.5403097E-001	-2.7037677E+002
3	0	1.099997972211713E+002	2.5384003E-001	-2.7039093E+002
3	0	1.104997972085403E+002	2.5364032E-001	-2.7037326E+002
3	0	1.109997971959092E+002	2.5341898E-001	-2.7039801E+002
3	0	1.114997971832781E+002	2.5320008E-001	-2.7035205E+002
3	0	1.119997971706471E+002	2.5303036E-001	-2.7036972E+002
3	0	1.124997971580160E+002	2.5285465E-001	-2.7039093E+002
3	0	1.129997971453849E+002	2.5267202E-001	-2.7036972E+002
3	0	1.134997971327539E+002	2.5249538E-001	-2.7039801E+002
3	0	1.139997971201228E+002	2.5232157E-001	-2.7038742E+002
3	0	1.144997971074918E+002	2.5212687E-001	-2.7037326E+002
3	0	1.149997970948607E+002	2.5191635E-001	-2.7036972E+002
3	0	1.154997970822296E+002	2.5171214E-001	-2.7037677E+002
3	0	1.159997970695986E+002	2.5155026E-001	-2.7037677E+002
3	0	1.164997970569675E+002	2.5138620E-001	-2.7035913E+002
3	0	1.169997970443364E+002	2.5122267E-001	-2.7036618E+002
3	0	1.174997970317054E+002	2.5105479E-001	-2.7038031E+002
3	0	1.179997970190743E+002	2.5089839E-001	-2.7035559E+002
3	0	1.184997970064433E+002	2.5072098E-001	-2.7037326E+002
3	0	1.189997969938122E+002	2.5053373E-001	-2.7041919E+002
3	0	1.194997969811811E+002	2.5034517E-001	-2.7036618E+002
3	0	1.199997969685501E+002	2.5019714E-001	-2.7038031E+002
3	0	1.204997969559190E+002	2.5004852E-001	-2.7036972E+002
3	0	1.209997969432879E+002	2.4990235E-001	-2.7038742E+002
3	0	1.214997969306569E+002	2.4975958E-001	-2.7036972E+002
3	0	1.219997969180258E+002	2.4961017E-001	-2.7038742E+002
3	0	1.224997969053948E+002	2.4945194E-001	-2.7040155E+002
3	0	1.229997968927637E+002	2.4927782E-001	-2.7036972E+002
3	0	1.234997968801326E+002	2.4910355E-001	-2.7036618E+002
3	0	1.239997968675016E+002	2.4896981E-001	-2.7039093E+002
3	0	1.244997968548705E+002	2.4883531E-001	-2.7037326E+002
3	0	1.249997968422394E+002	2.4869622E-001	-2.7039447E+002
3	0	1.254997968296084E+002	2.4856077E-001	-2.7037677E+002
3	0	1.259997968169773E+002	2.4842432E-001	-2.7038031E+002
3	0	1.264997968043463E+002	2.4827665E-001	-2.7037326E+002
3	0	1.269997967917152E+002	2.4810854E-001	-2.7038742E+002
3	0	1.274997967790841E+002	2.4794556E-001	-2.7038742E+002
3	0	1.279997967664531E+002	2.4782299E-001	-2.7038031E+002
3	0	1.284997967538220E+002	2.4769530E-001	-2.7038031E+002
3	0	1.289997967411909E+002	2.4756508E-001	-2.7039801E+002
3	0	1.294997967285599E+002	2.4744071E-001	-2.7038742E+002
3	0	1.299997967159288E+002	2.4731137E-001	-2.7039093E+002
3	0	1.304997967032978E+002	2.4717830E-001	-2.7038385E+002
3	0	1.309997966906667E+002	2.4701998E-001	-2.7035205E+002
3	0	1.314997966780356E+002	2.4685672E-001	-2.7035559E+002
3	0	1.319997966654046E+002	2.4674322E-001	-2.7037326E+002
3	0	1.324997966527735E+002	2.4662293E-001	-2.7038031E+002
3	0	1.329997966401424E+002	2.4649990E-001	-2.7037326E+002
3	0	1.334997966275114E+002	2.4638395E-001	-2.7037677E+002
3	0	1.339997966148803E+002	2.4626383E-001	-2.7036618E+002
3	0	1.344997966022493E+002	2.4612960E-001	-2.7038031E+002
3	0	1.349997965896182E+002	2.4597785E-001	-2.7035559E+002
3	0	1.354997965769871E+002	2.4582313E-001	-2.7038385E+002
3	0	1.359997965643561E+002	2.4570844E-001	-2.7038742E+002
3	0	1.364997965517250E+002	2.4559854E-001	-2.7039801E+002
3	0	1.369997965390940E+002	2.4548194E-001	-2.7039093E+002
3	0	1.374997965264629E+002	2.4537298E-001	-2.7037677E+002
3	0	1.379997965138318E+002	2.4526009E-001	-2.7035913E+002
3	0	1.384997965012008E+002	2.4513546E-001	-2.7039093E+002
3	0	1.389997964885697E+002	2.4498928E-001	-2.7036618E+002
3	0	1.394997964759386E+002	2.4484164E-001	-2.7040155E+002
3	0	1.399997964633076E+002	2.4474095E-001	-2.7035913E+002
3	0	1.404997964506765E+002	2.4463758E-001	-2.7037677E+002
3	0	1.409997964380455E+002	2.4453846E-001	-2.7037326E+002
3	0	1.414997964254144E+002	2.4444054E-001	-2.7039447E+002
3	0	1.419997964127833E+002	2.4434471E-001	-2.7038031E+002
3	0	1.424997964001523E+002	2.4422945E-001	-2.7037326E+002
3	0	1.429997963875212E+002	2.4409437E-001	-2.7036267E+002
3	0	1.434997963748901E+002	2.4395758E-001	-2.7038031E+002
3	0	1.439997963622591E+002	2.4387023E-001	-2.7038385E+002
3	0	1.444997963496280E+002	2.4376944E-001	-2.7037677E+002
3	0	1.449997963369970E+002	2.4367195E-001	-2.7037677E+002
3	0	1.454997963243659E+002	2.4357025E-001	-2.7037677E+002
3	0	1.459997963117348E+002	2.4346998E-001	-2.7038742E+002
3	0	1.464997962991038E+002	2.4335942E-001	-2.7038031E+002
3	0	1.469997962864727E+002	2.4323136E-001	-2.7038031E+002
3	0	1.474997962738416E+002	2.4310753E-001	-2.7035913E+002
3	0	1.479997962612106E+002	2.4301761E-001	-2.7038385E+002
3	0	1.484997962485795E+002	2.4292667E-001	-2.7038385E+002
3	0	1.489997962359485E+002	2.4283582E-001	-2.7036618E+002
3	0	1.494997962233174E+002	2.4274842E-001	-2.7037677E+002
3	0	1.499997962106863E+002	2.4265760E-001	-2.7036618E+002
3	0	1.504997961980553E+002	2.4255067E-001	-2.7038742E+002
3	0	1.509997961854242E+002	2.4241918E-001	-2.7038031E+002
3	0	1.514997961727931E+002	2.4229820E-001	-2.7038385E+002
3	0	1.519997961601621E+002	2.4221839E-001	-2.7037326E+002
3	0	1.524997961475310E+002	2.4212974E-001	-2.7036972E+002
3	0	1.529997961349000E+002	2.4204469E-001	-2.7035559E+002
3	0	1.534997961222689E+002	2.4196120E-001	-2.7039447E+002
3	0	1.539997961096378E+002	2.4187282E-001	-2.7038031E+002
3	0	1.544997960970068E+002	2.4177164E-001	-2.7038385E+002
3	0	1.549997960843757E+002	2.4164569E-001	-2.7039801E+002
3	0	1.554997960717446E+002	2.4152175E-001	-2.7038742E+002
3	0	1.559997960591136E+002	2.4144049E-001	-2.7037326E+002
3	0	1.564997960464825E+002	2.4135131E-001	-2.7037326E+002
3	0	1.569997960338515E+002	2.4126676E-001	-2.7039801E+002
3	0	1.574997960212204E+002	2.4118213E-001	-2.7038742E+002
3	0	1.579997960085893E+002	2.4109393E-001	-2.7036267E+002
3	0	1.584997959959583E+002	2.4099810E-001	-2.7036618E+002
3	0	1.589997959833272E+002	2.4088094E-001	-2.7041214E+002
3	0	1.594997959706961E+002	2.4076746E-001	-2.7037677E+002
3	0	1.599997959580651E+002	2.4069647E-001	-2.7038742E+002
3	0	1.604997959454340E+002	2.4062145E-001	-2.7038385E+002
3	0	1.609997959328030E+002	2.4054630E-001	-2.7036972E+002
3	0	1.614997959201719E+002	2.4046840E-001	-2.7038385E+002
3	0	1.619997959075408E+002	2.4039347E-001	-2.7038742E+002
3	0	1.624997958949098E+002	2.4030370E-001	-2.7037677E+002
3	0	1.629997958822787E+002	2.4019523E-001	-2.7039801E+002
3	0	1.634997958696476E+002	2.4009080E-001	-2.7035913E+002
3	0	1.639997958570166E+002	2.4002360E-001	-2.7035913E+002
3	0	1.644997958443855E+002	2.3995182E-001	-2.7038031E+002
3	0	1.649997958317545E+002	2.3987789E-001	-2.7037326E+002
3	0	1.654997958191234E+002	2.3980431E-001	-2.7039447E+002
3	0	1.659997958064923E+002	2.3973766E-001	-2.7036618E+002
3	0	1.664997957938613E+002	2.3965804E-001	-2.7038385E+002
3	0	1.669997957812302E+002	2.3954810E-001	-2.7035559E+002
3	0	1.674997957685991E+002	2.3944284E-001	-2.7038385E+002
3	0	1.679997957559681E+002	2.3938045E-001	-2.7037677E+002
3	0	1.684997957433370E+002	2.3930965E-001	-2.7037677E+002
3	0	1.689997957307060E+002	2.3924184E-001	-2.7038031E+002
3	0	1.694997957180749E+002	2.3917662E-001	-2.7036618E+002
3	0	1.699997957054438E+002	2.3910777E-001	-2.7037677E+002
3	0	1.704997956928128E+002	2.3902367E-001	-2.7037326E+002
3	0	1.709997956801817E+002	2.3892464E-001	-2.7036618E+002
3	0	1.714997956675506E+002	2.3882106E-001	-2.7038742E+002
3	0	1.719997956549196E+002	2.3876444E-001	-2.7039093E+002
3	0	1.724997956422885E+002	2.3869862E-001	-2.7036972E+002
3	0	1.729997956296575E+002	2.3863183E-001	-2.7037677E+002
3	0	1.734997956170264E+002	2.3857073E-001	-2.7036618E+002
3	0	1.739997956043953E+002	2.3850392E-001	-2.7038742E+002
3	0	1.744997955917643E+002	2.3842132E-001	-2.7036972E+002
3	0	1.749997955791332E+002	2.3831861E-001	-2.7035913E+002
3	0	1.754997955665021E+002	2.3821470E-001	-2.7038031E+002
3	0	1.759997955538711E+002	2.3814464E-001	-2.7038385E+002
3	0	1.764997955412400E+002	2.3807792E-001	-2.7039447E+002
3	0	1.769997955286090E+002	2.3801591E-001	-2.7040155E+002
3	0	1.774997955159779E+002	2.3794994E-001	-2.7037677E+002
3	0	1.779997955033468E+002	2.3788477E-001	-2.7040860E+002
3	0	1.784997954907158E+002	2.3780826E-001	-2.7036972E+002
3	0	1.789997954780847E+002	2.3770793E-001	-2.7038031E+002
3	0	1.794997954654536E+002	2.3760951E-001	-2.7038742E+002
3	0	1.799997954528226E+002	2.3755799E-001	-2.7039801E+002
3	0	1.804997954401915E+002	2.3749401E-001	-2.7037326E+002
3	0	1.809997954275605E+002	2.3743618E-001	-2.7038031E+002
3	0	1.814997954149294E+002	2.3737247E-001	-2.7037326E+002
3	0	1.819997954022983E+002	2.3730931E-001	-2.7040155E+002
3	0	1.824997953896673E+002	2.3723419E-001	-2.7039093E+002
3	0	1.829997953770362E+002	2.3714252E-001	-2.7036972E+002
3	0	1.834997953644051E+002	2.3704650E-001	-2.7038385E+002
3	0	1.839997953517741E+002	2.3699835E-001	-2.7037677E+002
3	0	1.844997953391430E+002	2.3693746E-001	-2.7040506E+002
3	0	1.849997953265120E+002	2.3688348E-001	-2.7036972E+002
3	0	1.854997953138809E+002	2.3682909E-001	-2.7037677E+002
3	0	1.859997953012498E+002	2.3677397E-001	-2.7038385E+002
3	0	1.864997952886188E+002	2.3670138E-001	-2.7036972E+002
3	0	1.869997952759877E+002	2.3660755E-001	-2.7037677E+002
3	0	1.874997952633566E+002	2.3651598E-001	-2.7036972E+002
3	0	1.879997952507256E+002	2.3646769E-001	-2.7038031E+002
3	0	1.884997952380945E+002	2.3640890E-001	-2.7039447E+002
3	0	1.889997952254635E+002	2.3635395E-001	-2.7038031E+002
3	0	1.894997952128324E+002	2.3629729E-001	-2.7041214E+002
3	0	1.899997952002013E+002	2.3624574E-001	-2.7037326E+002
3	0	1.904997951875703E+002	2.3617516E-001	-2.7034497E+002
3	0	1.909997951749392E+002	2.3608167E-001	-2.7036972E+002
3	0	1.914997951623081E+002	2.3598500E-001	-2.7039447E+002
3	0	1.919997951496771E+002	2.3593219E-001	-2.7034851E+002
3	0	1.924997951370460E+002	2.3588102E-001	-2.7037326E+002
3	0	1.929997951244150E+002	2.3582691E-001	-2.7038031E+002
3	0	1.934997951117839E+002	2.3577708E-001	-2.7039093E+002
3	0	1.939997950991528E+002	2.3571584E-001	-2.7038742E+002
3	0	1.944997950865218E+002	2.3564799E-001	-2.7038031E+002
3	0	1.949997950738907E+002	2.3555826E-001	-2.7038385E+002
3	0	1.954997950612596E+002	2.3546852E-001	-2.7036267E+002
3	0	1.959997950486286E+002	2.3541632E-001	-2.7038385E+002
3	0	1.964997950359975E+002	2.3536611E-001	-2.7038031E+002
3	0	1.969997950233665E+002	2.3531146E-001	-2.7037326E+002
3	0	1.974997950107354E+002	2.3525885E-001	-2.7037677E+002
3	0	1.979997949981043E+002	2.3520797E-001	-2.7036618E+002
3	0	1.984997949854733E+002	2.3513502E-001	-2.7037677E+002
3	0	1.989997949728422E+002	2.3504059E-001	-2.7038385E+002
3	0	1.994997949602111E+002	2.3495121E-001	-2.7039801E+002
3	0	1.999997949475801E+002	2.3490243E-001	-2.7036267E+002
3	0	2.004997949349490E+002	2.3485206E-001	-2.7035205E+002
3	0	2.009997949223180E+002	2.3479809E-001	-2.7038742E+002
3	0	2.014997949096869E+002	2.3475133E-001	-2.7036618E+002
3	0	2.019997948970558E+002	2.3470768E-001	-2.7036267E+002
3	0	2.024997948844248E+002	2.3464915E-001	-2.7037677E+002
3	0	2.029997948717937E+002	2.3455934E-001	-2.7039801E+002
3	0	2.034997948591626E+002	2.3447081E-001	-2.7038031E+002
3	0	2.039997948465316E+002	2.3443039E-001	-2.7035913E+002
3	0	2.044997948339005E+002	2.3438753E-001	-2.7037677E+002
3	0	2.049997948212695E+002	2.3434691E-001	-2.7036972E+002
3	0	2.054997948086384E+002	2.3429948E-001	-2.7035913E+002
3	0	2.059997947960073E+002	2.3424539E-001	-2.7037677E+002
3	0	2.064997947833763E+002	2.3418812E-001	-2.7038742E+002
3	0	2.069997947707452E+002	2.3410416E-001	-2.7038031E+002
3	0	2.074997947581141E+002	2.3402120E-001	-2.7037326E+002
3	0	2.079997947454831E+002	2.3398055E-001	-2.7038742E+002
3	0	2.084997947328520E+002	2.3394077E-001	-2.7037677E+002
3	0	2.089997947202210E+002	2.3389952E-001	-2.7039093E+002
3	0	2.094997947075899E+002	2.3385702E-001	-2.7037326E+002
3	0	2.099997946949588E+002	2.3380895E-001	-2.7035913E+002
3	0	2.104997946823278E+002	2.3374899E-001	-2.7038385E+002
3	0	2.109997946696967E+002	2.3366351E-001	-2.7038031E+002
3	0	2.114997946570657E+002	2.3358566E-001	-2.7037326E+002
3	0	2.119997946444346E+002	2.3354550E-001	-2.7037326E+002
3	0	2.124997946318035E+002	2.3350389E-001	-2.7038385E+002
3	0	2.129997946191725E+002	2.3345834E-001	-2.7037677E+002
3	0	2.134997946065414E+002	2.3341846E-001	-2.7038385E+002
3	0	2.139997945939103E+002	2.3337471E-001	-2.7037677E+002
3	0	2.144997945812793E+002	2.3331688E-001	-2.7037326E+002
3	0	2.149997945686482E+002	2.3323585E-001	-2.7038385E+002
3	0	2.154997945560172E+002	2.3315294E-001	-2.7038031E+002
3	0	2.159997945433861E+002	2.3310962E-001	-2.7036618E+002
3	0	2.164997945307550E+002	2.3306717E-001	-2.7036972E+002
3	0	2.169997945181240E+002	2.3301981E-001	-2.7036972E+002
3	0	2.174997945054929E+002	2.3297638E-001	-2.7036618E+002
3	0	2.179997944928618E+002	2.3293082E-001	-2.7038031E+002
3	0	2.184997944802308E+002	2.3287538E-001	-2.7035559E+002
3	0	2.189997944675997E+002	2.3279266E-001	-2.7038031E+002
3	0	2.194997944549687E+002	2.3271039E-001	-2.7039447E+002
3	0	2.199997944423376E+002	2.3266996E-001	-2.7038385E+002
3	0	2.204997944297065E+002	2.3262891E-001	-2.7039093E+002
3	0	2.209997944170755E+002	2.3258929E-001	-2.7039093E+002
3	0	2.214997944044444E+002	2.3254913E-001	-2.7035559E+002
3	0	2.219997943918133E+002	2.3248273E-001	-2.7038385E+002
3	0	2.224997943791823E+002	2.3244213E-001	-2.7039447E+002
3	0	2.229997943665512E+002	2.3237504E-001	-2.7038385E+002
3	0	2.234997943539202E+002	2.3230416E-001	-2.7037677E+002
3	0	2.239997943412891E+002	2.3227872E-001	-2.7038742E+002
3	0	2.244997943286580E+002	2.3224537E-001	-2.7036618E+002
3	0	2.249997943160270E+002	2.3220453E-001	-2.7036972E+002
3	0	2.250001943160169E+002	2.3216297E-001	-2.7039447E+002