EC-Lab ASCII FILE
Nb header lines : 55                          

Open Circuit Voltage

Run on channel : 1 (SN 81504)
User : 
CE vs. WE compliance from -10 V to 10 V
Electrode connection : standard
Potential control : Ewe
Ewe ctrl range : min = -2.50 V, max = 2.50 V
Safety Limits :
	Do not start on E overload
Acquisition started on : 05/08/2026 01:25:27.042
Loaded Setting File :  C:\PEM-WE_measurements\2026\372_IV_IV IrOx, 5 min Pt, 30 min C, etched cathode\new station\Loopeis new\1,46 V different time gaps open cell\Loopeis 1,46V_180s_5_PEIS from 65Hz to 10Hz.mps
Saved on :
	File : L_30_Loopeis 1,46V_180s_5_PEIS from 65Hz to 10Hz_12_OCV_C01.mpr
	Directory : C:\PEM-WE_measurements\2026\372_IV_IV IrOx, 5 min Pt, 30 min C, etched cathode\new station\Loopeis new\1,46 V different time gaps open cell\
	Host : 192.168.0.2
Device : SP-150e (SN .005491)
Address : 192.168.0.91
EC-LAB for windows v11.71 (software)
Internet server v28.00 (firmware)
Command interpretor v14.01 (firmware)
Electrode material : 
Initial state : 
Electrolyte : 
Comments : 
Current amplifier : SP-150eB-20A
Electrode surface area : 0.001 cm²
Characteristic mass : 0.001 g
Equivalent Weight : 0.000 g/eq.
Density : 0.000 g/cm3
Volume (V) : 0.001 cm³
Record Analogic IN 1
Text export
   Mode : Standard
   Time format : Elapsed
Cycle Definition : Charge/Discharge alternance
External device configuration :
   device type : Temperature Probe
   device name : Other
   Analog IN 1 : 
      unit : T/Â°C
      max : 100.000 at 2.000 V
      min : 0.000 at 1.460 V
tR (h:m:s)          0:03:0.0000         
dER/dt (mV/h)       1.0                 
record              <Ewe>               
dER (mV)            10.00               
dtR (s)             0.5000              
E range min (V)     -2.500              
E range max (V)     2.500               

mode	error	time/s	<Ewe/V>	Analog IN 1/V	
3	0	1.184660980927292E+003	1.2249774E+000	-2.7037677E+002
3	0	1.185160980914661E+003	1.1867443E+000	-2.7038385E+002
3	0	1.185660980902030E+003	8.7757123E-001	-2.7037326E+002
3	0	1.186160980889399E+003	4.4622916E-001	-2.7039093E+002
3	0	1.186660980876768E+003	3.4747240E-001	-2.7040155E+002
3	0	1.187160980864137E+003	3.3362180E-001	-2.7039801E+002
3	0	1.187660980851506E+003	3.2555792E-001	-2.7037677E+002
3	0	1.188160980838875E+003	3.1915930E-001	-2.7037326E+002
3	0	1.188660980826244E+003	3.1427702E-001	-2.7039801E+002
3	0	1.189160980813613E+003	3.1054547E-001	-2.7039447E+002
3	0	1.189660980800982E+003	3.0760327E-001	-2.7037326E+002
3	0	1.190160980788351E+003	3.0521277E-001	-2.7036972E+002
3	0	1.190660980775720E+003	3.0323049E-001	-2.7036618E+002
3	0	1.191160980763088E+003	3.0157211E-001	-2.7037326E+002
3	0	1.191660980750457E+003	3.0014476E-001	-2.7038385E+002
3	0	1.192160980737826E+003	2.9889134E-001	-2.7036267E+002
3	0	1.192660980725195E+003	2.9777572E-001	-2.7040155E+002
3	0	1.193160980712564E+003	2.9675585E-001	-2.7035913E+002
3	0	1.193660980699933E+003	2.9580492E-001	-2.7037677E+002
3	0	1.194160980687302E+003	2.9490313E-001	-2.7040860E+002
3	0	1.194660980674671E+003	2.9404446E-001	-2.7036972E+002
3	0	1.195160980662040E+003	2.9327872E-001	-2.7036972E+002
3	0	1.195660980649409E+003	2.9255235E-001	-2.7037326E+002
3	0	1.196160980636778E+003	2.9185724E-001	-2.7038385E+002
3	0	1.196660980624147E+003	2.9118112E-001	-2.7039447E+002
3	0	1.197160980611516E+003	2.9052907E-001	-2.7036972E+002
3	0	1.197660980598885E+003	2.8988847E-001	-2.7037326E+002
3	0	1.198160980586254E+003	2.8923473E-001	-2.7038385E+002
3	0	1.198660980573623E+003	2.8859985E-001	-2.7038385E+002
3	0	1.199160980560991E+003	2.8800568E-001	-2.7038742E+002
3	0	1.199660980548360E+003	2.8742766E-001	-2.7035913E+002
3	0	1.200160980535729E+003	2.8686652E-001	-2.7036618E+002
3	0	1.200660980523098E+003	2.8629845E-001	-2.7036267E+002
3	0	1.201160980510467E+003	2.8574857E-001	-2.7039093E+002
3	0	1.201660980497836E+003	2.8519034E-001	-2.7036267E+002
3	0	1.202160980485205E+003	2.8462365E-001	-2.7037677E+002
3	0	1.202660980472574E+003	2.8405508E-001	-2.7037326E+002
3	0	1.203160980459943E+003	2.8352338E-001	-2.7039801E+002
3	0	1.203660980447312E+003	2.8301528E-001	-2.7036618E+002
3	0	1.204160980434681E+003	2.8251508E-001	-2.7037677E+002
3	0	1.204660980422050E+003	2.8201908E-001	-2.7037326E+002
3	0	1.205160980409419E+003	2.8152135E-001	-2.7037326E+002
3	0	1.205660980396788E+003	2.8101325E-001	-2.7040155E+002
3	0	1.206160980384157E+003	2.8049821E-001	-2.7036618E+002
3	0	1.206660980371526E+003	2.7997848E-001	-2.7036618E+002
3	0	1.207160980358894E+003	2.7951020E-001	-2.7039093E+002
3	0	1.207660980346263E+003	2.7905065E-001	-2.7039801E+002
3	0	1.208160980333632E+003	2.7859208E-001	-2.7037677E+002
3	0	1.208660980321001E+003	2.7813405E-001	-2.7038385E+002
3	0	1.209160980308370E+003	2.7767912E-001	-2.7035913E+002
3	0	1.209660980295739E+003	2.7722368E-001	-2.7035205E+002
3	0	1.210160980283108E+003	2.7674091E-001	-2.7036618E+002
3	0	1.210660980270477E+003	2.7625507E-001	-2.7037326E+002
3	0	1.211160980257846E+003	2.7582207E-001	-2.7038031E+002
3	0	1.211660980245215E+003	2.7539435E-001	-2.7036618E+002
3	0	1.212160980232584E+003	2.7497026E-001	-2.7035913E+002
3	0	1.212660980219953E+003	2.7455279E-001	-2.7039801E+002
3	0	1.213160980207322E+003	2.7413359E-001	-2.7037677E+002
3	0	1.213660980194691E+003	2.7370250E-001	-2.7038742E+002
3	0	1.214160980182060E+003	2.7325717E-001	-2.7039093E+002
3	0	1.214660980169429E+003	2.7281043E-001	-2.7036972E+002
3	0	1.215160980156797E+003	2.7240798E-001	-2.7038742E+002
3	0	1.215660980144166E+003	2.7202252E-001	-2.7038031E+002
3	0	1.216160980131535E+003	2.7162567E-001	-2.7039801E+002
3	0	1.216660980118904E+003	2.7123222E-001	-2.7037677E+002
3	0	1.217160980106273E+003	2.7084771E-001	-2.7040155E+002
3	0	1.217660980093642E+003	2.7045509E-001	-2.7039801E+002
3	0	1.218160980081011E+003	2.7003744E-001	-2.7040506E+002
3	0	1.218660980068380E+003	2.6963076E-001	-2.7036972E+002
3	0	1.219160980055749E+003	2.6925778E-001	-2.7039093E+002
3	0	1.219660980043118E+003	2.6889923E-001	-2.7036972E+002
3	0	1.220160980030487E+003	2.6853657E-001	-2.7036267E+002
3	0	1.220660980017856E+003	2.6817805E-001	-2.7038385E+002
3	0	1.221160980005225E+003	2.6782009E-001	-2.7039093E+002
3	0	1.221660979992594E+003	2.6745570E-001	-2.7039093E+002
3	0	1.222160979979963E+003	2.6707196E-001	-2.7035205E+002
3	0	1.222660979967332E+003	2.6669040E-001	-2.7036972E+002
3	0	1.223160979954700E+003	2.6634508E-001	-2.7037326E+002
3	0	1.223660979942069E+003	2.6601642E-001	-2.7038742E+002
3	0	1.224160979929438E+003	2.6568556E-001	-2.7040155E+002
3	0	1.224660979916807E+003	2.6535144E-001	-2.7036972E+002
3	0	1.225160979904176E+003	2.6502177E-001	-2.7040155E+002
3	0	1.225660979891545E+003	2.6469478E-001	-2.7038385E+002
3	0	1.226160979878914E+003	2.6434889E-001	-2.7036972E+002
3	0	1.226660979866283E+003	2.6399577E-001	-2.7036618E+002
3	0	1.227160979853652E+003	2.6368561E-001	-2.7038742E+002
3	0	1.227660979841021E+003	2.6338696E-001	-2.7036972E+002
3	0	1.228160979828390E+003	2.6308340E-001	-2.7038031E+002
3	0	1.228660979815759E+003	2.6278269E-001	-2.7038742E+002
3	0	1.229160979803128E+003	2.6248226E-001	-2.7040860E+002
3	0	1.229660979790497E+003	2.6217633E-001	-2.7037677E+002
3	0	1.230160979777866E+003	2.6185229E-001	-2.7036267E+002
3	0	1.230660979765235E+003	2.6153195E-001	-2.7037677E+002
3	0	1.231160979752603E+003	2.6124069E-001	-2.7037677E+002
3	0	1.231660979739972E+003	2.6096746E-001	-2.7038031E+002
3	0	1.232160979727341E+003	2.6069248E-001	-2.7035913E+002
3	0	1.232660979714710E+003	2.6041666E-001	-2.7037326E+002
3	0	1.233160979702079E+003	2.6013961E-001	-2.7037677E+002
3	0	1.233660979689448E+003	2.5986078E-001	-2.7038031E+002
3	0	1.234160979676817E+003	2.5956768E-001	-2.7039093E+002
3	0	1.234660979664186E+003	2.5926682E-001	-2.7037326E+002
3	0	1.235160979651555E+003	2.5900859E-001	-2.7039447E+002
3	0	1.235660979638924E+003	2.5876132E-001	-2.7038385E+002
3	0	1.236160979626293E+003	2.5850612E-001	-2.7038385E+002
3	0	1.236660979613662E+003	2.5825340E-001	-2.7039801E+002
3	0	1.237160979601031E+003	2.5800407E-001	-2.7041214E+002
3	0	1.237660979588400E+003	2.5774831E-001	-2.7036267E+002
3	0	1.238160979575769E+003	2.5746629E-001	-2.7038031E+002
3	0	1.238660979563138E+003	2.5718960E-001	-2.7039447E+002
3	0	1.239160979550506E+003	2.5694847E-001	-2.7036267E+002
3	0	1.239660979537875E+003	2.5672269E-001	-2.7037326E+002
3	0	1.240160979525244E+003	2.5649041E-001	-2.7039801E+002
3	0	1.240660979512613E+003	2.5625458E-001	-2.7038385E+002
3	0	1.241160979499982E+003	2.5602078E-001	-2.7038031E+002
3	0	1.241660979487351E+003	2.5577378E-001	-2.7037326E+002
3	0	1.242160979474720E+003	2.5551349E-001	-2.7038031E+002
3	0	1.242660979462089E+003	2.5525406E-001	-2.7038385E+002
3	0	1.243160979449458E+003	2.5502944E-001	-2.7038031E+002
3	0	1.243660979436827E+003	2.5482276E-001	-2.7039093E+002
3	0	1.244160979424196E+003	2.5460953E-001	-2.7035205E+002
3	0	1.244660979411565E+003	2.5439489E-001	-2.7039093E+002
3	0	1.245160979398934E+003	2.5418964E-001	-2.7036618E+002
3	0	1.245660979386303E+003	2.5397247E-001	-2.7037677E+002
3	0	1.246160979373672E+003	2.5373238E-001	-2.7036972E+002
3	0	1.246660979361041E+003	2.5348982E-001	-2.7037326E+002
3	0	1.247160979348409E+003	2.5328672E-001	-2.7038742E+002
3	0	1.247660979335778E+003	2.5310302E-001	-2.7036972E+002
3	0	1.248160979323147E+003	2.5290984E-001	-2.7035559E+002
3	0	1.248660979310516E+003	2.5271472E-001	-2.7038742E+002
3	0	1.249160979297885E+003	2.5251812E-001	-2.7036267E+002
3	0	1.249660979285254E+003	2.5231963E-001	-2.7039093E+002
3	0	1.250160979272623E+003	2.5209531E-001	-2.7040506E+002
3	0	1.250660979259992E+003	2.5187111E-001	-2.7037677E+002
3	0	1.251160979247361E+003	2.5168908E-001	-2.7036972E+002
3	0	1.251660979234730E+003	2.5151744E-001	-2.7037326E+002
3	0	1.252160979222099E+003	2.5133771E-001	-2.7035559E+002
3	0	1.252660979209468E+003	2.5115886E-001	-2.7038742E+002
3	0	1.253160979196837E+003	2.5097674E-001	-2.7035205E+002
3	0	1.253660979184206E+003	2.5078112E-001	-2.7039447E+002
3	0	1.254160979171575E+003	2.5057629E-001	-2.7037326E+002
3	0	1.254660979158944E+003	2.5036252E-001	-2.7038385E+002
3	0	1.255160979146312E+003	2.5019211E-001	-2.7036267E+002
3	0	1.255660979133681E+003	2.5003156E-001	-2.7038385E+002
3	0	1.256160979121050E+003	2.4987413E-001	-2.7034497E+002
3	0	1.256660979108419E+003	2.4970563E-001	-2.7036618E+002
3	0	1.257160979095788E+003	2.4954347E-001	-2.7038742E+002
3	0	1.257660979083157E+003	2.4937142E-001	-2.7036972E+002
3	0	1.258160979070526E+003	2.4917589E-001	-2.7039447E+002
3	0	1.258660979057895E+003	2.4897875E-001	-2.7037326E+002
3	0	1.259160979045264E+003	2.4882767E-001	-2.7036618E+002
3	0	1.259660979032633E+003	2.4867886E-001	-2.7039447E+002
3	0	1.260160979020002E+003	2.4852413E-001	-2.7035559E+002
3	0	1.260660979007371E+003	2.4836653E-001	-2.7038031E+002
3	0	1.261160978994740E+003	2.4820745E-001	-2.7038031E+002
3	0	1.261660978982109E+003	2.4803671E-001	-2.7036267E+002
3	0	1.262160978969478E+003	2.4785461E-001	-2.7037326E+002
3	0	1.262660978956847E+003	2.4766172E-001	-2.7037326E+002
3	0	1.263160978944215E+003	2.4751696E-001	-2.7036972E+002
3	0	1.263660978931584E+003	2.4738236E-001	-2.7038385E+002
3	0	1.264160978918953E+003	2.4723883E-001	-2.7036972E+002
3	0	1.264660978906322E+003	2.4709700E-001	-2.7037677E+002
3	0	1.265160978893691E+003	2.4695167E-001	-2.7037326E+002
3	0	1.265660978881060E+003	2.4679534E-001	-2.7040506E+002
3	0	1.266160978868429E+003	2.4662067E-001	-2.7038385E+002
3	0	1.266660978855798E+003	2.4644420E-001	-2.7036267E+002
3	0	1.267160978843167E+003	2.4631064E-001	-2.7039801E+002
3	0	1.267660978830536E+003	2.4618196E-001	-2.7039447E+002
3	0	1.268160978817905E+003	2.4604464E-001	-2.7036618E+002
3	0	1.268660978805274E+003	2.4591032E-001	-2.7038031E+002
3	0	1.269160978792643E+003	2.4578294E-001	-2.7039093E+002
3	0	1.269660978780012E+003	2.4564114E-001	-2.7036618E+002
3	0	1.270160978767381E+003	2.4548714E-001	-2.7038385E+002
3	0	1.270660978754750E+003	2.4531928E-001	-2.7036972E+002
3	0	1.271160978742118E+003	2.4519423E-001	-2.7038031E+002
3	0	1.271660978729487E+003	2.4507886E-001	-2.7035913E+002
3	0	1.272160978716856E+003	2.4495456E-001	-2.7038031E+002
3	0	1.272660978704225E+003	2.4483468E-001	-2.7037677E+002
3	0	1.273160978691594E+003	2.4470916E-001	-2.7036618E+002
3	0	1.273660978678963E+003	2.4457628E-001	-2.7037677E+002
3	0	1.274160978666332E+003	2.4442177E-001	-2.7038385E+002
3	0	1.274660978653701E+003	2.4426980E-001	-2.7038031E+002
3	0	1.275160978641070E+003	2.4415411E-001	-2.7036972E+002
3	0	1.275660978628439E+003	2.4405082E-001	-2.7039447E+002
3	0	1.276160978615808E+003	2.4393634E-001	-2.7039093E+002
3	0	1.276660978603177E+003	2.4382403E-001	-2.7038742E+002
3	0	1.277160978590546E+003	2.4370594E-001	-2.7039801E+002
3	0	1.277660978577915E+003	2.4357897E-001	-2.7038031E+002
3	0	1.278160978565284E+003	2.4343361E-001	-2.7039447E+002
3	0	1.278660978552653E+003	2.4328279E-001	-2.7039093E+002
3	0	1.279160978540021E+003	2.4317968E-001	-2.7038742E+002
3	0	1.279660978527390E+003	2.4307647E-001	-2.7036267E+002
3	0	1.280160978514759E+003	2.4296725E-001	-2.7039801E+002
3	0	1.280660978502128E+003	2.4285784E-001	-2.7035913E+002
3	0	1.281160978489497E+003	2.4274693E-001	-2.7035559E+002
3	0	1.281660978476866E+003	2.4263071E-001	-2.7035559E+002
3	0	1.282160978464235E+003	2.4248084E-001	-2.7036618E+002
3	0	1.282660978451604E+003	2.4233919E-001	-2.7038031E+002
3	0	1.283160978438973E+003	2.4222992E-001	-2.7041214E+002
3	0	1.283660978426342E+003	2.4213280E-001	-2.7037326E+002
3	0	1.284160978413711E+003	2.4202989E-001	-2.7036972E+002
3	0	1.284660978401080E+003	2.4192995E-001	-2.7037326E+002
3	0	1.285160978388449E+003	2.4183111E-001	-2.7036972E+002
3	0	1.285660978375818E+003	2.4172027E-001	-2.7039093E+002
3	0	1.286160978363187E+003	2.4158409E-001	-2.7037677E+002
3	0	1.286660978350556E+003	2.4144933E-001	-2.7037326E+002
3	0	1.287160978337924E+003	2.4135593E-001	-2.7038742E+002
3	0	1.287660978325293E+003	2.4127123E-001	-2.7038385E+002
3	0	1.288160978312662E+003	2.4117769E-001	-2.7037677E+002
3	0	1.288660978300031E+003	2.4108285E-001	-2.7039801E+002
3	0	1.289160978287400E+003	2.4099191E-001	-2.7036972E+002
3	0	1.289660978274769E+003	2.4088731E-001	-2.7038031E+002
3	0	1.290160978262138E+003	2.4076325E-001	-2.7040860E+002
3	0	1.290660978249507E+003	2.4064037E-001	-2.7039801E+002
3	0	1.291160978236876E+003	2.4054439E-001	-2.7036972E+002
3	0	1.291660978224245E+003	2.4046151E-001	-2.7038031E+002
3	0	1.292160978211614E+003	2.4037406E-001	-2.7037677E+002
3	0	1.292660978198983E+003	2.4029139E-001	-2.7038031E+002
3	0	1.293160978186352E+003	2.4020503E-001	-2.7036267E+002
3	0	1.293660978173721E+003	2.4010827E-001	-2.7036267E+002
3	0	1.294160978161090E+003	2.3998865E-001	-2.7037677E+002
3	0	1.294660978148459E+003	2.3986043E-001	-2.7035913E+002
3	0	1.295160978135827E+003	2.3977748E-001	-2.7037677E+002
3	0	1.295660978123196E+003	2.3969953E-001	-2.7037326E+002
3	0	1.296160978110565E+003	2.3962572E-001	-2.7039093E+002
3	0	1.296660978097934E+003	2.3954281E-001	-2.7038031E+002
3	0	1.297160978085303E+003	2.3945758E-001	-2.7038385E+002
3	0	1.297660978072672E+003	2.3935372E-001	-2.7037326E+002
3	0	1.298160978060041E+003	2.3923707E-001	-2.7037326E+002
3	0	1.298660978047410E+003	2.3911832E-001	-2.7038742E+002
3	0	1.299160978034779E+003	2.3904137E-001	-2.7039093E+002
3	0	1.299660978022148E+003	2.3896508E-001	-2.7037677E+002
3	0	1.300160978009517E+003	2.3888738E-001	-2.7036618E+002
3	0	1.300660977996886E+003	2.3880245E-001	-2.7039447E+002
3	0	1.301160977984255E+003	2.3872194E-001	-2.7038031E+002
3	0	1.301660977971624E+003	2.3861910E-001	-2.7036972E+002
3	0	1.302160977958993E+003	2.3849945E-001	-2.7040155E+002
3	0	1.302660977946362E+003	2.3837979E-001	-2.7036267E+002
3	0	1.303160977933730E+003	2.3829579E-001	-2.7040155E+002
3	0	1.303660977921099E+003	2.3822612E-001	-2.7037677E+002
3	0	1.304160977908468E+003	2.3815151E-001	-2.7037677E+002
3	0	1.304660977895837E+003	2.3807479E-001	-2.7039093E+002
3	0	1.305160977883206E+003	2.3799725E-001	-2.7037326E+002
3	0	1.305660977870575E+003	2.3790677E-001	-2.7036972E+002
3	0	1.306160977857944E+003	2.3779818E-001	-2.7038742E+002
3	0	1.306660977845313E+003	2.3767972E-001	-2.7035559E+002
3	0	1.307160977832682E+003	2.3760429E-001	-2.7037326E+002
3	0	1.307660977820051E+003	2.3753785E-001	-2.7036972E+002
3	0	1.308160977807420E+003	2.3746966E-001	-2.7039801E+002
3	0	1.308660977794789E+003	2.3739532E-001	-2.7037326E+002
3	0	1.309160977782158E+003	2.3731957E-001	-2.7035913E+002
3	0	1.309660977769527E+003	2.3723687E-001	-2.7037677E+002
3	0	1.310160977756896E+003	2.3712718E-001	-2.7038031E+002
3	0	1.310660977744265E+003	2.3702006E-001	-2.7036972E+002
3	0	1.311160977731633E+003	2.3694940E-001	-2.7035205E+002
3	0	1.311660977719002E+003	2.3688978E-001	-2.7035205E+002
3	0	1.312160977706371E+003	2.3682269E-001	-2.7036972E+002
3	0	1.312660977693740E+003	2.3675470E-001	-2.7039093E+002
3	0	1.313160977681109E+003	2.3669605E-001	-2.7038031E+002
3	0	1.313660977668478E+003	2.3661137E-001	-2.7038385E+002
3	0	1.314160977655847E+003	2.3650980E-001	-2.7038385E+002
3	0	1.314660977643216E+003	2.3640032E-001	-2.7038385E+002
3	0	1.315160977630585E+003	2.3632902E-001	-2.7035913E+002
3	0	1.315660977617954E+003	2.3627059E-001	-2.7036972E+002
3	0	1.316160977605323E+003	2.3620795E-001	-2.7036618E+002
3	0	1.316660977592692E+003	2.3614174E-001	-2.7038385E+002
3	0	1.317160977580061E+003	2.3607735E-001	-2.7037326E+002
3	0	1.317660977567430E+003	2.3600504E-001	-2.7037326E+002
3	0	1.318160977554799E+003	2.3590048E-001	-2.7037326E+002
3	0	1.318660977542168E+003	2.3579735E-001	-2.7038031E+002
3	0	1.319160977529536E+003	2.3574205E-001	-2.7034851E+002
3	0	1.319660977516905E+003	2.3568468E-001	-2.7038031E+002
3	0	1.320160977504274E+003	2.3562506E-001	-2.7034143E+002
3	0	1.320660977491643E+003	2.3556039E-001	-2.7036267E+002
3	0	1.321160977479012E+003	2.3549430E-001	-2.7038742E+002
3	0	1.321660977466381E+003	2.3541816E-001	-2.7037677E+002
3	0	1.322160977453750E+003	2.3532528E-001	-2.7038742E+002
3	0	1.322660977441119E+003	2.3521525E-001	-2.7037677E+002
3	0	1.323160977428488E+003	2.3514816E-001	-2.7039093E+002
3	0	1.323660977415857E+003	2.3508577E-001	-2.7037326E+002
3	0	1.324160977403226E+003	2.3502655E-001	-2.7039093E+002
3	0	1.324660977390595E+003	2.3496012E-001	-2.7038742E+002
3	0	1.325160977377964E+003	2.3489933E-001	-2.7037677E+002
3	0	1.325660977365333E+003	2.3482609E-001	-2.7039447E+002
3	0	1.326160977352702E+003	2.3472288E-001	-2.7038742E+002
3	0	1.326660977340071E+003	2.3462166E-001	-2.7039447E+002
3	0	1.327160977327439E+003	2.3456627E-001	-2.7038742E+002
3	0	1.327660977314808E+003	2.3451087E-001	-2.7040155E+002
3	0	1.328160977302177E+003	2.3446107E-001	-2.7036618E+002
3	0	1.328660977289546E+003	2.3440482E-001	-2.7037326E+002
3	0	1.329160977276915E+003	2.3434757E-001	-2.7037677E+002
3	0	1.329660977264284E+003	2.3427713E-001	-2.7039093E+002
3	0	1.330160977251653E+003	2.3418817E-001	-2.7038385E+002
3	0	1.330660977239022E+003	2.3408476E-001	-2.7040155E+002
3	0	1.331160977226391E+003	2.3403111E-001	-2.7036972E+002
3	0	1.331660977213760E+003	2.3398082E-001	-2.7038031E+002
3	0	1.332160977201129E+003	2.3393063E-001	-2.7038031E+002
3	0	1.332660977188498E+003	2.3387723E-001	-2.7038385E+002
3	0	1.333160977175867E+003	2.3381916E-001	-2.7037677E+002
3	0	1.333660977163236E+003	2.3374942E-001	-2.7039447E+002
3	0	1.334160977150605E+003	2.3366009E-001	-2.7036267E+002
3	0	1.334660977137974E+003	2.3356190E-001	-2.7039093E+002
3	0	1.335160977125342E+003	2.3350629E-001	-2.7039093E+002
3	0	1.335660977112711E+003	2.3345782E-001	-2.7038385E+002
3	0	1.336160977100080E+003	2.3341529E-001	-2.7038031E+002
3	0	1.336660977087449E+003	2.3336659E-001	-2.7039447E+002
3	0	1.337160977074818E+003	2.3331881E-001	-2.7038031E+002
3	0	1.337660977062187E+003	2.3325233E-001	-2.7038031E+002
3	0	1.338160977049556E+003	2.3316652E-001	-2.7035913E+002
3	0	1.338660977036925E+003	2.3307310E-001	-2.7040860E+002
3	0	1.339160977024294E+003	2.3301847E-001	-2.7038742E+002
3	0	1.339660977011663E+003	2.3297891E-001	-2.7038031E+002
3	0	1.340160976999032E+003	2.3292945E-001	-2.7036618E+002
3	0	1.340660976986401E+003	2.3287897E-001	-2.7038031E+002
3	0	1.341160976973770E+003	2.3282318E-001	-2.7037326E+002
3	0	1.341660976961139E+003	2.3275648E-001	-2.7037677E+002
3	0	1.342160976948508E+003	2.3266783E-001	-2.7035913E+002
3	0	1.342660976935877E+003	2.3256707E-001	-2.7036972E+002
3	0	1.343160976923245E+003	2.3250511E-001	-2.7039447E+002
3	0	1.343660976910614E+003	2.3245613E-001	-2.7038385E+002
3	0	1.344160976897983E+003	2.3240626E-001	-2.7038031E+002
3	0	1.344660976885352E+003	2.3235387E-001	-2.7039801E+002
3	0	1.345160976872721E+003	2.3229574E-001	-2.7039447E+002
3	0	1.345660976860090E+003	2.3223136E-001	-2.7036972E+002
3	0	1.346160976847459E+003	2.3214740E-001	-2.7038031E+002
3	0	1.346660976834828E+003	2.3205644E-001	-2.7038031E+002
3	0	1.347160976822197E+003	2.3200265E-001	-2.7039093E+002
3	0	1.347660976809566E+003	2.3195516E-001	-2.7037326E+002
3	0	1.348160976796935E+003	2.3191755E-001	-2.7035205E+002
3	0	1.348660976784304E+003	2.3187113E-001	-2.7037677E+002
3	0	1.349160976771673E+003	2.3182236E-001	-2.7037326E+002
3	0	1.349660976759042E+003	2.3175794E-001	-2.7037677E+002
3	0	1.350160976746411E+003	2.3167162E-001	-2.7039447E+002
3	0	1.350660976733780E+003	2.3157685E-001	-2.7035913E+002
3	0	1.351160976721148E+003	2.3152649E-001	-2.7036618E+002
3	0	1.351660976708517E+003	2.3148319E-001	-2.7038385E+002
3	0	1.352160976695886E+003	2.3144062E-001	-2.7036618E+002
3	0	1.352660976683255E+003	2.3139149E-001	-2.7036618E+002
3	0	1.353160976670624E+003	2.3134488E-001	-2.7037326E+002
3	0	1.353660976657993E+003	2.3128353E-001	-2.7038385E+002
3	0	1.354160976645362E+003	2.3119847E-001	-2.7038742E+002
3	0	1.354660976632731E+003	2.3110768E-001	-2.7039093E+002
3	0	1.355160976620100E+003	2.3106034E-001	-2.7039447E+002
3	0	1.355660976607469E+003	2.3101766E-001	-2.7038385E+002
3	0	1.356160976594838E+003	2.3098184E-001	-2.7039093E+002
3	0	1.356660976582207E+003	2.3093991E-001	-2.7037677E+002
3	0	1.357160976569576E+003	2.3089047E-001	-2.7037677E+002
3	0	1.357660976556945E+003	2.3082855E-001	-2.7037677E+002
3	0	1.358160976544314E+003	2.3074466E-001	-2.7037326E+002
3	0	1.358660976531683E+003	2.3065753E-001	-2.7033789E+002
3	0	1.359160976519051E+003	2.3060659E-001	-2.7036618E+002
3	0	1.359660976506420E+003	2.3057210E-001	-2.7041919E+002
3	0	1.360160976493789E+003	2.3053461E-001	-2.7038031E+002
3	0	1.360660976481158E+003	2.3048595E-001	-2.7036267E+002
3	0	1.361160976468527E+003	2.3044457E-001	-2.7037677E+002
3	0	1.361660976455896E+003	2.3037757E-001	-2.7038742E+002
3	0	1.362160976443265E+003	2.3029025E-001	-2.7039093E+002
3	0	1.362660976430634E+003	2.3019886E-001	-2.7035913E+002
3	0	1.363160976418003E+003	2.3014501E-001	-2.7037677E+002
3	0	1.363660976405372E+003	2.3010077E-001	-2.7038385E+002
3	0	1.364160976392741E+003	2.3005383E-001	-2.7038385E+002
3	0	1.364185576392119E+003	2.3003371E-001	-2.7037326E+002