EC-Lab ASCII FILE
Nb header lines : 55                          

Open Circuit Voltage

Run on channel : 1 (SN 81504)
User : 
CE vs. WE compliance from -10 V to 10 V
Electrode connection : standard
Potential control : Ewe
Ewe ctrl range : min = -2.50 V, max = 2.50 V
Safety Limits :
	Do not start on E overload
Acquisition started on : 05/08/2026 01:25:27.042
Loaded Setting File :  C:\PEM-WE_measurements\2026\372_IV_IV IrOx, 5 min Pt, 30 min C, etched cathode\new station\Loopeis new\1,46 V different time gaps open cell\Loopeis 1,46V_180s_5_PEIS from 65Hz to 10Hz.mps
Saved on :
	File : L_30_Loopeis 1,46V_180s_5_PEIS from 65Hz to 10Hz_08_OCV_C01.mpr
	Directory : C:\PEM-WE_measurements\2026\372_IV_IV IrOx, 5 min Pt, 30 min C, etched cathode\new station\Loopeis new\1,46 V different time gaps open cell\
	Host : 192.168.0.2
Device : SP-150e (SN .005491)
Address : 192.168.0.91
EC-LAB for windows v11.71 (software)
Internet server v28.00 (firmware)
Command interpretor v14.01 (firmware)
Electrode material : 
Initial state : 
Electrolyte : 
Comments : 
Current amplifier : SP-150eB-20A
Electrode surface area : 0.001 cm²
Characteristic mass : 0.001 g
Equivalent Weight : 0.000 g/eq.
Density : 0.000 g/cm3
Volume (V) : 0.001 cm³
Record Analogic IN 1
Text export
   Mode : Standard
   Time format : Elapsed
Cycle Definition : Charge/Discharge alternance
External device configuration :
   device type : Temperature Probe
   device name : Other
   Analog IN 1 : 
      unit : T/Â°C
      max : 100.000 at 2.000 V
      min : 0.000 at 1.460 V
tR (h:m:s)          0:03:0.0000         
dER/dt (mV/h)       1.0                 
record              <Ewe>               
dER (mV)            10.00               
dtR (s)             0.5000              
E range min (V)     -2.500              
E range max (V)     2.500               

mode	error	time/s	<Ewe/V>	Analog IN 1/V	
3	0	7.330153889429494E+002	1.2254820E+000	-2.7037326E+002
3	0	7.335153889303183E+002	1.1886009E+000	-2.7036618E+002
3	0	7.340153889176872E+002	8.8714635E-001	-2.7038031E+002
3	0	7.345153889050562E+002	4.5036116E-001	-2.7038385E+002
3	0	7.350153888924251E+002	3.4828731E-001	-2.7038385E+002
3	0	7.355153888797940E+002	3.3418894E-001	-2.7035913E+002
3	0	7.360153888671630E+002	3.2605296E-001	-2.7036618E+002
3	0	7.365153888545319E+002	3.1958839E-001	-2.7035913E+002
3	0	7.370153888419009E+002	3.1465480E-001	-2.7036972E+002
3	0	7.375153888292698E+002	3.1087944E-001	-2.7036618E+002
3	0	7.380153888166387E+002	3.0789667E-001	-2.7037677E+002
3	0	7.385153888040077E+002	3.0547249E-001	-2.7038742E+002
3	0	7.390153887913766E+002	3.0347341E-001	-2.7036618E+002
3	0	7.395153887787455E+002	3.0180541E-001	-2.7039093E+002
3	0	7.400153887661145E+002	3.0037016E-001	-2.7039447E+002
3	0	7.405153887534834E+002	2.9909739E-001	-2.7039093E+002
3	0	7.410153887408524E+002	2.9797465E-001	-2.7038385E+002
3	0	7.415153887282213E+002	2.9694661E-001	-2.7036972E+002
3	0	7.420153887155902E+002	2.9598710E-001	-2.7039093E+002
3	0	7.425153887029592E+002	2.9507485E-001	-2.7036267E+002
3	0	7.430153886903281E+002	2.9422778E-001	-2.7038385E+002
3	0	7.435153886776970E+002	2.9345855E-001	-2.7039093E+002
3	0	7.440153886650660E+002	2.9273075E-001	-2.7038742E+002
3	0	7.445153886524349E+002	2.9203001E-001	-2.7038031E+002
3	0	7.450153886398039E+002	2.9135194E-001	-2.7039093E+002
3	0	7.455153886271728E+002	2.9069170E-001	-2.7036267E+002
3	0	7.460153886145417E+002	2.9003796E-001	-2.7036972E+002
3	0	7.465153886019107E+002	2.8938517E-001	-2.7036972E+002
3	0	7.470153885892796E+002	2.8875503E-001	-2.7037326E+002
3	0	7.475153885766485E+002	2.8816432E-001	-2.7035559E+002
3	0	7.480153885640175E+002	2.8758743E-001	-2.7038742E+002
3	0	7.485153885513864E+002	2.8702196E-001	-2.7038031E+002
3	0	7.490153885387554E+002	2.8644374E-001	-2.7042273E+002
3	0	7.495153885261243E+002	2.8587592E-001	-2.7038031E+002
3	0	7.500153885134932E+002	2.8533003E-001	-2.7039093E+002
3	0	7.505153885008622E+002	2.8476882E-001	-2.7037677E+002
3	0	7.510153884882311E+002	2.8422758E-001	-2.7036618E+002
3	0	7.515153884756000E+002	2.8371182E-001	-2.7035559E+002
3	0	7.520153884629690E+002	2.8319576E-001	-2.7036267E+002
3	0	7.525153884503379E+002	2.8268400E-001	-2.7037677E+002
3	0	7.530153884377069E+002	2.8218737E-001	-2.7037326E+002
3	0	7.535153884250758E+002	2.8168458E-001	-2.7039093E+002
3	0	7.540153884124447E+002	2.8116757E-001	-2.7041214E+002
3	0	7.545153883998137E+002	2.8064311E-001	-2.7036618E+002
3	0	7.550153883871826E+002	2.8013900E-001	-2.7037326E+002
3	0	7.555153883745515E+002	2.7967313E-001	-2.7035559E+002
3	0	7.560153883619205E+002	2.7919614E-001	-2.7037326E+002
3	0	7.565153883492894E+002	2.7873179E-001	-2.7037326E+002
3	0	7.570153883366584E+002	2.7826971E-001	-2.7038385E+002
3	0	7.575153883240273E+002	2.7780223E-001	-2.7036618E+002
3	0	7.580153883113962E+002	2.7733037E-001	-2.7038385E+002
3	0	7.585153882987652E+002	2.7684739E-001	-2.7037677E+002
3	0	7.590153882861341E+002	2.7637577E-001	-2.7036972E+002
3	0	7.595153882735030E+002	2.7594405E-001	-2.7038031E+002
3	0	7.600153882608720E+002	2.7550864E-001	-2.7037677E+002
3	0	7.605153882482409E+002	2.7507946E-001	-2.7039447E+002
3	0	7.610153882356099E+002	2.7466163E-001	-2.7037677E+002
3	0	7.615153882229788E+002	2.7423581E-001	-2.7039801E+002
3	0	7.620153882103477E+002	2.7379099E-001	-2.7039093E+002
3	0	7.625153881977167E+002	2.7334648E-001	-2.7037677E+002
3	0	7.630153881850856E+002	2.7291411E-001	-2.7038385E+002
3	0	7.635153881724546E+002	2.7251801E-001	-2.7039447E+002
3	0	7.640153881598235E+002	2.7212158E-001	-2.7036267E+002
3	0	7.645153881471924E+002	2.7172455E-001	-2.7038742E+002
3	0	7.650153881345614E+002	2.7132598E-001	-2.7035205E+002
3	0	7.655153881219303E+002	2.7093872E-001	-2.7037677E+002
3	0	7.660153881092992E+002	2.7053949E-001	-2.7037677E+002
3	0	7.665153880966682E+002	2.7011603E-001	-2.7036618E+002
3	0	7.670153880840371E+002	2.6972723E-001	-2.7040155E+002
3	0	7.675153880714061E+002	2.6936543E-001	-2.7038742E+002
3	0	7.680153880587750E+002	2.6898873E-001	-2.7036972E+002
3	0	7.685153880461439E+002	2.6863235E-001	-2.7038742E+002
3	0	7.690153880335129E+002	2.6827478E-001	-2.7037677E+002
3	0	7.695153880208818E+002	2.6791131E-001	-2.7038031E+002
3	0	7.700153880082507E+002	2.6753423E-001	-2.7038385E+002
3	0	7.705153879956197E+002	2.6714826E-001	-2.7038385E+002
3	0	7.710153879829886E+002	2.6678321E-001	-2.7038385E+002
3	0	7.715153879703576E+002	2.6644719E-001	-2.7037677E+002
3	0	7.720153879577265E+002	2.6610598E-001	-2.7038742E+002
3	0	7.725153879450954E+002	2.6577955E-001	-2.7038031E+002
3	0	7.730153879324644E+002	2.6544771E-001	-2.7034851E+002
3	0	7.735153879198333E+002	2.6510805E-001	-2.7036972E+002
3	0	7.740153879072022E+002	2.6476398E-001	-2.7036618E+002
3	0	7.745153878945712E+002	2.6440817E-001	-2.7040155E+002
3	0	7.750153878819401E+002	2.6407665E-001	-2.7038385E+002
3	0	7.755153878693091E+002	2.6377112E-001	-2.7040860E+002
3	0	7.760153878566780E+002	2.6346397E-001	-2.7037326E+002
3	0	7.765153878440469E+002	2.6315510E-001	-2.7036972E+002
3	0	7.770153878314159E+002	2.6284885E-001	-2.7036972E+002
3	0	7.775153878187848E+002	2.6254511E-001	-2.7041214E+002
3	0	7.780153878061537E+002	2.6222053E-001	-2.7038385E+002
3	0	7.785153877935227E+002	2.6188645E-001	-2.7036972E+002
3	0	7.790153877808916E+002	2.6157579E-001	-2.7038385E+002
3	0	7.795153877682606E+002	2.6129451E-001	-2.7038031E+002
3	0	7.800153877556295E+002	2.6100484E-001	-2.7036972E+002
3	0	7.805153877429984E+002	2.6072255E-001	-2.7038385E+002
3	0	7.810153877303674E+002	2.6044425E-001	-2.7038385E+002
3	0	7.815153877177363E+002	2.6016250E-001	-2.7037326E+002
3	0	7.820153877051052E+002	2.5986794E-001	-2.7038031E+002
3	0	7.825153876924742E+002	2.5956607E-001	-2.7035913E+002
3	0	7.830153876798431E+002	2.5928670E-001	-2.7038742E+002
3	0	7.835153876672121E+002	2.5903460E-001	-2.7036972E+002
3	0	7.840153876545810E+002	2.5877616E-001	-2.7039447E+002
3	0	7.845153876419499E+002	2.5852680E-001	-2.7039093E+002
3	0	7.850153876293189E+002	2.5826874E-001	-2.7040506E+002
3	0	7.855153876166878E+002	2.5801641E-001	-2.7038385E+002
3	0	7.860153876040567E+002	2.5774413E-001	-2.7037326E+002
3	0	7.865153875914257E+002	2.5745758E-001	-2.7040506E+002
3	0	7.870153875787946E+002	2.5719786E-001	-2.7036618E+002
3	0	7.875153875661636E+002	2.5696874E-001	-2.7036972E+002
3	0	7.880153875535325E+002	2.5673538E-001	-2.7042981E+002
3	0	7.885153875409014E+002	2.5649905E-001	-2.7036972E+002
3	0	7.890153875282704E+002	2.5627235E-001	-2.7039447E+002
3	0	7.895153875156393E+002	2.5604245E-001	-2.7038031E+002
3	0	7.900153875030082E+002	2.5579005E-001	-2.7039093E+002
3	0	7.905153874903772E+002	2.5552183E-001	-2.7040860E+002
3	0	7.910153874777461E+002	2.5528541E-001	-2.7038385E+002
3	0	7.915153874651151E+002	2.5507540E-001	-2.7037326E+002
3	0	7.920153874524840E+002	2.5486320E-001	-2.7038031E+002
3	0	7.925153874398529E+002	2.5465208E-001	-2.7037677E+002
3	0	7.930153874272219E+002	2.5444165E-001	-2.7038742E+002
3	0	7.935153874145908E+002	2.5423768E-001	-2.7038031E+002
3	0	7.940153874019597E+002	2.5400960E-001	-2.7037326E+002
3	0	7.945153873893287E+002	2.5376591E-001	-2.7038031E+002
3	0	7.950153873766976E+002	2.5354743E-001	-2.7036972E+002
3	0	7.955153873640666E+002	2.5335467E-001	-2.7037677E+002
3	0	7.960153873514355E+002	2.5315163E-001	-2.7039093E+002
3	0	7.965153873388044E+002	2.5296009E-001	-2.7037677E+002
3	0	7.970153873261734E+002	2.5276402E-001	-2.7039093E+002
3	0	7.975153873135423E+002	2.5256062E-001	-2.7040506E+002
3	0	7.980153873009112E+002	2.5234953E-001	-2.7037677E+002
3	0	7.985153872882802E+002	2.5211701E-001	-2.7039093E+002
3	0	7.990153872756491E+002	2.5190434E-001	-2.7036618E+002
3	0	7.995153872630181E+002	2.5172344E-001	-2.7035913E+002
3	0	8.000153872503870E+002	2.5153655E-001	-2.7039093E+002
3	0	8.005153872377559E+002	2.5135407E-001	-2.7038385E+002
3	0	8.010153872251249E+002	2.5117487E-001	-2.7040155E+002
3	0	8.015153872124938E+002	2.5099397E-001	-2.7038031E+002
3	0	8.020153871998627E+002	2.5079623E-001	-2.7040155E+002
3	0	8.025153871872317E+002	2.5058511E-001	-2.7041214E+002
3	0	8.030153871746006E+002	2.5039729E-001	-2.7040860E+002
3	0	8.035153871619696E+002	2.5023437E-001	-2.7038031E+002
3	0	8.040153871493385E+002	2.5006524E-001	-2.7038385E+002
3	0	8.045153871367074E+002	2.4990112E-001	-2.7036972E+002
3	0	8.050153871240764E+002	2.4974421E-001	-2.7037326E+002
3	0	8.055153871114453E+002	2.4957445E-001	-2.7037326E+002
3	0	8.060153870988142E+002	2.4939066E-001	-2.7038742E+002
3	0	8.065153870861832E+002	2.4919310E-001	-2.7035205E+002
3	0	8.070153870735521E+002	2.4901508E-001	-2.7036267E+002
3	0	8.075153870609211E+002	2.4886476E-001	-2.7038031E+002
3	0	8.080153870482900E+002	2.4871495E-001	-2.7037677E+002
3	0	8.085153870356589E+002	2.4856278E-001	-2.7040155E+002
3	0	8.090153870230279E+002	2.4841441E-001	-2.7036972E+002
3	0	8.095153870103968E+002	2.4825506E-001	-2.7037326E+002
3	0	8.100153869977657E+002	2.4808629E-001	-2.7037326E+002
3	0	8.105153869851347E+002	2.4790031E-001	-2.7040506E+002
3	0	8.110153869725036E+002	2.4773389E-001	-2.7039801E+002
3	0	8.115153869598726E+002	2.4759403E-001	-2.7037677E+002
3	0	8.120153869472415E+002	2.4745089E-001	-2.7037677E+002
3	0	8.125153869346104E+002	2.4730870E-001	-2.7035913E+002
3	0	8.130153869219794E+002	2.4716273E-001	-2.7039093E+002
3	0	8.135153869093483E+002	2.4702536E-001	-2.7037677E+002
3	0	8.140153868967172E+002	2.4686478E-001	-2.7038031E+002
3	0	8.145153868840862E+002	2.4668951E-001	-2.7038385E+002
3	0	8.150153868714551E+002	2.4653620E-001	-2.7038385E+002
3	0	8.155153868588241E+002	2.4641202E-001	-2.7040155E+002
3	0	8.160153868461930E+002	2.4627729E-001	-2.7038742E+002
3	0	8.165153868335619E+002	2.4614747E-001	-2.7038031E+002
3	0	8.170153868209309E+002	2.4601066E-001	-2.7036972E+002
3	0	8.175153868082998E+002	2.4587265E-001	-2.7040155E+002
3	0	8.180153867956687E+002	2.4571805E-001	-2.7041214E+002
3	0	8.185153867830377E+002	2.4554613E-001	-2.7038385E+002
3	0	8.190153867704066E+002	2.4539386E-001	-2.7038031E+002
3	0	8.195153867577756E+002	2.4527466E-001	-2.7036972E+002
3	0	8.200153867451445E+002	2.4514571E-001	-2.7039093E+002
3	0	8.205153867325134E+002	2.4502870E-001	-2.7038031E+002
3	0	8.210153867198824E+002	2.4490002E-001	-2.7039093E+002
3	0	8.215153867072513E+002	2.4474655E-001	-2.7039801E+002
3	0	8.220153866946202E+002	2.4458909E-001	-2.7037326E+002
3	0	8.225153866819892E+002	2.4444593E-001	-2.7038031E+002
3	0	8.230153866693581E+002	2.4432345E-001	-2.7038031E+002
3	0	8.235153866567271E+002	2.4422902E-001	-2.7038031E+002
3	0	8.240153866440960E+002	2.4412283E-001	-2.7038385E+002
3	0	8.245153866314649E+002	2.4401090E-001	-2.7040506E+002
3	0	8.250153866188339E+002	2.4389803E-001	-2.7036267E+002
3	0	8.255153866062028E+002	2.4377894E-001	-2.7038742E+002
3	0	8.260153865935717E+002	2.4364120E-001	-2.7037677E+002
3	0	8.265153865809407E+002	2.4348398E-001	-2.7036267E+002
3	0	8.270153865683096E+002	2.4335435E-001	-2.7036618E+002
3	0	8.275153865556786E+002	2.4326234E-001	-2.7037677E+002
3	0	8.280153865430475E+002	2.4316029E-001	-2.7036618E+002
3	0	8.285153865304164E+002	2.4305707E-001	-2.7039093E+002
3	0	8.290153865177854E+002	2.4295165E-001	-2.7038385E+002
3	0	8.295153865051543E+002	2.4283549E-001	-2.7037677E+002
3	0	8.300153864925232E+002	2.4270165E-001	-2.7036972E+002
3	0	8.305153864798922E+002	2.4254930E-001	-2.7038031E+002
3	0	8.310153864672611E+002	2.4242420E-001	-2.7040155E+002
3	0	8.315153864546301E+002	2.4233100E-001	-2.7039447E+002
3	0	8.320153864419990E+002	2.4224059E-001	-2.7037326E+002
3	0	8.325153864293679E+002	2.4213888E-001	-2.7037677E+002
3	0	8.330153864167369E+002	2.4204154E-001	-2.7037326E+002
3	0	8.335153864041058E+002	2.4193941E-001	-2.7039447E+002
3	0	8.340153863914747E+002	2.4181098E-001	-2.7034851E+002
3	0	8.345153863788437E+002	2.4166659E-001	-2.7039801E+002
3	0	8.350153863662126E+002	2.4154569E-001	-2.7040155E+002
3	0	8.355153863535816E+002	2.4146447E-001	-2.7039801E+002
3	0	8.360153863409505E+002	2.4138002E-001	-2.7037677E+002
3	0	8.365153863283194E+002	2.4128175E-001	-2.7037326E+002
3	0	8.370153863156884E+002	2.4118234E-001	-2.7038031E+002
3	0	8.375153863030573E+002	2.4108639E-001	-2.7038385E+002
3	0	8.380153862904263E+002	2.4096075E-001	-2.7037326E+002
3	0	8.385153862777952E+002	2.4082330E-001	-2.7037326E+002
3	0	8.390153862651641E+002	2.4070482E-001	-2.7038031E+002
3	0	8.395153862525331E+002	2.4061774E-001	-2.7039093E+002
3	0	8.400153862399020E+002	2.4052799E-001	-2.7036618E+002
3	0	8.405153862272709E+002	2.4043463E-001	-2.7035205E+002
3	0	8.410153862146399E+002	2.4033682E-001	-2.7039447E+002
3	0	8.415153862020088E+002	2.4024068E-001	-2.7038031E+002
3	0	8.420153861893778E+002	2.4013214E-001	-2.7037326E+002
3	0	8.425153861767467E+002	2.3999397E-001	-2.7038385E+002
3	0	8.430153861641156E+002	2.3988277E-001	-2.7038385E+002
3	0	8.435153861514846E+002	2.3980570E-001	-2.7039801E+002
3	0	8.440153861388535E+002	2.3972872E-001	-2.7038031E+002
3	0	8.445153861262224E+002	2.3964985E-001	-2.7039801E+002
3	0	8.450153861135914E+002	2.3957032E-001	-2.7038742E+002
3	0	8.455153861009603E+002	2.3948003E-001	-2.7038385E+002
3	0	8.460153860883293E+002	2.3936915E-001	-2.7036618E+002
3	0	8.465153860756982E+002	2.3923236E-001	-2.7038742E+002
3	0	8.470153860630671E+002	2.3913331E-001	-2.7038742E+002
3	0	8.475153860504361E+002	2.3905943E-001	-2.7038742E+002
3	0	8.480153860378050E+002	2.3899403E-001	-2.7037326E+002
3	0	8.485153860251739E+002	2.3891903E-001	-2.7037677E+002
3	0	8.490153860125429E+002	2.3883863E-001	-2.7037677E+002
3	0	8.495153859999118E+002	2.3875621E-001	-2.7037326E+002
3	0	8.500153859872808E+002	2.3865154E-001	-2.7036267E+002
3	0	8.505153859746497E+002	2.3852155E-001	-2.7039447E+002
3	0	8.510153859620186E+002	2.3841968E-001	-2.7036972E+002
3	0	8.515153859493876E+002	2.3835176E-001	-2.7039801E+002
3	0	8.520153859367565E+002	2.3828644E-001	-2.7037326E+002
3	0	8.525153859241254E+002	2.3820956E-001	-2.7037326E+002
3	0	8.530153859114944E+002	2.3813136E-001	-2.7039801E+002
3	0	8.535153858988633E+002	2.3803976E-001	-2.7036618E+002
3	0	8.540153858862323E+002	2.3793519E-001	-2.7038031E+002
3	0	8.545153858736012E+002	2.3781505E-001	-2.7039093E+002
3	0	8.550153858609701E+002	2.3771659E-001	-2.7036267E+002
3	0	8.555153858483391E+002	2.3765077E-001	-2.7035913E+002
3	0	8.560153858357080E+002	2.3758209E-001	-2.7039447E+002
3	0	8.565153858230769E+002	2.3750961E-001	-2.7037326E+002
3	0	8.570153858104459E+002	2.3743553E-001	-2.7036267E+002
3	0	8.575153857978148E+002	2.3735465E-001	-2.7037326E+002
3	0	8.580153857851838E+002	2.3725043E-001	-2.7038742E+002
3	0	8.585153857725527E+002	2.3712440E-001	-2.7036972E+002
3	0	8.590153857599216E+002	2.3702829E-001	-2.7035913E+002
3	0	8.595153857472906E+002	2.3696551E-001	-2.7039801E+002
3	0	8.600153857346595E+002	2.3689242E-001	-2.7039447E+002
3	0	8.605153857220284E+002	2.3682596E-001	-2.7039447E+002
3	0	8.610153857093974E+002	2.3674938E-001	-2.7039093E+002
3	0	8.615153856967663E+002	2.3667657E-001	-2.7036267E+002
3	0	8.620153856841353E+002	2.3658128E-001	-2.7037677E+002
3	0	8.625153856715042E+002	2.3646285E-001	-2.7036267E+002
3	0	8.630153856588731E+002	2.3636964E-001	-2.7036267E+002
3	0	8.635153856462421E+002	2.3631485E-001	-2.7039447E+002
3	0	8.640153856336110E+002	2.3625368E-001	-2.7038031E+002
3	0	8.645153856209799E+002	2.3618643E-001	-2.7038742E+002
3	0	8.650153856083489E+002	2.3612256E-001	-2.7036618E+002
3	0	8.655153855957178E+002	2.3604576E-001	-2.7039801E+002
3	0	8.660153855830868E+002	2.3595658E-001	-2.7038031E+002
3	0	8.665153855704557E+002	2.3584542E-001	-2.7038031E+002
3	0	8.670153855578246E+002	2.3576032E-001	-2.7038385E+002
3	0	8.675153855451936E+002	2.3571134E-001	-2.7037677E+002
3	0	8.680153855325625E+002	2.3565795E-001	-2.7038031E+002
3	0	8.685153855199314E+002	2.3560204E-001	-2.7038031E+002
3	0	8.690153855073004E+002	2.3553996E-001	-2.7039801E+002
3	0	8.695153854946693E+002	2.3547384E-001	-2.7036267E+002
3	0	8.700153854820383E+002	2.3538871E-001	-2.7038385E+002
3	0	8.705153854694072E+002	2.3528138E-001	-2.7039447E+002
3	0	8.710153854567761E+002	2.3520106E-001	-2.7038742E+002
3	0	8.715153854441451E+002	2.3514593E-001	-2.7037677E+002
3	0	8.720153854315140E+002	2.3508832E-001	-2.7036618E+002
3	0	8.725153854188829E+002	2.3502588E-001	-2.7039447E+002
3	0	8.730153854062519E+002	2.3495948E-001	-2.7038385E+002
3	0	8.735153853936208E+002	2.3489295E-001	-2.7036618E+002
3	0	8.740153853809898E+002	2.3480885E-001	-2.7037326E+002
3	0	8.745153853683587E+002	2.3470001E-001	-2.7038385E+002
3	0	8.750153853557276E+002	2.3461752E-001	-2.7038031E+002
3	0	8.755153853430966E+002	2.3457015E-001	-2.7039093E+002
3	0	8.760153853304655E+002	2.3452084E-001	-2.7040506E+002
3	0	8.765153853178344E+002	2.3446023E-001	-2.7038385E+002
3	0	8.770153853052034E+002	2.3440182E-001	-2.7040506E+002
3	0	8.775153852925723E+002	2.3433377E-001	-2.7036618E+002
3	0	8.780153852799413E+002	2.3424737E-001	-2.7038031E+002
3	0	8.785153852673102E+002	2.3414029E-001	-2.7036267E+002
3	0	8.790153852546791E+002	2.3405406E-001	-2.7040860E+002
3	0	8.795153852420481E+002	2.3400743E-001	-2.7037677E+002
3	0	8.800153852294170E+002	2.3395568E-001	-2.7037677E+002
3	0	8.805153852167859E+002	2.3388937E-001	-2.7039093E+002
3	0	8.810153852041549E+002	2.3382536E-001	-2.7038031E+002
3	0	8.815153851915238E+002	2.3376046E-001	-2.7038031E+002
3	0	8.820153851788928E+002	2.3367494E-001	-2.7039093E+002
3	0	8.825153851662617E+002	2.3356737E-001	-2.7038031E+002
3	0	8.830153851536306E+002	2.3348619E-001	-2.7040155E+002
3	0	8.835153851409996E+002	2.3344107E-001	-2.7037677E+002
3	0	8.840153851283685E+002	2.3339555E-001	-2.7036267E+002
3	0	8.845153851157374E+002	2.3334625E-001	-2.7038031E+002
3	0	8.850153851031064E+002	2.3328954E-001	-2.7038385E+002
3	0	8.855153850904753E+002	2.3323257E-001	-2.7037677E+002
3	0	8.860153850778443E+002	2.3316324E-001	-2.7036618E+002
3	0	8.865153850652132E+002	2.3306108E-001	-2.7038742E+002
3	0	8.870153850525821E+002	2.3298456E-001	-2.7038031E+002
3	0	8.875153850399511E+002	2.3294371E-001	-2.7038385E+002
3	0	8.880153850273200E+002	2.3290147E-001	-2.7038385E+002
3	0	8.885153850146889E+002	2.3285224E-001	-2.7037326E+002
3	0	8.890153850020579E+002	2.3279931E-001	-2.7040860E+002
3	0	8.895153849894268E+002	2.3273706E-001	-2.7035913E+002
3	0	8.900153849767958E+002	2.3266378E-001	-2.7039447E+002
3	0	8.905153849641647E+002	2.3256683E-001	-2.7039801E+002
3	0	8.910153849515336E+002	2.3249151E-001	-2.7039093E+002
3	0	8.915153849389026E+002	2.3245636E-001	-2.7036267E+002
3	0	8.920153849262715E+002	2.3241764E-001	-2.7040155E+002
3	0	8.925153849136404E+002	2.3237410E-001	-2.7037326E+002
3	0	8.930153849010094E+002	2.3232502E-001	-2.7039447E+002
3	0	8.935153848883783E+002	2.3227218E-001	-2.7039447E+002
3	0	8.940153848757473E+002	2.3219503E-001	-2.7039801E+002
3	0	8.945153848631162E+002	2.3210204E-001	-2.7037677E+002
3	0	8.950153848504851E+002	2.3203219E-001	-2.7038742E+002
3	0	8.955153848378541E+002	2.3199648E-001	-2.7039447E+002
3	0	8.960153848252230E+002	2.3195736E-001	-2.7038742E+002
3	0	8.965153848125919E+002	2.3190723E-001	-2.7035913E+002
3	0	8.970153847999609E+002	2.3186293E-001	-2.7037326E+002
3	0	8.975153847873298E+002	2.3181047E-001	-2.7038742E+002
3	0	8.980153847746988E+002	2.3173876E-001	-2.7037326E+002
3	0	8.985153847620677E+002	2.3164056E-001	-2.7036972E+002
3	0	8.990153847494366E+002	2.3156427E-001	-2.7041919E+002
3	0	8.995153847368056E+002	2.3152447E-001	-2.7038031E+002
3	0	9.000153847241745E+002	2.3148048E-001	-2.7039447E+002
3	0	9.005153847115434E+002	2.3142272E-001	-2.7036972E+002
3	0	9.010153846989124E+002	2.3137584E-001	-2.7034497E+002
3	0	9.015153846862813E+002	2.3132265E-001	-2.7038031E+002
3	0	9.020153846736503E+002	2.3124434E-001	-2.7041568E+002
3	0	9.025153846610192E+002	2.3115072E-001	-2.7037326E+002
3	0	9.030153846483881E+002	2.3107553E-001	-2.7038742E+002
3	0	9.035153846357571E+002	2.3103946E-001	-2.7036618E+002
3	0	9.040153846231260E+002	2.3101039E-001	-2.7036618E+002
3	0	9.045153846104949E+002	2.3096773E-001	-2.7037326E+002
3	0	9.050153845978639E+002	2.3092405E-001	-2.7038385E+002
3	0	9.055153845852328E+002	2.3087375E-001	-2.7038385E+002
3	0	9.060153845726018E+002	2.3080286E-001	-2.7039801E+002
3	0	9.065153845599707E+002	2.3070928E-001	-2.7036618E+002
3	0	9.070153845473396E+002	2.3064286E-001	-2.7037677E+002
3	0	9.075153845347086E+002	2.3061077E-001	-2.7038031E+002
3	0	9.080153845220775E+002	2.3057432E-001	-2.7036267E+002
3	0	9.085153845094464E+002	2.3053144E-001	-2.7033789E+002
3	0	9.090153844968154E+002	2.3049586E-001	-2.7036972E+002
3	0	9.095153844841843E+002	2.3045130E-001	-2.7037677E+002
3	0	9.100153844715533E+002	2.3038536E-001	-2.7037677E+002
3	0	9.105153844589222E+002	2.3029703E-001	-2.7037326E+002
3	0	9.110153844462911E+002	2.3022945E-001	-2.7038031E+002
3	0	9.115153844336601E+002	2.3019885E-001	-2.7036972E+002
3	0	9.120153844210290E+002	2.3016348E-001	-2.7037326E+002
3	0	9.125153844083979E+002	2.3012245E-001	-2.7039801E+002
3	0	9.125387844078068E+002	2.3009107E-001	-2.7040506E+002